
Filename:
	C:\Program Files\Thermo Electron\WinXRD\Datafiles\F_HERMAN\FIEN\10_1_AUG_P_RT.raw

File Created:
	January 23, 2019 - 03:43 PM

Specimen Id:
	10.1 AUG SUPPORT P FT

Specimen Name:
	

Specimen Description:
	

Comment:
Scan Type: 2Theta Scan
Start Angle: 1 deg.
Stop Angle: 65 deg.
Num Points: 3201
Step Size: 0.02 deg.
Scan Rate: 1.000000
Scan Mode: Continuous
Wavelength: 1.540562
\Kalpha1: 1.540562	\Kalpha2: 1.544390	\Kbeta: 1.392218

Optics:
		Detector:
			 Type: Fixed Slits
		Tube: 
			 Type: Fixed Slits


Datas:
 Pos [deg]       Rate [CPS]      ESD [-]

Range 1 ---> Iteration 1
   1.000        887.50	    32.634
   1.020        577.50	    26.325
   1.040        530.83	    25.239
   1.060        606.67	    26.981
   1.080        515.83	    24.880
   1.100        443.33	    23.065
   1.120        448.33	    23.195
   1.140        489.17	    24.228
   1.160        505.83	    24.637
   1.180        437.50	    22.913
   1.200        385.00	    21.494
   1.220        375.00	    21.213
   1.240        353.33	    20.591
   1.260        398.33	    21.863
   1.280        515.00	    24.860
   1.300        592.50	    26.665
   1.320        742.50	    29.850
   1.340        810.00	    31.177
   1.360       1071.67	    35.861
   1.380       1265.00	    38.962
   1.400       1306.67	    39.598
   1.420       1344.17	    40.162
   1.440       1302.50	    39.535
   1.460       1246.67	    38.678
   1.480       1169.17	    37.457
   1.500       1167.50	    37.430
   1.520       1119.17	    36.647
   1.540       1095.00	    36.249
   1.560       1075.83	    35.930
   1.580       1045.83	    35.426
   1.600       1055.00	    35.581
   1.620       1003.33	    34.699
   1.640        951.67	    33.793
   1.660        762.50	    30.249
   1.680        800.83	    31.000
   1.700        766.67	    30.332
   1.720        669.17	    28.337
   1.740        630.00	    27.495
   1.760        665.83	    28.267
   1.780        602.50	    26.889
   1.800        564.17	    26.019
   1.820        573.33	    26.230
   1.840        504.17	    24.597
   1.860        539.17	    25.436
   1.880        523.33	    25.060
   1.900        480.00	    24.000
   1.920        459.17	    23.473
   1.940        490.83	    24.269
   1.960        435.83	    22.869
   1.980        444.17	    23.087
   2.000        420.83	    22.472
   2.020        415.83	    22.338
   2.040        437.50	    22.913
   2.060        455.83	    23.388
   2.080        400.00	    21.909
   2.100        385.00	    21.494
   2.120        397.50	    21.840
   2.140        398.33	    21.863
   2.160        416.67	    22.361
   2.180        335.00	    20.050
   2.200        407.50	    22.113
   2.220        352.50	    20.567
   2.240        372.50	    21.142
   2.260        388.33	    21.587
   2.280        332.50	    19.975
   2.300        345.00	    20.347
   2.320        382.50	    21.424
   2.340        321.67	    19.647
   2.360        312.50	    19.365
   2.380        329.17	    19.875
   2.400        311.67	    19.339
   2.420        345.83	    20.372
   2.440        309.17	    19.261
   2.460        319.17	    19.570
   2.480        331.67	    19.950
   2.500        313.33	    19.391
   2.520        328.33	    19.849
   2.540        275.83	    18.193
   2.560        293.33	    18.762
   2.580        270.83	    18.028
   2.600        325.83	    19.774
   2.620        297.50	    18.894
   2.640        275.00	    18.166
   2.660        272.50	    18.083
   2.680        272.50	    18.083
   2.700        308.33	    19.235
   2.720        289.17	    18.628
   2.740        294.17	    18.788
   2.760        236.67	    16.852
   2.780        243.33	    17.088
   2.800        241.67	    17.029
   2.820        265.00	    17.833
   2.840        288.33	    18.601
   2.860        255.83	    17.521
   2.880        259.17	    17.635
   2.900        253.33	    17.436
   2.920        241.67	    17.029
   2.940        251.67	    17.378
   2.960        242.50	    17.059
   2.980        249.17	    17.292
   3.000        258.33	    17.607
   3.020        249.17	    17.292
   3.040        245.83	    17.176
   3.060        240.83	    17.000
   3.080        233.33	    16.733
   3.100        250.00	    17.321
   3.120        223.33	    16.371
   3.140        210.83	    15.906
   3.160        229.17	    16.583
   3.180        223.33	    16.371
   3.200        224.17	    16.401
   3.220        238.33	    16.912
   3.240        228.33	    16.553
   3.260        175.00	    14.491
   3.280        242.50	    17.059
   3.300        209.17	    15.843
   3.320        239.17	    16.941
   3.340        190.83	    15.133
   3.360        240.00	    16.971
   3.380        210.00	    15.875
   3.400        219.17	    16.217
   3.420        209.17	    15.843
   3.440        197.50	    15.395
   3.460        222.50	    16.340
   3.480        204.17	    15.652
   3.500        236.67	    16.852
   3.520        206.67	    15.748
   3.540        194.17	    15.264
   3.560        180.83	    14.731
   3.580        204.17	    15.652
   3.600        188.33	    15.033
   3.620        196.67	    15.362
   3.640        214.17	    16.031
   3.660        202.50	    15.588
   3.680        186.67	    14.967
   3.700        199.17	    15.460
   3.720        183.33	    14.832
   3.740        171.67	    14.353
   3.760        179.17	    14.663
   3.780        191.67	    15.166
   3.800        182.50	    14.799
   3.820        185.00	    14.900
   3.840        205.83	    15.716
   3.860        175.83	    14.526
   3.880        176.67	    14.560
   3.900        176.67	    14.560
   3.920        196.67	    15.362
   3.940        157.50	    13.748
   3.960        192.50	    15.199
   3.980        175.83	    14.526
   4.000        153.33	    13.565
   4.020        165.00	    14.071
   4.040        169.17	    14.248
   4.060        167.50	    14.177
   4.080        151.67	    13.491
   4.100        172.50	    14.387
   4.120        149.17	    13.379
   4.140        161.67	    13.928
   4.160        159.17	    13.820
   4.180        169.17	    14.248
   4.200        175.83	    14.526
   4.220        160.83	    13.892
   4.240        165.83	    14.107
   4.260        148.33	    13.342
   4.280        155.00	    13.638
   4.300        145.83	    13.229
   4.320        150.83	    13.454
   4.340        158.33	    13.784
   4.360        157.50	    13.748
   4.380        140.00	    12.961
   4.400        156.67	    13.711
   4.420        155.83	    13.675
   4.440        159.17	    13.820
   4.460        157.50	    13.748
   4.480        167.50	    14.177
   4.500        160.83	    13.892
   4.520        131.67	    12.570
   4.540        154.17	    13.601
   4.560        157.50	    13.748
   4.580        160.00	    13.856
   4.600        135.00	    12.728
   4.620        143.33	    13.115
   4.640        159.17	    13.820
   4.660        173.33	    14.422
   4.680        140.00	    12.961
   4.700        144.17	    13.153
   4.720        135.83	    12.767
   4.740        159.17	    13.820
   4.760        133.33	    12.649
   4.780        140.83	    13.000
   4.800        144.17	    13.153
   4.820        141.67	    13.038
   4.840        128.33	    12.410
   4.860        144.17	    13.153
   4.880        131.67	    12.570
   4.900        120.00	    12.000
   4.920        142.50	    13.077
   4.940        125.00	    12.247
   4.960        131.67	    12.570
   4.980        142.50	    13.077
   5.000        101.67	    11.045
   5.020        119.17	    11.958
   5.040        130.83	    12.530
   5.060        130.00	    12.490
   5.080        130.83	    12.530
   5.100        106.67	    11.314
   5.120        144.17	    13.153
   5.140        124.17	    12.207
   5.160        137.50	    12.845
   5.180        124.17	    12.207
   5.200        136.67	    12.806
   5.220        146.67	    13.266
   5.240        119.17	    11.958
   5.260        122.50	    12.124
   5.280        147.50	    13.304
   5.300        122.50	    12.124
   5.320        124.17	    12.207
   5.340        130.00	    12.490
   5.360        125.00	    12.247
   5.380        120.83	    12.042
   5.400        125.00	    12.247
   5.420        124.17	    12.207
   5.440        128.33	    12.410
   5.460        122.50	    12.124
   5.480        110.00	    11.489
   5.500        130.00	    12.490
   5.520        119.17	    11.958
   5.540        110.83	    11.533
   5.560        125.83	    12.288
   5.580        122.50	    12.124
   5.600        124.17	    12.207
   5.620        131.67	    12.570
   5.640        133.33	    12.649
   5.660        130.00	    12.490
   5.680        137.50	    12.845
   5.700        130.00	    12.490
   5.720        127.50	    12.369
   5.740        121.67	    12.083
   5.760        123.33	    12.166
   5.780        123.33	    12.166
   5.800        124.17	    12.207
   5.820        146.67	    13.266
   5.840        140.83	    13.000
   5.860        134.17	    12.689
   5.880        140.83	    13.000
   5.900        153.33	    13.565
   5.920        145.00	    13.191
   5.940        166.67	    14.142
   5.960        190.00	    15.100
   5.980        195.00	    15.297
   6.000        196.67	    15.362
   6.020        247.50	    17.234
   6.040        253.33	    17.436
   6.060        240.83	    17.000
   6.080        260.00	    17.664
   6.100        236.67	    16.852
   6.120        246.67	    17.205
   6.140        275.00	    18.166
   6.160        315.83	    19.468
   6.180        358.33	    20.736
   6.200        325.00	    19.748
   6.220        311.67	    19.339
   6.240        290.83	    18.682
   6.260        276.67	    18.221
   6.280        253.33	    17.436
   6.300        252.50	    17.407
   6.320        210.83	    15.906
   6.340        162.50	    13.964
   6.360        151.67	    13.491
   6.380        149.17	    13.379
   6.400        150.83	    13.454
   6.420        144.17	    13.153
   6.440        131.67	    12.570
   6.460        145.83	    13.229
   6.480        128.33	    12.410
   6.500        120.00	    12.000
   6.520        120.00	    12.000
   6.540        113.33	    11.662
   6.560        105.83	    11.269
   6.580        128.33	    12.410
   6.600        100.00	    10.954
   6.620        117.50	    11.874
   6.640        119.17	    11.958
   6.660        110.00	    11.489
   6.680         95.00	    10.677
   6.700        109.17	    11.446
   6.720        117.50	    11.874
   6.740         95.83	    10.724
   6.760        113.33	    11.662
   6.780        108.33	    11.402
   6.800         97.50	    10.817
   6.820        100.83	    11.000
   6.840         91.67	    10.488
   6.860        109.17	    11.446
   6.880        105.00	    11.225
   6.900        105.00	    11.225
   6.920        103.33	    11.136
   6.940        105.83	    11.269
   6.960        106.67	    11.314
   6.980        100.00	    10.954
   7.000         98.33	    10.863
   7.020        109.17	    11.446
   7.040        101.67	    11.045
   7.060        115.00	    11.747
   7.080        104.17	    11.180
   7.100        105.00	    11.225
   7.120        103.33	    11.136
   7.140        107.50	    11.358
   7.160         98.33	    10.863
   7.180         95.00	    10.677
   7.200        100.00	    10.954
   7.220        105.00	    11.225
   7.240         93.33	    10.583
   7.260        103.33	    11.136
   7.280        105.00	    11.225
   7.300         98.33	    10.863
   7.320        104.17	    11.180
   7.340         97.50	    10.817
   7.360         87.50	    10.247
   7.380         90.83	    10.440
   7.400         97.50	    10.817
   7.420        100.83	    11.000
   7.440         94.17	    10.630
   7.460        104.17	    11.180
   7.480         93.33	    10.583
   7.500         99.17	    10.909
   7.520         81.67	     9.899
   7.540         91.67	    10.488
   7.560         92.50	    10.536
   7.580        101.67	    11.045
   7.600         88.33	    10.296
   7.620         85.00	    10.100
   7.640        101.67	    11.045
   7.660         89.17	    10.344
   7.680         93.33	    10.583
   7.700         85.00	    10.100
   7.720         89.17	    10.344
   7.740         90.00	    10.392
   7.760         92.50	    10.536
   7.780         99.17	    10.909
   7.800        100.00	    10.954
   7.820        103.33	    11.136
   7.840         82.50	     9.950
   7.860         85.83	    10.149
   7.880         92.50	    10.536
   7.900         98.33	    10.863
   7.920         92.50	    10.536
   7.940         73.33	     9.381
   7.960         86.67	    10.198
   7.980         89.17	    10.344
   8.000         95.00	    10.677
   8.020         79.17	     9.747
   8.040         80.00	     9.798
   8.060         80.83	     9.849
   8.080         95.00	    10.677
   8.100         82.50	     9.950
   8.120         85.83	    10.149
   8.140         88.33	    10.296
   8.160         99.17	    10.909
   8.180         93.33	    10.583
   8.200         84.17	    10.050
   8.220         90.00	    10.392
   8.240        104.17	    11.180
   8.260        104.17	    11.180
   8.280        109.17	    11.446
   8.300         84.17	    10.050
   8.320         97.50	    10.817
   8.340         90.83	    10.440
   8.360        109.17	    11.446
   8.380         80.83	     9.849
   8.400        104.17	    11.180
   8.420         91.67	    10.488
   8.440         92.50	    10.536
   8.460         98.33	    10.863
   8.480        105.83	    11.269
   8.500        102.50	    11.091
   8.520        125.00	    12.247
   8.540        111.67	    11.576
   8.560        112.50	    11.619
   8.580        135.00	    12.728
   8.600        130.83	    12.530
   8.620        125.83	    12.288
   8.640        120.83	    12.042
   8.660        127.50	    12.369
   8.680        131.67	    12.570
   8.700        168.33	    14.213
   8.720        198.33	    15.427
   8.740        221.67	    16.310
   8.760        248.33	    17.263
   8.780        234.17	    16.763
   8.800        253.33	    17.436
   8.820        267.50	    17.916
   8.840        274.17	    18.138
   8.860        323.33	    19.698
   8.880        391.67	    21.679
   8.900        506.67	    24.658
   8.920        669.17	    28.337
   8.940        763.33	    30.265
   8.960        744.17	    29.883
   8.980        544.17	    25.554
   9.000        305.00	    19.131
   9.020        179.17	    14.663
   9.040        137.50	    12.845
   9.060        108.33	    11.402
   9.080        107.50	    11.358
   9.100         88.33	    10.296
   9.120        100.00	    10.954
   9.140        115.83	    11.790
   9.160        105.00	    11.225
   9.180         95.00	    10.677
   9.200         91.67	    10.488
   9.220        103.33	    11.136
   9.240        110.00	    11.489
   9.260         93.33	    10.583
   9.280        109.17	    11.446
   9.300         91.67	    10.488
   9.320         90.00	    10.392
   9.340         80.83	     9.849
   9.360         91.67	    10.488
   9.380         90.83	    10.440
   9.400         89.17	    10.344
   9.420        100.00	    10.954
   9.440        115.00	    11.747
   9.460         97.50	    10.817
   9.480        118.33	    11.916
   9.500        122.50	    12.124
   9.520        129.17	    12.450
   9.540        113.33	    11.662
   9.560        106.67	    11.314
   9.580         87.50	    10.247
   9.600         80.00	     9.798
   9.620         85.83	    10.149
   9.640         72.50	     9.327
   9.660         84.17	    10.050
   9.680         88.33	    10.296
   9.700         75.83	     9.539
   9.720         75.00	     9.487
   9.740         90.00	    10.392
   9.760         72.50	     9.327
   9.780         70.83	     9.220
   9.800         76.67	     9.592
   9.820         88.33	    10.296
   9.840         77.50	     9.644
   9.860         85.00	    10.100
   9.880         79.17	     9.747
   9.900         78.33	     9.695
   9.920         78.33	     9.695
   9.940         70.00	     9.165
   9.960         60.00	     8.485
   9.980         75.00	     9.487
  10.000         79.17	     9.747
  10.020         86.67	    10.198
  10.040         77.50	     9.644
  10.060         80.00	     9.798
  10.080         67.50	     9.000
  10.100         60.00	     8.485
  10.120         82.50	     9.950
  10.140         72.50	     9.327
  10.160         61.67	     8.602
  10.180         63.33	     8.718
  10.200         65.00	     8.832
  10.220         83.33	    10.000
  10.240         68.33	     9.055
  10.260         55.00	     8.124
  10.280         60.83	     8.544
  10.300         73.33	     9.381
  10.320         67.50	     9.000
  10.340         68.33	     9.055
  10.360         81.67	     9.899
  10.380         75.83	     9.539
  10.400         81.67	     9.899
  10.420         92.50	    10.536
  10.440         65.00	     8.832
  10.460         69.17	     9.110
  10.480         90.83	    10.440
  10.500         79.17	     9.747
  10.520         91.67	    10.488
  10.540        105.00	    11.225
  10.560        116.67	    11.832
  10.580        134.17	    12.689
  10.600        119.17	    11.958
  10.620        115.00	    11.747
  10.640         95.00	    10.677
  10.660         62.50	     8.660
  10.680         72.50	     9.327
  10.700         72.50	     9.327
  10.720         75.00	     9.487
  10.740         77.50	     9.644
  10.760         55.83	     8.185
  10.780         58.33	     8.367
  10.800         80.00	     9.798
  10.820         80.83	     9.849
  10.840         80.00	     9.798
  10.860         85.83	    10.149
  10.880         69.17	     9.110
  10.900         85.00	    10.100
  10.920         70.83	     9.220
  10.940         65.00	     8.832
  10.960         70.83	     9.220
  10.980         77.50	     9.644
  11.000         52.50	     7.937
  11.020         68.33	     9.055
  11.040         71.67	     9.274
  11.060         74.17	     9.434
  11.080         82.50	     9.950
  11.100         65.83	     8.888
  11.120         62.50	     8.660
  11.140         78.33	     9.695
  11.160         71.67	     9.274
  11.180         73.33	     9.381
  11.200         70.83	     9.220
  11.220         80.83	     9.849
  11.240         65.83	     8.888
  11.260         63.33	     8.718
  11.280         65.00	     8.832
  11.300         65.00	     8.832
  11.320         62.50	     8.660
  11.340         80.00	     9.798
  11.360         73.33	     9.381
  11.380         62.50	     8.660
  11.400         76.67	     9.592
  11.420         69.17	     9.110
  11.440         71.67	     9.274
  11.460         70.83	     9.220
  11.480         67.50	     9.000
  11.500         73.33	     9.381
  11.520         75.83	     9.539
  11.540         59.17	     8.426
  11.560         61.67	     8.602
  11.580         70.00	     9.165
  11.600         95.83	    10.724
  11.620         70.83	     9.220
  11.640         69.17	     9.110
  11.660         80.00	     9.798
  11.680         75.00	     9.487
  11.700         62.50	     8.660
  11.720         71.67	     9.274
  11.740         95.00	    10.677
  11.760         70.83	     9.220
  11.780         78.33	     9.695
  11.800         72.50	     9.327
  11.820         64.17	     8.775
  11.840         70.83	     9.220
  11.860         80.00	     9.798
  11.880         77.50	     9.644
  11.900         77.50	     9.644
  11.920         76.67	     9.592
  11.940         66.67	     8.944
  11.960         92.50	    10.536
  11.980         78.33	     9.695
  12.000         78.33	     9.695
  12.020         83.33	    10.000
  12.040         85.83	    10.149
  12.060        104.17	    11.180
  12.080        122.50	    12.124
  12.100        145.00	    13.191
  12.120        174.17	    14.457
  12.140        219.17	    16.217
  12.160        261.67	    17.720
  12.180        365.83	    20.952
  12.200        476.67	    23.917
  12.220        621.67	    27.313
  12.240        779.17	    30.578
  12.260        762.50	    30.249
  12.280        674.17	    28.443
  12.300        437.50	    22.913
  12.320        345.00	    20.347
  12.340        275.00	    18.166
  12.360        295.00	    18.815
  12.380        315.83	    19.468
  12.400        308.33	    19.235
  12.420        320.83	    19.621
  12.440        340.00	    20.199
  12.460        303.33	    19.079
  12.480        293.33	    18.762
  12.500        312.50	    19.365
  12.520        319.17	    19.570
  12.540        371.67	    21.119
  12.560        370.83	    21.095
  12.580        288.33	    18.601
  12.600        230.00	    16.613
  12.620        144.17	    13.153
  12.640        106.67	    11.314
  12.660         85.00	    10.100
  12.680         90.00	    10.392
  12.700         86.67	    10.198
  12.720         83.33	    10.000
  12.740         90.00	    10.392
  12.760         90.00	    10.392
  12.780         82.50	     9.950
  12.800         65.00	     8.832
  12.820         69.17	     9.110
  12.840         81.67	     9.899
  12.860         87.50	    10.247
  12.880         76.67	     9.592
  12.900         72.50	     9.327
  12.920         71.67	     9.274
  12.940         62.50	     8.660
  12.960         70.83	     9.220
  12.980         70.83	     9.220
  13.000         67.50	     9.000
  13.020         70.00	     9.165
  13.040         59.17	     8.426
  13.060         62.50	     8.660
  13.080         51.67	     7.874
  13.100         63.33	     8.718
  13.120         65.00	     8.832
  13.140         56.67	     8.246
  13.160         60.83	     8.544
  13.180         62.50	     8.660
  13.200         69.17	     9.110
  13.220         56.67	     8.246
  13.240         71.67	     9.274
  13.260         70.00	     9.165
  13.280         87.50	    10.247
  13.300         74.17	     9.434
  13.320         56.67	     8.246
  13.340         75.83	     9.539
  13.360         75.83	     9.539
  13.380         61.67	     8.602
  13.400         72.50	     9.327
  13.420         75.00	     9.487
  13.440         75.00	     9.487
  13.460         56.67	     8.246
  13.480         69.17	     9.110
  13.500         65.00	     8.832
  13.520         76.67	     9.592
  13.540         70.83	     9.220
  13.560         72.50	     9.327
  13.580         64.17	     8.775
  13.600         50.00	     7.746
  13.620         78.33	     9.695
  13.640         81.67	     9.899
  13.660         87.50	    10.247
  13.680         85.00	    10.100
  13.700         74.17	     9.434
  13.720         82.50	     9.950
  13.740         78.33	     9.695
  13.760         68.33	     9.055
  13.780         76.67	     9.592
  13.800         93.33	    10.583
  13.820         87.50	    10.247
  13.840        157.50	    13.748
  13.860        486.67	    24.166
  13.880        626.67	    27.423
  13.900        537.50	    25.397
  13.920        391.67	    21.679
  13.940        213.33	    16.000
  13.960        127.50	    12.369
  13.980         85.00	    10.100
  14.000         86.67	    10.198
  14.020         65.83	     8.888
  14.040         70.83	     9.220
  14.060         80.00	     9.798
  14.080         69.17	     9.110
  14.100         62.50	     8.660
  14.120         73.33	     9.381
  14.140         71.67	     9.274
  14.160         63.33	     8.718
  14.180         63.33	     8.718
  14.200         59.17	     8.426
  14.220         72.50	     9.327
  14.240         45.00	     7.348
  14.260         49.17	     7.681
  14.280         60.83	     8.544
  14.300         62.50	     8.660
  14.320         51.67	     7.874
  14.340         57.50	     8.307
  14.360         62.50	     8.660
  14.380         59.17	     8.426
  14.400         63.33	     8.718
  14.420         55.83	     8.185
  14.440         61.67	     8.602
  14.460         63.33	     8.718
  14.480         54.17	     8.062
  14.500         59.17	     8.426
  14.520         53.33	     8.000
  14.540         50.00	     7.746
  14.560         48.33	     7.616
  14.580         62.50	     8.660
  14.600         57.50	     8.307
  14.620         46.67	     7.483
  14.640         68.33	     9.055
  14.660         54.17	     8.062
  14.680         46.67	     7.483
  14.700         62.50	     8.660
  14.720         54.17	     8.062
  14.740         49.17	     7.681
  14.760         47.50	     7.550
  14.780         50.00	     7.746
  14.800         57.50	     8.307
  14.820         65.83	     8.888
  14.840         64.17	     8.775
  14.860         54.17	     8.062
  14.880         58.33	     8.367
  14.900         55.83	     8.185
  14.920         55.83	     8.185
  14.940         65.00	     8.832
  14.960         53.33	     8.000
  14.980         59.17	     8.426
  15.000         56.67	     8.246
  15.020         67.50	     9.000
  15.040         60.83	     8.544
  15.060         70.00	     9.165
  15.080         58.33	     8.367
  15.100         59.17	     8.426
  15.120         51.67	     7.874
  15.140         64.17	     8.775
  15.160         64.17	     8.775
  15.180         60.00	     8.485
  15.200         51.67	     7.874
  15.220         56.67	     8.246
  15.240         53.33	     8.000
  15.260         60.00	     8.485
  15.280         56.67	     8.246
  15.300         47.50	     7.550
  15.320         50.00	     7.746
  15.340         64.17	     8.775
  15.360         52.50	     7.937
  15.380         62.50	     8.660
  15.400         55.00	     8.124
  15.420         54.17	     8.062
  15.440         68.33	     9.055
  15.460         64.17	     8.775
  15.480         56.67	     8.246
  15.500         57.50	     8.307
  15.520         60.00	     8.485
  15.540         47.50	     7.550
  15.560         44.17	     7.280
  15.580         46.67	     7.483
  15.600         62.50	     8.660
  15.620         48.33	     7.616
  15.640         46.67	     7.483
  15.660         49.17	     7.681
  15.680         65.00	     8.832
  15.700         50.83	     7.810
  15.720         60.00	     8.485
  15.740         68.33	     9.055
  15.760         47.50	     7.550
  15.780         51.67	     7.874
  15.800         50.00	     7.746
  15.820         63.33	     8.718
  15.840         66.67	     8.944
  15.860         55.00	     8.124
  15.880         48.33	     7.616
  15.900         55.00	     8.124
  15.920         64.17	     8.775
  15.940         55.83	     8.185
  15.960         51.67	     7.874
  15.980         50.83	     7.810
  16.000         41.67	     7.071
  16.020         42.50	     7.141
  16.040         55.83	     8.185
  16.060         48.33	     7.616
  16.080         50.83	     7.810
  16.100         55.83	     8.185
  16.120         55.83	     8.185
  16.140         60.00	     8.485
  16.160         56.67	     8.246
  16.180         51.67	     7.874
  16.200         49.17	     7.681
  16.220         52.50	     7.937
  16.240         55.83	     8.185
  16.260         46.67	     7.483
  16.280         51.67	     7.874
  16.300         52.50	     7.937
  16.320         38.33	     6.782
  16.340         56.67	     8.246
  16.360         50.00	     7.746
  16.380         44.17	     7.280
  16.400         46.67	     7.483
  16.420         51.67	     7.874
  16.440         52.50	     7.937
  16.460         42.50	     7.141
  16.480         49.17	     7.681
  16.500         56.67	     8.246
  16.520         40.83	     7.000
  16.540         52.50	     7.937
  16.560         50.83	     7.810
  16.580         34.17	     6.403
  16.600         42.50	     7.141
  16.620         50.83	     7.810
  16.640         49.17	     7.681
  16.660         48.33	     7.616
  16.680         52.50	     7.937
  16.700         46.67	     7.483
  16.720         46.67	     7.483
  16.740         47.50	     7.550
  16.760         55.00	     8.124
  16.780         45.83	     7.416
  16.800         46.67	     7.483
  16.820         46.67	     7.483
  16.840         50.00	     7.746
  16.860         43.33	     7.211
  16.880         52.50	     7.937
  16.900         50.00	     7.746
  16.920         51.67	     7.874
  16.940         50.83	     7.810
  16.960         59.17	     8.426
  16.980         50.83	     7.810
  17.000         49.17	     7.681
  17.020         40.00	     6.928
  17.040         47.50	     7.550
  17.060         49.17	     7.681
  17.080         53.33	     8.000
  17.100         53.33	     8.000
  17.120         51.67	     7.874
  17.140         65.00	     8.832
  17.160         48.33	     7.616
  17.180         51.67	     7.874
  17.200         46.67	     7.483
  17.220         50.83	     7.810
  17.240         43.33	     7.211
  17.260         37.50	     6.708
  17.280         52.50	     7.937
  17.300         53.33	     8.000
  17.320         60.00	     8.485
  17.340         64.17	     8.775
  17.360         60.83	     8.544
  17.380         50.00	     7.746
  17.400         67.50	     9.000
  17.420         47.50	     7.550
  17.440         59.17	     8.426
  17.460         52.50	     7.937
  17.480         44.17	     7.280
  17.500         56.67	     8.246
  17.520         54.17	     8.062
  17.540         52.50	     7.937
  17.560         48.33	     7.616
  17.580         49.17	     7.681
  17.600         54.17	     8.062
  17.620         55.83	     8.185
  17.640         70.00	     9.165
  17.660         65.83	     8.888
  17.680         62.50	     8.660
  17.700         80.83	     9.849
  17.720         82.50	     9.950
  17.740         64.17	     8.775
  17.760         99.17	    10.909
  17.780        121.67	    12.083
  17.800        155.83	    13.675
  17.820        174.17	    14.457
  17.840        260.83	    17.692
  17.860        311.67	    19.339
  17.880        355.00	    20.640
  17.900        333.33	    20.000
  17.920        296.67	    18.868
  17.940        243.33	    17.088
  17.960        167.50	    14.177
  17.980        126.67	    12.329
  18.000         76.67	     9.592
  18.020         69.17	     9.110
  18.040         60.00	     8.485
  18.060         48.33	     7.616
  18.080         55.00	     8.124
  18.100         76.67	     9.592
  18.120         44.17	     7.280
  18.140         44.17	     7.280
  18.160         58.33	     8.367
  18.180         69.17	     9.110
  18.200         51.67	     7.874
  18.220         59.17	     8.426
  18.240         56.67	     8.246
  18.260         54.17	     8.062
  18.280         59.17	     8.426
  18.300         59.17	     8.426
  18.320         58.33	     8.367
  18.340         68.33	     9.055
  18.360         53.33	     8.000
  18.380         53.33	     8.000
  18.400         58.33	     8.367
  18.420         72.50	     9.327
  18.440         79.17	     9.747
  18.460         70.00	     9.165
  18.480         86.67	    10.198
  18.500         85.00	    10.100
  18.520         96.67	    10.770
  18.540         95.83	    10.724
  18.560        121.67	    12.083
  18.580        134.17	    12.689
  18.600        144.17	    13.153
  18.620        168.33	    14.213
  18.640        190.83	    15.133
  18.660        175.83	    14.526
  18.680        155.00	    13.638
  18.700        141.67	    13.038
  18.720        126.67	    12.329
  18.740        119.17	    11.958
  18.760        130.83	    12.530
  18.780        124.17	    12.207
  18.800        150.00	    13.416
  18.820        169.17	    14.248
  18.840        160.83	    13.892
  18.860        173.33	    14.422
  18.880        140.00	    12.961
  18.900        115.00	    11.747
  18.920         85.83	    10.149
  18.940         75.00	     9.487
  18.960         70.00	     9.165
  18.980         71.67	     9.274
  19.000         56.67	     8.246
  19.020         53.33	     8.000
  19.040         61.67	     8.602
  19.060         70.00	     9.165
  19.080         61.67	     8.602
  19.100         55.00	     8.124
  19.120         58.33	     8.367
  19.140         56.67	     8.246
  19.160         54.17	     8.062
  19.180         70.83	     9.220
  19.200         45.00	     7.348
  19.220         64.17	     8.775
  19.240         68.33	     9.055
  19.260         44.17	     7.280
  19.280         55.83	     8.185
  19.300         55.00	     8.124
  19.320         56.67	     8.246
  19.340         63.33	     8.718
  19.360         68.33	     9.055
  19.380         69.17	     9.110
  19.400         69.17	     9.110
  19.420         61.67	     8.602
  19.440         65.00	     8.832
  19.460         55.00	     8.124
  19.480         55.00	     8.124
  19.500         57.50	     8.307
  19.520         49.17	     7.681
  19.540         56.67	     8.246
  19.560         59.17	     8.426
  19.580         53.33	     8.000
  19.600         55.00	     8.124
  19.620         70.83	     9.220
  19.640         56.67	     8.246
  19.660         66.67	     8.944
  19.680         71.67	     9.274
  19.700         59.17	     8.426
  19.720         71.67	     9.274
  19.740         90.00	    10.392
  19.760         60.00	     8.485
  19.780         71.67	     9.274
  19.800         73.33	     9.381
  19.820         60.83	     8.544
  19.840         71.67	     9.274
  19.860         81.67	     9.899
  19.880         85.00	    10.100
  19.900         86.67	    10.198
  19.920         75.83	     9.539
  19.940         64.17	     8.775
  19.960         65.83	     8.888
  19.980         79.17	     9.747
  20.000         70.00	     9.165
  20.020         75.83	     9.539
  20.040         59.17	     8.426
  20.060         70.83	     9.220
  20.080         42.50	     7.141
  20.100         60.83	     8.544
  20.120         61.67	     8.602
  20.140         62.50	     8.660
  20.160         64.17	     8.775
  20.180         53.33	     8.000
  20.200         55.83	     8.185
  20.220         44.17	     7.280
  20.240         60.83	     8.544
  20.260         48.33	     7.616
  20.280         53.33	     8.000
  20.300         53.33	     8.000
  20.320         52.50	     7.937
  20.340         54.17	     8.062
  20.360         49.17	     7.681
  20.380         45.00	     7.348
  20.400         52.50	     7.937
  20.420         45.83	     7.416
  20.440         51.67	     7.874
  20.460         60.00	     8.485
  20.480         62.50	     8.660
  20.500         55.83	     8.185
  20.520         52.50	     7.937
  20.540         52.50	     7.937
  20.560         55.83	     8.185
  20.580         47.50	     7.550
  20.600         55.00	     8.124
  20.620         63.33	     8.718
  20.640         64.17	     8.775
  20.660         65.00	     8.832
  20.680         51.67	     7.874
  20.700         64.17	     8.775
  20.720         65.83	     8.888
  20.740         77.50	     9.644
  20.760         63.33	     8.718
  20.780         68.33	     9.055
  20.800         82.50	     9.950
  20.820        135.83	    12.767
  20.840        234.17	    16.763
  20.860        460.83	    23.516
  20.880        660.83	    28.160
  20.900        785.83	    30.708
  20.920        765.83	    30.315
  20.940        592.50	    26.665
  20.960        431.67	    22.760
  20.980        280.83	    18.358
  21.000        178.33	    14.629
  21.020        128.33	    12.410
  21.040        124.17	    12.207
  21.060        111.67	    11.576
  21.080         75.83	     9.539
  21.100         97.50	    10.817
  21.120         76.67	     9.592
  21.140         65.83	     8.888
  21.160         56.67	     8.246
  21.180         70.00	     9.165
  21.200         67.50	     9.000
  21.220         65.83	     8.888
  21.240         59.17	     8.426
  21.260         55.83	     8.185
  21.280         64.17	     8.775
  21.300         52.50	     7.937
  21.320         49.17	     7.681
  21.340         60.83	     8.544
  21.360         63.33	     8.718
  21.380         52.50	     7.937
  21.400         52.50	     7.937
  21.420         74.17	     9.434
  21.440         53.33	     8.000
  21.460         42.50	     7.141
  21.480         53.33	     8.000
  21.500         47.50	     7.550
  21.520         47.50	     7.550
  21.540         50.83	     7.810
  21.560         36.67	     6.633
  21.580         45.00	     7.348
  21.600         50.83	     7.810
  21.620         44.17	     7.280
  21.640         55.00	     8.124
  21.660         41.67	     7.071
  21.680         41.67	     7.071
  21.700         45.00	     7.348
  21.720         49.17	     7.681
  21.740         51.67	     7.874
  21.760         40.83	     7.000
  21.780         58.33	     8.367
  21.800         48.33	     7.616
  21.820         60.83	     8.544
  21.840         55.83	     8.185
  21.860         47.50	     7.550
  21.880         46.67	     7.483
  21.900         51.67	     7.874
  21.920         55.00	     8.124
  21.940         55.83	     8.185
  21.960         49.17	     7.681
  21.980         59.17	     8.426
  22.000         76.67	     9.592
  22.020         83.33	    10.000
  22.040        109.17	    11.446
  22.060        107.50	    11.358
  22.080        143.33	    13.115
  22.100        165.83	    14.107
  22.120        161.67	    13.928
  22.140        136.67	    12.806
  22.160        119.17	    11.958
  22.180         93.33	    10.583
  22.200         85.00	    10.100
  22.220         57.50	     8.307
  22.240         65.83	     8.888
  22.260         53.33	     8.000
  22.280         52.50	     7.937
  22.300         57.50	     8.307
  22.320         61.67	     8.602
  22.340         48.33	     7.616
  22.360         40.00	     6.928
  22.380         51.67	     7.874
  22.400         49.17	     7.681
  22.420         67.50	     9.000
  22.440         57.50	     8.307
  22.460         50.00	     7.746
  22.480         51.67	     7.874
  22.500         57.50	     8.307
  22.520         56.67	     8.246
  22.540         58.33	     8.367
  22.560         55.00	     8.124
  22.580         58.33	     8.367
  22.600         59.17	     8.426
  22.620         53.33	     8.000
  22.640         49.17	     7.681
  22.660         48.33	     7.616
  22.680         51.67	     7.874
  22.700         49.17	     7.681
  22.720         50.00	     7.746
  22.740         43.33	     7.211
  22.760         44.17	     7.280
  22.780         60.00	     8.485
  22.800         56.67	     8.246
  22.820         53.33	     8.000
  22.840         62.50	     8.660
  22.860         60.00	     8.485
  22.880         60.83	     8.544
  22.900         62.50	     8.660
  22.920         60.83	     8.544
  22.940         73.33	     9.381
  22.960         75.00	     9.487
  22.980         79.17	     9.747
  23.000         75.83	     9.539
  23.020         69.17	     9.110
  23.040         88.33	    10.296
  23.060         90.00	    10.392
  23.080        105.00	    11.225
  23.100         83.33	    10.000
  23.120        106.67	    11.314
  23.140         70.00	     9.165
  23.160         76.67	     9.592
  23.180         78.33	     9.695
  23.200         66.67	     8.944
  23.220         50.00	     7.746
  23.240         61.67	     8.602
  23.260         72.50	     9.327
  23.280         58.33	     8.367
  23.300         62.50	     8.660
  23.320         69.17	     9.110
  23.340         63.33	     8.718
  23.360         69.17	     9.110
  23.380         73.33	     9.381
  23.400         66.67	     8.944
  23.420         64.17	     8.775
  23.440         63.33	     8.718
  23.460         72.50	     9.327
  23.480         82.50	     9.950
  23.500         85.83	    10.149
  23.520        100.00	    10.954
  23.540        100.83	    11.000
  23.560        111.67	    11.576
  23.580        147.50	    13.304
  23.600        180.00	    14.697
  23.620        168.33	    14.213
  23.640        125.00	    12.247
  23.660        123.33	    12.166
  23.680        110.83	    11.533
  23.700         99.17	    10.909
  23.720         75.00	     9.487
  23.740         72.50	     9.327
  23.760         66.67	     8.944
  23.780         58.33	     8.367
  23.800         63.33	     8.718
  23.820         72.50	     9.327
  23.840         61.67	     8.602
  23.860         63.33	     8.718
  23.880         68.33	     9.055
  23.900         63.33	     8.718
  23.920         65.00	     8.832
  23.940         62.50	     8.660
  23.960         45.83	     7.416
  23.980         63.33	     8.718
  24.000         73.33	     9.381
  24.020         70.00	     9.165
  24.040         70.00	     9.165
  24.060         75.00	     9.487
  24.080         75.00	     9.487
  24.100         91.67	    10.488
  24.120         78.33	     9.695
  24.140         82.50	     9.950
  24.160         88.33	    10.296
  24.180         90.00	    10.392
  24.200         80.83	     9.849
  24.220        104.17	    11.180
  24.240        104.17	    11.180
  24.260        118.33	    11.916
  24.280        111.67	    11.576
  24.300        115.00	    11.747
  24.320        111.67	    11.576
  24.340        125.00	    12.247
  24.360        115.83	    11.790
  24.380         99.17	    10.909
  24.400         85.83	    10.149
  24.420         90.00	    10.392
  24.440         90.00	    10.392
  24.460         86.67	    10.198
  24.480         76.67	     9.592
  24.500         90.83	    10.440
  24.520         91.67	    10.488
  24.540        105.83	    11.269
  24.560        150.83	    13.454
  24.580        220.83	    16.279
  24.600        325.83	    19.774
  24.620        343.33	    20.298
  24.640        391.67	    21.679
  24.660        420.83	    22.472
  24.680        454.17	    23.345
  24.700        391.67	    21.679
  24.720        355.83	    20.664
  24.740        333.33	    20.000
  24.760        267.50	    17.916
  24.780        236.67	    16.852
  24.800        221.67	    16.310
  24.820        198.33	    15.427
  24.840        210.83	    15.906
  24.860        210.00	    15.875
  24.880        200.00	    15.492
  24.900        227.50	    16.523
  24.920        224.17	    16.401
  24.940        201.67	    15.556
  24.960        199.17	    15.460
  24.980        175.00	    14.491
  25.000        156.67	    13.711
  25.020        151.67	    13.491
  25.040        121.67	    12.083
  25.060        130.00	    12.490
  25.080        148.33	    13.342
  25.100        169.17	    14.248
  25.120        175.00	    14.491
  25.140        162.50	    13.964
  25.160        216.67	    16.125
  25.180        234.17	    16.763
  25.200        247.50	    17.234
  25.220        282.50	    18.412
  25.240        254.17	    17.464
  25.260        214.17	    16.031
  25.280        166.67	    14.142
  25.300        146.67	    13.266
  25.320        121.67	    12.083
  25.340        103.33	    11.136
  25.360         88.33	    10.296
  25.380        127.50	    12.369
  25.400        183.33	    14.832
  25.420        155.00	    13.638
  25.440        139.17	    12.923
  25.460        162.50	    13.964
  25.480        141.67	    13.038
  25.500        130.83	    12.530
  25.520        151.67	    13.491
  25.540        155.83	    13.675
  25.560        178.33	    14.629
  25.580        166.67	    14.142
  25.600        134.17	    12.689
  25.620        148.33	    13.342
  25.640        143.33	    13.115
  25.660        115.83	    11.790
  25.680        174.17	    14.457
  25.700        185.00	    14.900
  25.720        160.83	    13.892
  25.740        150.00	    13.416
  25.760        144.17	    13.153
  25.780        111.67	    11.576
  25.800        115.00	    11.747
  25.820         95.00	    10.677
  25.840         81.67	     9.899
  25.860         72.50	     9.327
  25.880         59.17	     8.426
  25.900         43.33	     7.211
  25.920         71.67	     9.274
  25.940         51.67	     7.874
  25.960         73.33	     9.381
  25.980         60.00	     8.485
  26.000         54.17	     8.062
  26.020         55.83	     8.185
  26.040         61.67	     8.602
  26.060         56.67	     8.246
  26.080         60.83	     8.544
  26.100         56.67	     8.246
  26.120         75.00	     9.487
  26.140         64.17	     8.775
  26.160         59.17	     8.426
  26.180         75.00	     9.487
  26.200         69.17	     9.110
  26.220         61.67	     8.602
  26.240         74.17	     9.434
  26.260         59.17	     8.426
  26.280         84.17	    10.050
  26.300         70.83	     9.220
  26.320         77.50	     9.644
  26.340         94.17	    10.630
  26.360        101.67	    11.045
  26.380         90.00	    10.392
  26.400        117.50	    11.874
  26.420        129.17	    12.450
  26.440        118.33	    11.916
  26.460        143.33	    13.115
  26.480        163.33	    14.000
  26.500        211.67	    15.937
  26.520        188.33	    15.033
  26.540        250.83	    17.349
  26.560        286.67	    18.547
  26.580        338.33	    20.149
  26.600        462.50	    23.558
  26.620        795.00	    30.887
  26.640       1550.00	    43.128
  26.660       2358.33	    53.198
  26.680       2850.00	    58.481
  26.700       2879.17	    58.779
  26.720       2328.33	    52.858
  26.740       1975.00	    48.683
  26.760       1694.17	    45.089
  26.780       1168.33	    37.443
  26.800        730.83	    29.614
  26.820        516.67	    24.900
  26.840        506.67	    24.658
  26.860        611.67	    27.092
  26.880        747.50	    29.950
  26.900        828.33	    31.528
  26.920        907.50	    33.000
  26.940        921.67	    33.257
  26.960       1044.17	    35.398
  26.980        996.67	    34.583
  27.000        818.33	    31.337
  27.020        590.83	    26.627
  27.040        525.00	    25.100
  27.060        391.67	    21.679
  27.080        291.67	    18.708
  27.100        215.00	    16.062
  27.120        175.83	    14.526
  27.140        151.67	    13.491
  27.160        127.50	    12.369
  27.180        128.33	    12.410
  27.200        111.67	    11.576
  27.220        103.33	    11.136
  27.240         78.33	     9.695
  27.260        101.67	    11.045
  27.280        102.50	    11.091
  27.300        107.50	    11.358
  27.320         99.17	    10.909
  27.340         94.17	    10.630
  27.360        102.50	    11.091
  27.380         92.50	    10.536
  27.400         94.17	    10.630
  27.420        117.50	    11.874
  27.440         96.67	    10.770
  27.460        134.17	    12.689
  27.480        207.50	    15.780
  27.500        385.83	    21.517
  27.520        391.67	    21.679
  27.540        374.17	    21.190
  27.560        412.50	    22.249
  27.580        416.67	    22.361
  27.600        321.67	    19.647
  27.620        280.83	    18.358
  27.640        172.50	    14.387
  27.660        190.83	    15.133
  27.680        124.17	    12.207
  27.700        140.00	    12.961
  27.720        147.50	    13.304
  27.740        206.67	    15.748
  27.760        236.67	    16.852
  27.780        246.67	    17.205
  27.800        248.33	    17.263
  27.820        238.33	    16.912
  27.840        290.00	    18.655
  27.860        302.50	    19.053
  27.880        320.83	    19.621
  27.900        390.00	    21.633
  27.920        683.33	    28.636
  27.940       1066.67	    35.777
  27.960       1312.50	    39.686
  27.980       1260.83	    38.897
  28.000       1025.00	    35.071
  28.020        896.67	    32.802
  28.040        799.17	    30.968
  28.060        560.83	    25.942
  28.080        364.17	    20.905
  28.100        230.83	    16.643
  28.120        205.00	    15.684
  28.140        161.67	    13.928
  28.160        156.67	    13.711
  28.180        173.33	    14.422
  28.200        144.17	    13.153
  28.220        115.83	    11.790
  28.240        143.33	    13.115
  28.260        143.33	    13.115
  28.280        132.50	    12.610
  28.300        136.67	    12.806
  28.320        133.33	    12.649
  28.340        126.67	    12.329
  28.360        134.17	    12.689
  28.380        113.33	    11.662
  28.400         96.67	    10.770
  28.420         81.67	     9.899
  28.440         94.17	    10.630
  28.460         86.67	    10.198
  28.480         77.50	     9.644
  28.500         76.67	     9.592
  28.520         68.33	     9.055
  28.540         68.33	     9.055
  28.560         81.67	     9.899
  28.580         84.17	    10.050
  28.600        135.83	    12.767
  28.620        140.00	    12.961
  28.640        139.17	    12.923
  28.660        152.50	    13.528
  28.680        151.67	    13.491
  28.700        156.67	    13.711
  28.720        133.33	    12.649
  28.740         97.50	    10.817
  28.760        109.17	    11.446
  28.780         91.67	    10.488
  28.800         81.67	     9.899
  28.820         82.50	     9.950
  28.840         90.00	    10.392
  28.860         65.83	     8.888
  28.880         62.50	     8.660
  28.900         66.67	     8.944
  28.920         46.67	     7.483
  28.940         60.83	     8.544
  28.960         53.33	     8.000
  28.980         60.00	     8.485
  29.000         63.33	     8.718
  29.020         46.67	     7.483
  29.040         55.83	     8.185
  29.060         54.17	     8.062
  29.080         46.67	     7.483
  29.100         40.00	     6.928
  29.120         64.17	     8.775
  29.140         50.83	     7.810
  29.160         54.17	     8.062
  29.180         58.33	     8.367
  29.200         58.33	     8.367
  29.220         74.17	     9.434
  29.240        102.50	    11.091
  29.260        118.33	    11.916
  29.280         95.00	    10.677
  29.300         76.67	     9.592
  29.320         87.50	    10.247
  29.340         73.33	     9.381
  29.360         67.50	     9.000
  29.380         55.83	     8.185
  29.400         47.50	     7.550
  29.420         40.00	     6.928
  29.440         53.33	     8.000
  29.460         56.67	     8.246
  29.480         48.33	     7.616
  29.500         53.33	     8.000
  29.520         46.67	     7.483
  29.540         55.83	     8.185
  29.560         54.17	     8.062
  29.580         61.67	     8.602
  29.600         50.00	     7.746
  29.620         50.83	     7.810
  29.640         50.00	     7.746
  29.660         45.83	     7.416
  29.680         54.17	     8.062
  29.700         49.17	     7.681
  29.720         60.83	     8.544
  29.740         45.00	     7.348
  29.760         57.50	     8.307
  29.780         60.83	     8.544
  29.800         70.00	     9.165
  29.820         53.33	     8.000
  29.840         80.83	     9.849
  29.860        130.83	    12.530
  29.880        162.50	    13.964
  29.900        166.67	    14.142
  29.920        135.00	    12.728
  29.940        137.50	    12.845
  29.960        150.83	    13.454
  29.980        131.67	    12.570
  30.000         87.50	    10.247
  30.020         89.17	    10.344
  30.040         74.17	     9.434
  30.060         75.00	     9.487
  30.080         84.17	    10.050
  30.100         87.50	    10.247
  30.120        105.00	    11.225
  30.140        125.00	    12.247
  30.160        107.50	    11.358
  30.180        107.50	    11.358
  30.200        126.67	    12.329
  30.220         95.00	    10.677
  30.240         96.67	    10.770
  30.260        100.83	    11.000
  30.280        107.50	    11.358
  30.300        109.17	    11.446
  30.320         93.33	    10.583
  30.340         77.50	     9.644
  30.360        100.83	    11.000
  30.380         73.33	     9.381
  30.400         71.67	     9.274
  30.420         80.83	     9.849
  30.440         74.17	     9.434
  30.460         69.17	     9.110
  30.480        101.67	    11.045
  30.500        126.67	    12.329
  30.520        160.00	    13.856
  30.540        140.00	    12.961
  30.560        127.50	    12.369
  30.580        114.17	    11.705
  30.600        122.50	    12.124
  30.620        100.83	    11.000
  30.640         70.83	     9.220
  30.660         75.83	     9.539
  30.680         50.83	     7.810
  30.700         53.33	     8.000
  30.720         39.17	     6.856
  30.740         69.17	     9.110
  30.760         51.67	     7.874
  30.780         63.33	     8.718
  30.800         64.17	     8.775
  30.820         50.00	     7.746
  30.840         55.00	     8.124
  30.860         51.67	     7.874
  30.880         80.00	     9.798
  30.900         74.17	     9.434
  30.920         73.33	     9.381
  30.940         97.50	    10.817
  30.960        132.50	    12.610
  30.980        170.00	    14.283
  31.000        170.00	    14.283
  31.020         93.33	    10.583
  31.040         99.17	    10.909
  31.060        135.83	    12.767
  31.080        100.83	    11.000
  31.100         84.17	    10.050
  31.120         75.83	     9.539
  31.140         82.50	     9.950
  31.160         76.67	     9.592
  31.180         77.50	     9.644
  31.200         80.00	     9.798
  31.220        105.00	    11.225
  31.240        105.83	    11.269
  31.260        112.50	    11.619
  31.280        115.83	    11.790
  31.300        110.00	    11.489
  31.320        112.50	    11.619
  31.340        101.67	    11.045
  31.360        104.17	    11.180
  31.380        107.50	    11.358
  31.400         85.83	    10.149
  31.420         95.00	    10.677
  31.440         75.83	     9.539
  31.460         68.33	     9.055
  31.480         90.00	    10.392
  31.500         68.33	     9.055
  31.520         82.50	     9.950
  31.540         93.33	    10.583
  31.560         87.50	    10.247
  31.580         98.33	    10.863
  31.600         76.67	     9.592
  31.620         98.33	    10.863
  31.640        120.00	    12.000
  31.660         77.50	     9.644
  31.680         81.67	     9.899
  31.700         65.83	     8.888
  31.720         56.67	     8.246
  31.740         48.33	     7.616
  31.760         58.33	     8.367
  31.780         45.00	     7.348
  31.800         49.17	     7.681
  31.820         47.50	     7.550
  31.840         40.00	     6.928
  31.860         46.67	     7.483
  31.880         46.67	     7.483
  31.900         63.33	     8.718
  31.920         67.50	     9.000
  31.940         95.00	    10.677
  31.960        164.17	    14.036
  31.980        151.67	    13.491
  32.000        112.50	    11.619
  32.020         99.17	    10.909
  32.040        117.50	    11.874
  32.060         87.50	    10.247
  32.080         92.50	    10.536
  32.100         77.50	     9.644
  32.120         76.67	     9.592
  32.140         68.33	     9.055
  32.160         85.00	    10.100
  32.180         85.83	    10.149
  32.200         70.00	     9.165
  32.220         81.67	     9.899
  32.240         78.33	     9.695
  32.260        110.83	    11.533
  32.280        105.00	    11.225
  32.300         81.67	     9.899
  32.320         60.83	     8.544
  32.340         72.50	     9.327
  32.360         73.33	     9.381
  32.380         64.17	     8.775
  32.400         59.17	     8.426
  32.420         56.67	     8.246
  32.440         37.50	     6.708
  32.460         51.67	     7.874
  32.480         38.33	     6.782
  32.500         39.17	     6.856
  32.520         40.00	     6.928
  32.540         35.83	     6.557
  32.560         39.17	     6.856
  32.580         46.67	     7.483
  32.600         43.33	     7.211
  32.620         40.83	     7.000
  32.640         26.67	     5.657
  32.660         38.33	     6.782
  32.680         40.00	     6.928
  32.700         36.67	     6.633
  32.720         33.33	     6.325
  32.740         40.00	     6.928
  32.760         27.50	     5.745
  32.780         43.33	     7.211
  32.800         40.83	     7.000
  32.820         32.50	     6.245
  32.840         26.67	     5.657
  32.860         42.50	     7.141
  32.880         45.00	     7.348
  32.900         42.50	     7.141
  32.920         40.83	     7.000
  32.940         40.83	     7.000
  32.960         39.17	     6.856
  32.980         25.83	     5.568
  33.000         31.67	     6.164
  33.020         51.67	     7.874
  33.040         35.00	     6.481
  33.060         47.50	     7.550
  33.080         46.67	     7.483
  33.100         59.17	     8.426
  33.120         54.17	     8.062
  33.140         56.67	     8.246
  33.160         48.33	     7.616
  33.180         50.00	     7.746
  33.200         39.17	     6.856
  33.220         39.17	     6.856
  33.240         42.50	     7.141
  33.260         40.00	     6.928
  33.280         44.17	     7.280
  33.300         30.83	     6.083
  33.320         39.17	     6.856
  33.340         41.67	     7.071
  33.360         39.17	     6.856
  33.380         36.67	     6.633
  33.400         30.83	     6.083
  33.420         35.00	     6.481
  33.440         41.67	     7.071
  33.460         45.00	     7.348
  33.480         37.50	     6.708
  33.500         30.00	     6.000
  33.520         36.67	     6.633
  33.540         37.50	     6.708
  33.560         40.00	     6.928
  33.580         32.50	     6.245
  33.600         28.33	     5.831
  33.620         40.00	     6.928
  33.640         35.00	     6.481
  33.660         26.67	     5.657
  33.680         47.50	     7.550
  33.700         36.67	     6.633
  33.720         45.83	     7.416
  33.740         40.00	     6.928
  33.760         37.50	     6.708
  33.780         45.83	     7.416
  33.800         58.33	     8.367
  33.820         46.67	     7.483
  33.840         46.67	     7.483
  33.860         43.33	     7.211
  33.880         52.50	     7.937
  33.900         57.50	     8.307
  33.920         51.67	     7.874
  33.940         73.33	     9.381
  33.960         80.00	     9.798
  33.980         82.50	     9.950
  34.000         89.17	    10.344
  34.020         95.83	    10.724
  34.040         91.67	    10.488
  34.060         64.17	     8.775
  34.080         68.33	     9.055
  34.100         67.50	     9.000
  34.120         60.83	     8.544
  34.140         61.67	     8.602
  34.160         50.83	     7.810
  34.180         56.67	     8.246
  34.200         41.67	     7.071
  34.220         40.83	     7.000
  34.240         50.00	     7.746
  34.260         45.00	     7.348
  34.280         47.50	     7.550
  34.300         48.33	     7.616
  34.320         35.83	     6.557
  34.340         39.17	     6.856
  34.360         44.17	     7.280
  34.380         51.67	     7.874
  34.400         47.50	     7.550
  34.420         60.83	     8.544
  34.440         59.17	     8.426
  34.460         57.50	     8.307
  34.480         60.83	     8.544
  34.500         52.50	     7.937
  34.520         70.83	     9.220
  34.540         70.83	     9.220
  34.560         64.17	     8.775
  34.580         84.17	    10.050
  34.600         66.67	     8.944
  34.620         93.33	    10.583
  34.640         82.50	     9.950
  34.660         94.17	    10.630
  34.680        102.50	    11.091
  34.700         71.67	     9.274
  34.720         77.50	     9.644
  34.740         89.17	    10.344
  34.760         75.83	     9.539
  34.780         74.17	     9.434
  34.800         84.17	    10.050
  34.820         56.67	     8.246
  34.840         83.33	    10.000
  34.860         58.33	     8.367
  34.880         75.00	     9.487
  34.900         70.83	     9.220
  34.920         86.67	    10.198
  34.940         80.83	     9.849
  34.960         88.33	    10.296
  34.980         92.50	    10.536
  35.000         92.50	    10.536
  35.020         68.33	     9.055
  35.040         90.83	    10.440
  35.060         99.17	    10.909
  35.080         95.00	    10.677
  35.100         89.17	    10.344
  35.120         84.17	    10.050
  35.140         97.50	    10.817
  35.160         74.17	     9.434
  35.180         82.50	     9.950
  35.200         84.17	    10.050
  35.220         68.33	     9.055
  35.240         67.50	     9.000
  35.260         67.50	     9.000
  35.280         65.00	     8.832
  35.300         73.33	     9.381
  35.320         77.50	     9.644
  35.340         74.17	     9.434
  35.360         71.67	     9.274
  35.380         70.00	     9.165
  35.400         75.00	     9.487
  35.420         72.50	     9.327
  35.440         76.67	     9.592
  35.460         77.50	     9.644
  35.480        100.00	    10.954
  35.500         95.83	    10.724
  35.520        125.83	    12.288
  35.540        116.67	    11.832
  35.560        118.33	    11.916
  35.580        136.67	    12.806
  35.600        153.33	    13.565
  35.620        121.67	    12.083
  35.640        151.67	    13.491
  35.660        145.00	    13.191
  35.680        122.50	    12.124
  35.700        148.33	    13.342
  35.720        124.17	    12.207
  35.740        108.33	    11.402
  35.760        104.17	    11.180
  35.780         92.50	    10.536
  35.800         83.33	    10.000
  35.820         80.83	     9.849
  35.840         73.33	     9.381
  35.860         75.00	     9.487
  35.880         51.67	     7.874
  35.900         62.50	     8.660
  35.920         57.50	     8.307
  35.940         54.17	     8.062
  35.960         55.83	     8.185
  35.980         48.33	     7.616
  36.000         60.00	     8.485
  36.020         58.33	     8.367
  36.040         70.00	     9.165
  36.060         86.67	    10.198
  36.080         75.83	     9.539
  36.100         88.33	    10.296
  36.120         90.83	    10.440
  36.140         90.00	    10.392
  36.160         95.00	    10.677
  36.180         95.83	    10.724
  36.200        105.83	    11.269
  36.220        105.83	    11.269
  36.240         82.50	     9.950
  36.260         80.00	     9.798
  36.280         82.50	     9.950
  36.300         65.83	     8.888
  36.320         61.67	     8.602
  36.340         46.67	     7.483
  36.360         60.83	     8.544
  36.380         47.50	     7.550
  36.400         51.67	     7.874
  36.420         63.33	     8.718
  36.440         51.67	     7.874
  36.460         60.00	     8.485
  36.480         68.33	     9.055
  36.500         77.50	     9.644
  36.520         95.83	    10.724
  36.540        132.50	    12.610
  36.560        204.17	    15.652
  36.580        279.17	    18.303
  36.600        283.33	    18.439
  36.620        195.83	    15.330
  36.640        145.83	    13.229
  36.660        158.33	    13.784
  36.680        185.00	    14.900
  36.700        159.17	    13.820
  36.720        125.83	    12.288
  36.740        101.67	    11.045
  36.760         74.17	     9.434
  36.780         62.50	     8.660
  36.800         77.50	     9.644
  36.820         72.50	     9.327
  36.840         70.00	     9.165
  36.860         60.83	     8.544
  36.880         64.17	     8.775
  36.900         51.67	     7.874
  36.920         35.83	     6.557
  36.940         47.50	     7.550
  36.960         50.83	     7.810
  36.980         45.00	     7.348
  37.000         42.50	     7.141
  37.020         45.83	     7.416
  37.040         55.00	     8.124
  37.060         36.67	     6.633
  37.080         45.83	     7.416
  37.100         43.33	     7.211
  37.120         33.33	     6.325
  37.140         49.17	     7.681
  37.160         66.67	     8.944
  37.180         53.33	     8.000
  37.200         60.00	     8.485
  37.220         62.50	     8.660
  37.240         50.83	     7.810
  37.260         66.67	     8.944
  37.280         48.33	     7.616
  37.300         55.83	     8.185
  37.320         53.33	     8.000
  37.340         59.17	     8.426
  37.360         54.17	     8.062
  37.380         72.50	     9.327
  37.400         65.00	     8.832
  37.420         55.00	     8.124
  37.440         58.33	     8.367
  37.460         73.33	     9.381
  37.480         78.33	     9.695
  37.500         72.50	     9.327
  37.520         67.50	     9.000
  37.540         69.17	     9.110
  37.560         57.50	     8.307
  37.580         60.83	     8.544
  37.600         65.00	     8.832
  37.620         73.33	     9.381
  37.640         75.83	     9.539
  37.660         72.50	     9.327
  37.680         72.50	     9.327
  37.700         66.67	     8.944
  37.720         60.83	     8.544
  37.740         65.00	     8.832
  37.760         85.00	    10.100
  37.780         68.33	     9.055
  37.800         66.67	     8.944
  37.820         69.17	     9.110
  37.840         58.33	     8.367
  37.860         72.50	     9.327
  37.880         59.17	     8.426
  37.900         55.83	     8.185
  37.920         47.50	     7.550
  37.940         51.67	     7.874
  37.960         44.17	     7.280
  37.980         40.83	     7.000
  38.000         36.67	     6.633
  38.020         25.83	     5.568
  38.040         50.83	     7.810
  38.060         32.50	     6.245
  38.080         36.67	     6.633
  38.100         24.17	     5.385
  38.120         43.33	     7.211
  38.140         35.00	     6.481
  38.160         41.67	     7.071
  38.180         30.00	     6.000
  38.200         39.17	     6.856
  38.220         42.50	     7.141
  38.240         31.67	     6.164
  38.260         29.17	     5.916
  38.280         45.00	     7.348
  38.300         35.83	     6.557
  38.320         43.33	     7.211
  38.340         34.17	     6.403
  38.360         36.67	     6.633
  38.380         24.17	     5.385
  38.400         43.33	     7.211
  38.420         34.17	     6.403
  38.440         31.67	     6.164
  38.460         45.00	     7.348
  38.480         35.00	     6.481
  38.500         36.67	     6.633
  38.520         35.83	     6.557
  38.540         38.33	     6.782
  38.560         28.33	     5.831
  38.580         40.00	     6.928
  38.600         44.17	     7.280
  38.620         34.17	     6.403
  38.640         36.67	     6.633
  38.660         39.17	     6.856
  38.680         37.50	     6.708
  38.700         44.17	     7.280
  38.720         34.17	     6.403
  38.740         46.67	     7.483
  38.760         43.33	     7.211
  38.780         45.00	     7.348
  38.800         44.17	     7.280
  38.820         46.67	     7.483
  38.840         40.00	     6.928
  38.860         42.50	     7.141
  38.880         50.00	     7.746
  38.900         46.67	     7.483
  38.920         36.67	     6.633
  38.940         40.00	     6.928
  38.960         48.33	     7.616
  38.980         51.67	     7.874
  39.000         47.50	     7.550
  39.020         50.00	     7.746
  39.040         35.83	     6.557
  39.060         33.33	     6.325
  39.080         41.67	     7.071
  39.100         57.50	     8.307
  39.120         49.17	     7.681
  39.140         42.50	     7.141
  39.160         35.00	     6.481
  39.180         27.50	     5.745
  39.200         40.83	     7.000
  39.220         38.33	     6.782
  39.240         39.17	     6.856
  39.260         34.17	     6.403
  39.280         52.50	     7.937
  39.300         50.83	     7.810
  39.320         46.67	     7.483
  39.340         52.50	     7.937
  39.360         42.50	     7.141
  39.380         32.50	     6.245
  39.400         33.33	     6.325
  39.420         56.67	     8.246
  39.440         63.33	     8.718
  39.460         82.50	     9.950
  39.480        107.50	    11.358
  39.500        159.17	    13.820
  39.520        173.33	    14.422
  39.540        123.33	    12.166
  39.560         99.17	    10.909
  39.580         88.33	    10.296
  39.600        115.83	    11.790
  39.620        100.00	    10.954
  39.640         93.33	    10.583
  39.660         68.33	     9.055
  39.680         80.83	     9.849
  39.700         51.67	     7.874
  39.720         55.83	     8.185
  39.740         55.00	     8.124
  39.760         58.33	     8.367
  39.780         50.00	     7.746
  39.800         40.83	     7.000
  39.820         49.17	     7.681
  39.840         46.67	     7.483
  39.860         62.50	     8.660
  39.880         55.00	     8.124
  39.900         48.33	     7.616
  39.920         42.50	     7.141
  39.940         45.00	     7.348
  39.960         51.67	     7.874
  39.980         60.83	     8.544
  40.000         45.83	     7.416
  40.020         44.17	     7.280
  40.040         39.17	     6.856
  40.060         30.83	     6.083
  40.080         50.83	     7.810
  40.100         49.17	     7.681
  40.120         32.50	     6.245
  40.140         43.33	     7.211
  40.160         30.83	     6.083
  40.180         40.00	     6.928
  40.200         37.50	     6.708
  40.220         50.00	     7.746
  40.240         44.17	     7.280
  40.260         46.67	     7.483
  40.280         61.67	     8.602
  40.300         70.00	     9.165
  40.320        101.67	    11.045
  40.340        140.83	    13.000
  40.360        134.17	    12.689
  40.380        105.83	    11.269
  40.400         76.67	     9.592
  40.420         86.67	    10.198
  40.440         95.83	    10.724
  40.460         85.83	    10.149
  40.480         78.33	     9.695
  40.500         62.50	     8.660
  40.520         49.17	     7.681
  40.540         45.00	     7.348
  40.560         42.50	     7.141
  40.580         36.67	     6.633
  40.600         43.33	     7.211
  40.620         35.00	     6.481
  40.640         36.67	     6.633
  40.660         31.67	     6.164
  40.680         50.00	     7.746
  40.700         38.33	     6.782
  40.720         40.00	     6.928
  40.740         37.50	     6.708
  40.760         47.50	     7.550
  40.780         40.83	     7.000
  40.800         40.83	     7.000
  40.820         36.67	     6.633
  40.840         37.50	     6.708
  40.860         46.67	     7.483
  40.880         52.50	     7.937
  40.900         41.67	     7.071
  40.920         39.17	     6.856
  40.940         37.50	     6.708
  40.960         48.33	     7.616
  40.980         40.00	     6.928
  41.000         35.00	     6.481
  41.020         36.67	     6.633
  41.040         39.17	     6.856
  41.060         50.00	     7.746
  41.080         46.67	     7.483
  41.100         35.83	     6.557
  41.120         42.50	     7.141
  41.140         36.67	     6.633
  41.160         47.50	     7.550
  41.180         35.00	     6.481
  41.200         45.83	     7.416
  41.220         50.83	     7.810
  41.240         40.83	     7.000
  41.260         45.00	     7.348
  41.280         36.67	     6.633
  41.300         42.50	     7.141
  41.320         43.33	     7.211
  41.340         49.17	     7.681
  41.360         29.17	     5.916
  41.380         45.83	     7.416
  41.400         43.33	     7.211
  41.420         43.33	     7.211
  41.440         49.17	     7.681
  41.460         53.33	     8.000
  41.480         42.50	     7.141
  41.500         30.00	     6.000
  41.520         35.00	     6.481
  41.540         42.50	     7.141
  41.560         49.17	     7.681
  41.580         42.50	     7.141
  41.600         48.33	     7.616
  41.620         39.17	     6.856
  41.640         57.50	     8.307
  41.660         46.67	     7.483
  41.680         61.67	     8.602
  41.700         73.33	     9.381
  41.720         84.17	    10.050
  41.740        115.00	    11.747
  41.760        166.67	    14.142
  41.780        121.67	    12.083
  41.800        115.83	    11.790
  41.820        110.83	    11.533
  41.840        111.67	    11.576
  41.860        148.33	    13.342
  41.880        162.50	    13.964
  41.900        105.00	    11.225
  41.920         97.50	    10.817
  41.940         78.33	     9.695
  41.960         78.33	     9.695
  41.980         76.67	     9.592
  42.000         72.50	     9.327
  42.020         65.83	     8.888
  42.040         70.00	     9.165
  42.060         67.50	     9.000
  42.080         74.17	     9.434
  42.100         72.50	     9.327
  42.120         54.17	     8.062
  42.140         59.17	     8.426
  42.160         57.50	     8.307
  42.180         55.00	     8.124
  42.200         53.33	     8.000
  42.220         68.33	     9.055
  42.240         50.00	     7.746
  42.260         47.50	     7.550
  42.280         59.17	     8.426
  42.300         30.00	     6.000
  42.320         55.83	     8.185
  42.340         56.67	     8.246
  42.360         59.17	     8.426
  42.380         60.83	     8.544
  42.400         79.17	     9.747
  42.420         80.00	     9.798
  42.440        121.67	    12.083
  42.460        144.17	    13.153
  42.480        233.33	    16.733
  42.500        265.83	    17.861
  42.520        250.83	    17.349
  42.540        227.50	    16.523
  42.560        154.17	    13.601
  42.580        138.33	    12.884
  42.600        172.50	    14.387
  42.620        163.33	    14.000
  42.640        141.67	    13.038
  42.660        125.83	    12.288
  42.680         77.50	     9.644
  42.700         78.33	     9.695
  42.720         59.17	     8.426
  42.740         42.50	     7.141
  42.760         57.50	     8.307
  42.780         48.33	     7.616
  42.800         46.67	     7.483
  42.820         47.50	     7.550
  42.840         60.00	     8.485
  42.860         45.00	     7.348
  42.880         40.83	     7.000
  42.900         30.83	     6.083
  42.920         54.17	     8.062
  42.940         49.17	     7.681
  42.960         55.00	     8.124
  42.980         44.17	     7.280
  43.000         38.33	     6.782
  43.020         51.67	     7.874
  43.040         47.50	     7.550
  43.060         50.00	     7.746
  43.080         42.50	     7.141
  43.100         45.83	     7.416
  43.120         40.83	     7.000
  43.140         47.50	     7.550
  43.160         39.17	     6.856
  43.180         43.33	     7.211
  43.200         58.33	     8.367
  43.220         51.67	     7.874
  43.240         54.17	     8.062
  43.260         55.83	     8.185
  43.280         50.00	     7.746
  43.300         64.17	     8.775
  43.320         58.33	     8.367
  43.340         70.83	     9.220
  43.360         69.17	     9.110
  43.380         72.50	     9.327
  43.400         67.50	     9.000
  43.420         60.00	     8.485
  43.440         81.67	     9.899
  43.460         67.50	     9.000
  43.480         63.33	     8.718
  43.500         81.67	     9.899
  43.520         71.67	     9.274
  43.540         82.50	     9.950
  43.560         91.67	    10.488
  43.580         91.67	    10.488
  43.600         78.33	     9.695
  43.620         89.17	    10.344
  43.640         70.00	     9.165
  43.660         88.33	    10.296
  43.680         59.17	     8.426
  43.700         76.67	     9.592
  43.720         69.17	     9.110
  43.740         70.00	     9.165
  43.760         53.33	     8.000
  43.780         57.50	     8.307
  43.800         50.00	     7.746
  43.820         45.83	     7.416
  43.840         57.50	     8.307
  43.860         63.33	     8.718
  43.880         61.67	     8.602
  43.900         53.33	     8.000
  43.920         35.83	     6.557
  43.940         46.67	     7.483
  43.960         45.83	     7.416
  43.980         53.33	     8.000
  44.000         42.50	     7.141
  44.020         54.17	     8.062
  44.040         37.50	     6.708
  44.060         38.33	     6.782
  44.080         43.33	     7.211
  44.100         40.83	     7.000
  44.120         52.50	     7.937
  44.140         45.00	     7.348
  44.160         33.33	     6.325
  44.180         44.17	     7.280
  44.200         41.67	     7.071
  44.220         46.67	     7.483
  44.240         39.17	     6.856
  44.260         36.67	     6.633
  44.280         35.83	     6.557
  44.300         45.83	     7.416
  44.320         40.00	     6.928
  44.340         37.50	     6.708
  44.360         38.33	     6.782
  44.380         40.00	     6.928
  44.400         48.33	     7.616
  44.420         37.50	     6.708
  44.440         40.83	     7.000
  44.460         37.50	     6.708
  44.480         35.83	     6.557
  44.500         40.83	     7.000
  44.520         35.83	     6.557
  44.540         58.33	     8.367
  44.560         36.67	     6.633
  44.580         45.83	     7.416
  44.600         49.17	     7.681
  44.620         45.00	     7.348
  44.640         28.33	     5.831
  44.660         50.00	     7.746
  44.680         36.67	     6.633
  44.700         36.67	     6.633
  44.720         42.50	     7.141
  44.740         40.83	     7.000
  44.760         40.83	     7.000
  44.780         42.50	     7.141
  44.800         43.33	     7.211
  44.820         47.50	     7.550
  44.840         46.67	     7.483
  44.860         52.50	     7.937
  44.880         45.00	     7.348
  44.900         44.17	     7.280
  44.920         41.67	     7.071
  44.940         42.50	     7.141
  44.960         51.67	     7.874
  44.980         57.50	     8.307
  45.000         67.50	     9.000
  45.020         60.83	     8.544
  45.040         69.17	     9.110
  45.060         73.33	     9.381
  45.080         69.17	     9.110
  45.100         52.50	     7.937
  45.120         71.67	     9.274
  45.140         57.50	     8.307
  45.160         49.17	     7.681
  45.180         52.50	     7.937
  45.200         58.33	     8.367
  45.220         60.83	     8.544
  45.240         64.17	     8.775
  45.260         54.17	     8.062
  45.280         60.83	     8.544
  45.300         65.83	     8.888
  45.320         55.00	     8.124
  45.340         73.33	     9.381
  45.360         70.83	     9.220
  45.380         65.00	     8.832
  45.400         89.17	    10.344
  45.420         79.17	     9.747
  45.440         90.00	    10.392
  45.460        127.50	    12.369
  45.480        137.50	    12.845
  45.500        148.33	    13.342
  45.520        190.00	    15.100
  45.540        243.33	    17.088
  45.560        290.00	    18.655
  45.580        308.33	    19.235
  45.600        293.33	    18.762
  45.620        325.83	    19.774
  45.640        347.50	    20.421
  45.660        375.00	    21.213
  45.680        410.00	    22.181
  45.700        381.67	    21.401
  45.720        289.17	    18.628
  45.740        275.00	    18.166
  45.760        229.17	    16.583
  45.780        211.67	    15.937
  45.800        204.17	    15.652
  45.820        217.50	    16.155
  45.840        198.33	    15.427
  45.860        167.50	    14.177
  45.880        144.17	    13.153
  45.900        107.50	    11.358
  45.920         77.50	     9.644
  45.940         92.50	    10.536
  45.960         97.50	    10.817
  45.980         88.33	    10.296
  46.000         82.50	     9.950
  46.020         62.50	     8.660
  46.040         54.17	     8.062
  46.060         51.67	     7.874
  46.080         36.67	     6.633
  46.100         45.83	     7.416
  46.120         47.50	     7.550
  46.140         45.00	     7.348
  46.160         48.33	     7.616
  46.180         51.67	     7.874
  46.200         45.83	     7.416
  46.220         50.00	     7.746
  46.240         44.17	     7.280
  46.260         49.17	     7.681
  46.280         38.33	     6.782
  46.300         36.67	     6.633
  46.320         38.33	     6.782
  46.340         24.17	     5.385
  46.360         39.17	     6.856
  46.380         40.83	     7.000
  46.400         35.00	     6.481
  46.420         42.50	     7.141
  46.440         27.50	     5.745
  46.460         25.83	     5.568
  46.480         26.67	     5.657
  46.500         36.67	     6.633
  46.520         30.83	     6.083
  46.540         32.50	     6.245
  46.560         34.17	     6.403
  46.580         36.67	     6.633
  46.600         32.50	     6.245
  46.620         31.67	     6.164
  46.640         34.17	     6.403
  46.660         33.33	     6.325
  46.680         24.17	     5.385
  46.700         37.50	     6.708
  46.720         30.00	     6.000
  46.740         34.17	     6.403
  46.760         35.83	     6.557
  46.780         27.50	     5.745
  46.800         30.83	     6.083
  46.820         33.33	     6.325
  46.840         37.50	     6.708
  46.860         38.33	     6.782
  46.880         27.50	     5.745
  46.900         30.83	     6.083
  46.920         28.33	     5.831
  46.940         35.83	     6.557
  46.960         35.00	     6.481
  46.980         38.33	     6.782
  47.000         35.83	     6.557
  47.020         29.17	     5.916
  47.040         37.50	     6.708
  47.060         46.67	     7.483
  47.080         45.83	     7.416
  47.100         55.00	     8.124
  47.120         58.33	     8.367
  47.140         75.83	     9.539
  47.160         79.17	     9.747
  47.180         81.67	     9.899
  47.200         66.67	     8.944
  47.220         60.83	     8.544
  47.240         69.17	     9.110
  47.260         82.50	     9.950
  47.280         70.83	     9.220
  47.300         64.17	     8.775
  47.320         56.67	     8.246
  47.340         54.17	     8.062
  47.360         49.17	     7.681
  47.380         42.50	     7.141
  47.400         42.50	     7.141
  47.420         51.67	     7.874
  47.440         38.33	     6.782
  47.460         28.33	     5.831
  47.480         26.67	     5.657
  47.500         41.67	     7.071
  47.520         42.50	     7.141
  47.540         34.17	     6.403
  47.560         32.50	     6.245
  47.580         25.00	     5.477
  47.600         34.17	     6.403
  47.620         38.33	     6.782
  47.640         30.00	     6.000
  47.660         31.67	     6.164
  47.680         41.67	     7.071
  47.700         30.83	     6.083
  47.720         28.33	     5.831
  47.740         48.33	     7.616
  47.760         29.17	     5.916
  47.780         42.50	     7.141
  47.800         21.67	     5.099
  47.820         31.67	     6.164
  47.840         26.67	     5.657
  47.860         31.67	     6.164
  47.880         42.50	     7.141
  47.900         41.67	     7.071
  47.920         34.17	     6.403
  47.940         32.50	     6.245
  47.960         36.67	     6.633
  47.980         31.67	     6.164
  48.000         38.33	     6.782
  48.020         40.83	     7.000
  48.040         47.50	     7.550
  48.060         49.17	     7.681
  48.080         44.17	     7.280
  48.100         42.50	     7.141
  48.120         51.67	     7.874
  48.140         45.83	     7.416
  48.160         58.33	     8.367
  48.180         46.67	     7.483
  48.200         62.50	     8.660
  48.220         69.17	     9.110
  48.240         45.83	     7.416
  48.260         60.83	     8.544
  48.280         56.67	     8.246
  48.300         55.00	     8.124
  48.320         55.00	     8.124
  48.340         68.33	     9.055
  48.360         47.50	     7.550
  48.380         42.50	     7.141
  48.400         41.67	     7.071
  48.420         43.33	     7.211
  48.440         48.33	     7.616
  48.460         31.67	     6.164
  48.480         45.00	     7.348
  48.500         39.17	     6.856
  48.520         35.83	     6.557
  48.540         46.67	     7.483
  48.560         40.83	     7.000
  48.580         43.33	     7.211
  48.600         37.50	     6.708
  48.620         30.00	     6.000
  48.640         27.50	     5.745
  48.660         49.17	     7.681
  48.680         50.00	     7.746
  48.700         60.83	     8.544
  48.720         65.00	     8.832
  48.740         67.50	     9.000
  48.760         50.00	     7.746
  48.780         52.50	     7.937
  48.800         38.33	     6.782
  48.820         51.67	     7.874
  48.840         46.67	     7.483
  48.860         52.50	     7.937
  48.880         37.50	     6.708
  48.900         36.67	     6.633
  48.920         36.67	     6.633
  48.940         34.17	     6.403
  48.960         29.17	     5.916
  48.980         37.50	     6.708
  49.000         33.33	     6.325
  49.020         46.67	     7.483
  49.040         45.83	     7.416
  49.060         32.50	     6.245
  49.080         35.83	     6.557
  49.100         29.17	     5.916
  49.120         41.67	     7.071
  49.140         40.83	     7.000
  49.160         44.17	     7.280
  49.180         35.00	     6.481
  49.200         35.00	     6.481
  49.220         45.83	     7.416
  49.240         46.67	     7.483
  49.260         40.00	     6.928
  49.280         55.83	     8.185
  49.300         49.17	     7.681
  49.320         46.67	     7.483
  49.340         43.33	     7.211
  49.360         46.67	     7.483
  49.380         41.67	     7.071
  49.400         53.33	     8.000
  49.420         40.00	     6.928
  49.440         55.00	     8.124
  49.460         55.83	     8.185
  49.480         50.83	     7.810
  49.500         54.17	     8.062
  49.520         38.33	     6.782
  49.540         42.50	     7.141
  49.560         45.83	     7.416
  49.580         49.17	     7.681
  49.600         54.17	     8.062
  49.620         64.17	     8.775
  49.640         60.00	     8.485
  49.660         61.67	     8.602
  49.680         53.33	     8.000
  49.700         50.83	     7.810
  49.720         50.83	     7.810
  49.740         55.00	     8.124
  49.760         70.83	     9.220
  49.780         66.67	     8.944
  49.800         46.67	     7.483
  49.820         60.00	     8.485
  49.840         57.50	     8.307
  49.860         62.50	     8.660
  49.880         53.33	     8.000
  49.900         64.17	     8.775
  49.920         60.83	     8.544
  49.940         77.50	     9.644
  49.960         83.33	    10.000
  49.980         88.33	    10.296
  50.000         84.17	    10.050
  50.020         81.67	     9.899
  50.040         83.33	    10.000
  50.060         88.33	    10.296
  50.080         84.17	    10.050
  50.100        115.00	    11.747
  50.120        125.83	    12.288
  50.140        186.67	    14.967
  50.160        288.33	    18.601
  50.180        392.50	    21.703
  50.200        384.17	    21.471
  50.220        366.67	    20.976
  50.240        231.67	    16.673
  50.260        163.33	    14.000
  50.280        163.33	    14.000
  50.300        195.83	    15.330
  50.320        206.67	    15.748
  50.340        245.00	    17.146
  50.360        194.17	    15.264
  50.380        142.50	    13.077
  50.400        103.33	    11.136
  50.420        106.67	    11.314
  50.440         96.67	    10.770
  50.460         78.33	     9.695
  50.480         87.50	    10.247
  50.500        101.67	    11.045
  50.520        142.50	    13.077
  50.540        272.50	    18.083
  50.560        566.67	    26.077
  50.580        810.83	    31.193
  50.600        710.00	    29.189
  50.620        461.67	    23.537
  50.640        252.50	    17.407
  50.660        199.17	    15.460
  50.680        256.67	    17.550
  50.700        383.33	    21.448
  50.720        500.83	    24.515
  50.740        365.00	    20.928
  50.760        225.83	    16.462
  50.780        118.33	    11.916
  50.800        106.67	    11.314
  50.820        107.50	    11.358
  50.840         87.50	    10.247
  50.860         52.50	     7.937
  50.880         55.83	     8.185
  50.900         48.33	     7.616
  50.920         45.00	     7.348
  50.940         47.50	     7.550
  50.960         47.50	     7.550
  50.980         47.50	     7.550
  51.000         36.67	     6.633
  51.020         35.83	     6.557
  51.040         35.00	     6.481
  51.060         32.50	     6.245
  51.080         40.00	     6.928
  51.100         40.00	     6.928
  51.120         44.17	     7.280
  51.140         50.00	     7.746
  51.160         45.83	     7.416
  51.180         55.00	     8.124
  51.200         60.00	     8.485
  51.220         45.83	     7.416
  51.240         45.00	     7.348
  51.260         55.00	     8.124
  51.280         60.00	     8.485
  51.300         49.17	     7.681
  51.320         55.00	     8.124
  51.340         56.67	     8.246
  51.360         51.67	     7.874
  51.380         61.67	     8.602
  51.400         59.17	     8.426
  51.420         86.67	    10.198
  51.440         85.83	    10.149
  51.460        110.83	    11.533
  51.480         81.67	     9.899
  51.500         50.00	     7.746
  51.520         36.67	     6.633
  51.540         37.50	     6.708
  51.560         49.17	     7.681
  51.580         63.33	     8.718
  51.600         74.17	     9.434
  51.620         55.83	     8.185
  51.640         43.33	     7.211
  51.660         39.17	     6.856
  51.680         38.33	     6.782
  51.700         33.33	     6.325
  51.720         30.00	     6.000
  51.740         27.50	     5.745
  51.760         27.50	     5.745
  51.780         33.33	     6.325
  51.800         29.17	     5.916
  51.820         33.33	     6.325
  51.840         30.00	     6.000
  51.860         28.33	     5.831
  51.880         31.67	     6.164
  51.900         25.00	     5.477
  51.920         34.17	     6.403
  51.940         32.50	     6.245
  51.960         26.67	     5.657
  51.980         40.83	     7.000
  52.000         41.67	     7.071
  52.020         35.83	     6.557
  52.040         35.00	     6.481
  52.060         38.33	     6.782
  52.080         36.67	     6.633
  52.100         32.50	     6.245
  52.120         49.17	     7.681
  52.140         41.67	     7.071
  52.160         61.67	     8.602
  52.180         80.00	     9.798
  52.200         80.83	     9.849
  52.220        108.33	    11.402
  52.240        104.17	    11.180
  52.260         67.50	     9.000
  52.280         65.83	     8.888
  52.300         66.67	     8.944
  52.320         65.83	     8.888
  52.340         60.00	     8.485
  52.360         55.00	     8.124
  52.380         85.00	    10.100
  52.400         56.67	     8.246
  52.420         49.17	     7.681
  52.440         64.17	     8.775
  52.460         45.83	     7.416
  52.480         44.17	     7.280
  52.500         45.00	     7.348
  52.520         49.17	     7.681
  52.540         59.17	     8.426
  52.560         43.33	     7.211
  52.580         62.50	     8.660
  52.600         62.50	     8.660
  52.620         62.50	     8.660
  52.640         48.33	     7.616
  52.660         42.50	     7.141
  52.680         50.00	     7.746
  52.700         42.50	     7.141
  52.720         41.67	     7.071
  52.740         62.50	     8.660
  52.760         37.50	     6.708
  52.780         33.33	     6.325
  52.800         41.67	     7.071
  52.820         47.50	     7.550
  52.840         43.33	     7.211
  52.860         50.00	     7.746
  52.880         35.83	     6.557
  52.900         39.17	     6.856
  52.920         40.00	     6.928
  52.940         40.83	     7.000
  52.960         33.33	     6.325
  52.980         33.33	     6.325
  53.000         39.17	     6.856
  53.020         48.33	     7.616
  53.040         33.33	     6.325
  53.060         45.00	     7.348
  53.080         45.83	     7.416
  53.100         38.33	     6.782
  53.120         35.83	     6.557
  53.140         50.83	     7.810
  53.160         45.83	     7.416
  53.180         64.17	     8.775
  53.200         51.67	     7.874
  53.220         46.67	     7.483
  53.240         65.83	     8.888
  53.260         49.17	     7.681
  53.280         52.50	     7.937
  53.300         54.17	     8.062
  53.320         43.33	     7.211
  53.340         45.00	     7.348
  53.360         37.50	     6.708
  53.380         50.00	     7.746
  53.400         40.00	     6.928
  53.420         46.67	     7.483
  53.440         36.67	     6.633
  53.460         47.50	     7.550
  53.480         48.33	     7.616
  53.500         43.33	     7.211
  53.520         45.83	     7.416
  53.540         44.17	     7.280
  53.560         37.50	     6.708
  53.580         29.17	     5.916
  53.600         41.67	     7.071
  53.620         33.33	     6.325
  53.640         34.17	     6.403
  53.660         34.17	     6.403
  53.680         39.17	     6.856
  53.700         32.50	     6.245
  53.720         41.67	     7.071
  53.740         48.33	     7.616
  53.760         44.17	     7.280
  53.780         34.17	     6.403
  53.800         42.50	     7.141
  53.820         45.83	     7.416
  53.840         40.83	     7.000
  53.860         35.00	     6.481
  53.880         40.00	     6.928
  53.900         34.17	     6.403
  53.920         38.33	     6.782
  53.940         42.50	     7.141
  53.960         38.33	     6.782
  53.980         35.00	     6.481
  54.000         38.33	     6.782
  54.020         28.33	     5.831
  54.040         35.83	     6.557
  54.060         30.00	     6.000
  54.080         36.67	     6.633
  54.100         39.17	     6.856
  54.120         42.50	     7.141
  54.140         29.17	     5.916
  54.160         35.83	     6.557
  54.180         37.50	     6.708
  54.200         25.83	     5.568
  54.220         32.50	     6.245
  54.240         32.50	     6.245
  54.260         32.50	     6.245
  54.280         32.50	     6.245
  54.300         37.50	     6.708
  54.320         39.17	     6.856
  54.340         33.33	     6.325
  54.360         36.67	     6.633
  54.380         39.17	     6.856
  54.400         50.83	     7.810
  54.420         48.33	     7.616
  54.440         45.83	     7.416
  54.460         37.50	     6.708
  54.480         36.67	     6.633
  54.500         49.17	     7.681
  54.520         30.83	     6.083
  54.540         42.50	     7.141
  54.560         46.67	     7.483
  54.580         44.17	     7.280
  54.600         55.00	     8.124
  54.620         50.00	     7.746
  54.640         55.00	     8.124
  54.660         37.50	     6.708
  54.680         33.33	     6.325
  54.700         37.50	     6.708
  54.720         40.00	     6.928
  54.740         42.50	     7.141
  54.760         31.67	     6.164
  54.780         45.83	     7.416
  54.800         48.33	     7.616
  54.820         59.17	     8.426
  54.840         68.33	     9.055
  54.860        104.17	    11.180
  54.880        117.50	    11.874
  54.900        170.00	    14.283
  54.920        131.67	    12.570
  54.940        120.83	    12.042
  54.960         76.67	     9.592
  54.980         76.67	     9.592
  55.000         64.17	     8.775
  55.020         82.50	     9.950
  55.040         95.83	    10.724
  55.060        134.17	    12.689
  55.080         97.50	    10.817
  55.100         86.67	    10.198
  55.120         63.33	     8.718
  55.140         52.50	     7.937
  55.160         40.00	     6.928
  55.180         43.33	     7.211
  55.200         40.83	     7.000
  55.220         27.50	     5.745
  55.240         44.17	     7.280
  55.260         45.00	     7.348
  55.280         42.50	     7.141
  55.300         32.50	     6.245
  55.320         51.67	     7.874
  55.340         59.17	     8.426
  55.360         70.00	     9.165
  55.380         65.83	     8.888
  55.400         50.00	     7.746
  55.420         46.67	     7.483
  55.440         52.50	     7.937
  55.460         46.67	     7.483
  55.480         47.50	     7.550
  55.500         52.50	     7.937
  55.520         52.50	     7.937
  55.540         41.67	     7.071
  55.560         46.67	     7.483
  55.580         48.33	     7.616
  55.600         40.83	     7.000
  55.620         38.33	     6.782
  55.640         45.83	     7.416
  55.660         44.17	     7.280
  55.680         44.17	     7.280
  55.700         45.00	     7.348
  55.720         45.83	     7.416
  55.740         45.00	     7.348
  55.760         33.33	     6.325
  55.780         35.83	     6.557
  55.800         50.00	     7.746
  55.820         47.50	     7.550
  55.840         50.83	     7.810
  55.860         55.83	     8.185
  55.880         51.67	     7.874
  55.900         65.00	     8.832
  55.920         73.33	     9.381
  55.940         60.83	     8.544
  55.960         56.67	     8.246
  55.980         52.50	     7.937
  56.000         50.83	     7.810
  56.020         47.50	     7.550
  56.040         50.83	     7.810
  56.060         46.67	     7.483
  56.080         53.33	     8.000
  56.100         50.00	     7.746
  56.120         37.50	     6.708
  56.140         48.33	     7.616
  56.160         48.33	     7.616
  56.180         50.00	     7.746
  56.200         45.83	     7.416
  56.220         45.00	     7.348
  56.240         37.50	     6.708
  56.260         30.83	     6.083
  56.280         40.83	     7.000
  56.300         35.83	     6.557
  56.320         36.67	     6.633
  56.340         34.17	     6.403
  56.360         32.50	     6.245
  56.380         33.33	     6.325
  56.400         35.00	     6.481
  56.420         34.17	     6.403
  56.440         32.50	     6.245
  56.460         42.50	     7.141
  56.480         30.00	     6.000
  56.500         38.33	     6.782
  56.520         34.17	     6.403
  56.540         25.83	     5.568
  56.560         30.00	     6.000
  56.580         30.00	     6.000
  56.600         36.67	     6.633
  56.620         40.00	     6.928
  56.640         36.67	     6.633
  56.660         44.17	     7.280
  56.680         55.83	     8.185
  56.700         86.67	    10.198
  56.720         64.17	     8.775
  56.740         46.67	     7.483
  56.760         37.50	     6.708
  56.780         38.33	     6.782
  56.800         51.67	     7.874
  56.820         50.83	     7.810
  56.840         43.33	     7.211
  56.860         65.83	     8.888
  56.880         43.33	     7.211
  56.900         55.83	     8.185
  56.920         52.50	     7.937
  56.940         43.33	     7.211
  56.960         36.67	     6.633
  56.980         43.33	     7.211
  57.000         43.33	     7.211
  57.020         52.50	     7.937
  57.040         40.83	     7.000
  57.060         50.00	     7.746
  57.080         35.00	     6.481
  57.100         40.00	     6.928
  57.120         33.33	     6.325
  57.140         40.83	     7.000
  57.160         49.17	     7.681
  57.180         40.83	     7.000
  57.200         36.67	     6.633
  57.220         36.67	     6.633
  57.240         34.17	     6.403
  57.260         40.83	     7.000
  57.280         41.67	     7.071
  57.300         48.33	     7.616
  57.320         31.67	     6.164
  57.340         32.50	     6.245
  57.360         34.17	     6.403
  57.380         32.50	     6.245
  57.400         40.83	     7.000
  57.420         40.00	     6.928
  57.440         36.67	     6.633
  57.460         30.83	     6.083
  57.480         29.17	     5.916
  57.500         31.67	     6.164
  57.520         30.00	     6.000
  57.540         35.83	     6.557
  57.560         38.33	     6.782
  57.580         30.83	     6.083
  57.600         43.33	     7.211
  57.620         37.50	     6.708
  57.640         30.83	     6.083
  57.660         35.00	     6.481
  57.680         38.33	     6.782
  57.700         46.67	     7.483
  57.720         51.67	     7.874
  57.740         38.33	     6.782
  57.760         47.50	     7.550
  57.780         50.83	     7.810
  57.800         38.33	     6.782
  57.820         35.83	     6.557
  57.840         40.00	     6.928
  57.860         41.67	     7.071
  57.880         46.67	     7.483
  57.900         48.33	     7.616
  57.920         47.50	     7.550
  57.940         48.33	     7.616
  57.960         33.33	     6.325
  57.980         32.50	     6.245
  58.000         30.83	     6.083
  58.020         33.33	     6.325
  58.040         37.50	     6.708
  58.060         30.83	     6.083
  58.080         40.83	     7.000
  58.100         32.50	     6.245
  58.120         40.83	     7.000
  58.140         31.67	     6.164
  58.160         38.33	     6.782
  58.180         31.67	     6.164
  58.200         36.67	     6.633
  58.220         41.67	     7.071
  58.240         50.83	     7.810
  58.260         34.17	     6.403
  58.280         35.00	     6.481
  58.300         37.50	     6.708
  58.320         35.00	     6.481
  58.340         40.83	     7.000
  58.360         38.33	     6.782
  58.380         43.33	     7.211
  58.400         38.33	     6.782
  58.420         34.17	     6.403
  58.440         40.83	     7.000
  58.460         35.00	     6.481
  58.480         35.83	     6.557
  58.500         35.83	     6.557
  58.520         43.33	     7.211
  58.540         38.33	     6.782
  58.560         36.67	     6.633
  58.580         47.50	     7.550
  58.600         41.67	     7.071
  58.620         50.83	     7.810
  58.640         45.00	     7.348
  58.660         56.67	     8.246
  58.680         49.17	     7.681
  58.700         50.83	     7.810
  58.720         53.33	     8.000
  58.740         48.33	     7.616
  58.760         53.33	     8.000
  58.780         63.33	     8.718
  58.800         49.17	     7.681
  58.820         59.17	     8.426
  58.840         54.17	     8.062
  58.860         49.17	     7.681
  58.880         50.83	     7.810
  58.900         40.83	     7.000
  58.920         45.83	     7.416
  58.940         48.33	     7.616
  58.960         38.33	     6.782
  58.980         55.83	     8.185
  59.000         35.83	     6.557
  59.020         47.50	     7.550
  59.040         60.00	     8.485
  59.060         46.67	     7.483
  59.080         55.00	     8.124
  59.100         50.83	     7.810
  59.120         60.00	     8.485
  59.140         40.00	     6.928
  59.160         45.00	     7.348
  59.180         52.50	     7.937
  59.200         61.67	     8.602
  59.220         55.00	     8.124
  59.240         55.83	     8.185
  59.260         64.17	     8.775
  59.280         51.67	     7.874
  59.300         48.33	     7.616
  59.320         50.00	     7.746
  59.340         42.50	     7.141
  59.360         54.17	     8.062
  59.380         52.50	     7.937
  59.400         40.00	     6.928
  59.420         40.83	     7.000
  59.440         40.83	     7.000
  59.460         35.00	     6.481
  59.480         49.17	     7.681
  59.500         51.67	     7.874
  59.520         47.50	     7.550
  59.540         54.17	     8.062
  59.560         51.67	     7.874
  59.580         60.83	     8.544
  59.600         81.67	     9.899
  59.620         80.00	     9.798
  59.640         70.00	     9.165
  59.660         64.17	     8.775
  59.680         58.33	     8.367
  59.700         60.83	     8.544
  59.720         57.50	     8.307
  59.740         65.83	     8.888
  59.760         57.50	     8.307
  59.780         57.50	     8.307
  59.800         59.17	     8.426
  59.820         58.33	     8.367
  59.840         63.33	     8.718
  59.860         65.83	     8.888
  59.880         55.83	     8.185
  59.900         74.17	     9.434
  59.920        108.33	    11.402
  59.940        136.67	    12.806
  59.960        207.50	    15.780
  59.980        302.50	    19.053
  60.000        428.33	    22.672
  60.020        478.33	    23.958
  60.040        363.33	    20.881
  60.060        205.00	    15.684
  60.080        160.83	    13.892
  60.100        118.33	    11.916
  60.120        142.50	    13.077
  60.140        180.00	    14.697
  60.160        255.83	    17.521
  60.180        277.50	    18.248
  60.200        229.17	    16.583
  60.220        150.83	    13.454
  60.240         96.67	    10.770
  60.260         85.83	    10.149
  60.280         65.00	     8.832
  60.300         74.17	     9.434
  60.320         51.67	     7.874
  60.340         51.67	     7.874
  60.360         53.33	     8.000
  60.380         48.33	     7.616
  60.400         55.00	     8.124
  60.420         47.50	     7.550
  60.440         43.33	     7.211
  60.460         45.00	     7.348
  60.480         57.50	     8.307
  60.500         60.00	     8.485
  60.520         63.33	     8.718
  60.540         50.83	     7.810
  60.560         66.67	     8.944
  60.580         51.67	     7.874
  60.600         63.33	     8.718
  60.620         48.33	     7.616
  60.640         50.00	     7.746
  60.660         57.50	     8.307
  60.680         59.17	     8.426
  60.700         58.33	     8.367
  60.720         62.50	     8.660
  60.740         54.17	     8.062
  60.760         53.33	     8.000
  60.780         55.00	     8.124
  60.800         55.83	     8.185
  60.820         54.17	     8.062
  60.840         61.67	     8.602
  60.860         52.50	     7.937
  60.880         55.00	     8.124
  60.900         58.33	     8.367
  60.920         50.83	     7.810
  60.940         43.33	     7.211
  60.960         54.17	     8.062
  60.980         60.83	     8.544
  61.000         69.17	     9.110
  61.020         59.17	     8.426
  61.040         70.83	     9.220
  61.060         41.67	     7.071
  61.080         58.33	     8.367
  61.100         48.33	     7.616
  61.120         54.17	     8.062
  61.140         60.83	     8.544
  61.160         40.00	     6.928
  61.180         41.67	     7.071
  61.200         40.83	     7.000
  61.220         35.00	     6.481
  61.240         42.50	     7.141
  61.260         45.00	     7.348
  61.280         40.83	     7.000
  61.300         60.00	     8.485
  61.320         50.00	     7.746
  61.340         37.50	     6.708
  61.360         45.00	     7.348
  61.380         51.67	     7.874
  61.400         59.17	     8.426
  61.420         42.50	     7.141
  61.440         44.17	     7.280
  61.460         45.00	     7.348
  61.480         45.83	     7.416
  61.500         45.83	     7.416
  61.520         47.50	     7.550
  61.540         64.17	     8.775
  61.560         65.83	     8.888
  61.580         55.00	     8.124
  61.600         65.83	     8.888
  61.620         55.00	     8.124
  61.640         51.67	     7.874
  61.660         63.33	     8.718
  61.680         55.83	     8.185
  61.700         54.17	     8.062
  61.720         54.17	     8.062
  61.740         39.17	     6.856
  61.760         48.33	     7.616
  61.780         45.83	     7.416
  61.800         50.83	     7.810
  61.820         56.67	     8.246
  61.840         42.50	     7.141
  61.860         52.50	     7.937
  61.880         39.17	     6.856
  61.900         43.33	     7.211
  61.920         53.33	     8.000
  61.940         50.83	     7.810
  61.960         50.83	     7.810
  61.980         50.00	     7.746
  62.000         55.00	     8.124
  62.020         54.17	     8.062
  62.040         53.33	     8.000
  62.060         45.83	     7.416
  62.080         42.50	     7.141
  62.100         43.33	     7.211
  62.120         44.17	     7.280
  62.140         37.50	     6.708
  62.160         55.00	     8.124
  62.180         48.33	     7.616
  62.200         35.00	     6.481
  62.220         40.00	     6.928
  62.240         45.00	     7.348
  62.260         32.50	     6.245
  62.280         30.00	     6.000
  62.300         39.17	     6.856
  62.320         44.17	     7.280
  62.340         34.17	     6.403
  62.360         39.17	     6.856
  62.380         30.83	     6.083
  62.400         37.50	     6.708
  62.420         40.83	     7.000
  62.440         45.83	     7.416
  62.460         43.33	     7.211
  62.480         26.67	     5.657
  62.500         38.33	     6.782
  62.520         30.00	     6.000
  62.540         39.17	     6.856
  62.560         47.50	     7.550
  62.580         50.83	     7.810
  62.600         45.83	     7.416
  62.620         56.67	     8.246
  62.640         66.67	     8.944
  62.660        108.33	    11.402
  62.680        114.17	    11.705
  62.700         70.83	     9.220
  62.720         50.83	     7.810
  62.740         46.67	     7.483
  62.760         33.33	     6.325
  62.780         40.00	     6.928
  62.800         51.67	     7.874
  62.820         65.83	     8.888
  62.840         71.67	     9.274
  62.860         71.67	     9.274
  62.880         49.17	     7.681
  62.900         57.50	     8.307
  62.920         35.83	     6.557
  62.940         43.33	     7.211
  62.960         42.50	     7.141
  62.980         33.33	     6.325
  63.000         34.17	     6.403
  63.020         48.33	     7.616
  63.040         32.50	     6.245
  63.060         35.83	     6.557
  63.080         31.67	     6.164
  63.100         27.50	     5.745
  63.120         29.17	     5.916
  63.140         34.17	     6.403
  63.160         25.00	     5.477
  63.180         31.67	     6.164
  63.200         47.50	     7.550
  63.220         35.83	     6.557
  63.240         42.50	     7.141
  63.260         36.67	     6.633
  63.280         24.17	     5.385
  63.300         28.33	     5.831
  63.320         35.83	     6.557
  63.340         38.33	     6.782
  63.360         39.17	     6.856
  63.380         33.33	     6.325
  63.400         50.83	     7.810
  63.420         50.83	     7.810
  63.440         46.67	     7.483
  63.460         36.67	     6.633
  63.480         46.67	     7.483
  63.500         49.17	     7.681
  63.520         50.00	     7.746
  63.540         55.00	     8.124
  63.560         57.50	     8.307
  63.580         60.83	     8.544
  63.600         51.67	     7.874
  63.620         49.17	     7.681
  63.640         47.50	     7.550
  63.660         52.50	     7.937
  63.680         49.17	     7.681
  63.700         45.00	     7.348
  63.720         55.83	     8.185
  63.740         52.50	     7.937
  63.760         45.00	     7.348
  63.780         49.17	     7.681
  63.800         62.50	     8.660
  63.820         43.33	     7.211
  63.840         55.83	     8.185
  63.860         69.17	     9.110
  63.880        103.33	    11.136
  63.900        114.17	    11.705
  63.920        120.00	    12.000
  63.940         93.33	    10.583
  63.960         87.50	    10.247
  63.980         55.00	     8.124
  64.000         64.17	     8.775
  64.020         79.17	     9.747
  64.040         96.67	    10.770
  64.060        112.50	    11.619
  64.080        124.17	    12.207
  64.100        148.33	    13.342
  64.120         91.67	    10.488
  64.140         70.00	     9.165
  64.160         80.00	     9.798
  64.180         60.83	     8.544
  64.200         65.83	     8.888
  64.220         72.50	     9.327
  64.240         83.33	    10.000
  64.260         90.83	    10.440
  64.280         66.67	     8.944
  64.300         60.83	     8.544
  64.320         60.83	     8.544
  64.340         60.00	     8.485
  64.360         43.33	     7.211
  64.380         44.17	     7.280
  64.400         47.50	     7.550
  64.420         47.50	     7.550
  64.440         40.83	     7.000
  64.460         55.83	     8.185
  64.480         38.33	     6.782
  64.500         46.67	     7.483
  64.520         45.83	     7.416
  64.540         42.50	     7.141
  64.560         37.50	     6.708
  64.580         36.67	     6.633
  64.600         45.00	     7.348
  64.620         44.17	     7.280
  64.640         30.00	     6.000
  64.660         43.33	     7.211
  64.680         43.33	     7.211
  64.700         39.17	     6.856
  64.720         50.00	     7.746
  64.740         43.33	     7.211
  64.760         37.50	     6.708
  64.780         38.33	     6.782
  64.800         38.33	     6.782
  64.820         45.00	     7.348
  64.840         46.67	     7.483
  64.860         32.50	     6.245
  64.880         40.00	     6.928
  64.900         45.00	     7.348
  64.920         39.17	     6.856
  64.940         45.83	     7.416
  64.960         60.83	     8.544
  64.980         80.00	     9.798
  65.000         95.00	    10.677
