
Filename:
	C:\Program Files\Thermo Electron\WinXRD\Datafiles\F_HERMAN\FIEN\10_2_AUG_0_BG_RT.raw

File Created:
	February 22, 2019 - 03:50 PM

Specimen Id:
	10.2 AUG 0 BG

Specimen Name:
	

Specimen Description:
	

Comment:
Scan Type: 2Theta Scan
Start Angle: 1 deg.
Stop Angle: 65 deg.
Num Points: 3201
Step Size: 0.02 deg.
Scan Rate: 1.000000
Scan Mode: Continuous
Wavelength: 1.540562
\Kalpha1: 1.540562	\Kalpha2: 1.544390	\Kbeta: 1.392218

Optics:
		Detector:
			 Type: Fixed Slits
		Tube: 
			 Type: Fixed Slits


Datas:
 Pos [deg]       Rate [CPS]      ESD [-]

Range 1 ---> Iteration 1
   1.000       1058.33	    35.637
   1.020        821.67	    31.401
   1.040        748.33	    29.967
   1.060        607.50	    27.000
   1.080        480.83	    24.021
   1.100        395.83	    21.794
   1.120        465.00	    23.622
   1.140        362.50	    20.857
   1.160        509.17	    24.718
   1.180        475.00	    23.875
   1.200        410.00	    22.181
   1.220        345.83	    20.372
   1.240        410.83	    22.204
   1.260        360.83	    20.809
   1.280        440.83	    23.000
   1.300        526.67	    25.140
   1.320        685.83	    28.688
   1.340        794.17	    30.871
   1.360        982.50	    34.337
   1.380       1175.83	    37.563
   1.400       1290.00	    39.345
   1.420       1305.00	    39.573
   1.440       1245.00	    38.652
   1.460       1241.67	    38.601
   1.480       1206.67	    38.053
   1.500       1081.67	    36.028
   1.520       1135.83	    36.919
   1.540       1068.33	    35.805
   1.560       1024.17	    35.057
   1.580        924.17	    33.302
   1.600        965.00	    34.029
   1.620        954.17	    33.838
   1.640        869.17	    32.296
   1.660        830.83	    31.575
   1.680        758.33	    30.166
   1.700        725.83	    29.513
   1.720        697.50	    28.931
   1.740        634.17	    27.586
   1.760        601.67	    26.870
   1.780        596.67	    26.758
   1.800        510.83	    24.759
   1.820        514.17	    24.839
   1.840        505.83	    24.637
   1.860        448.33	    23.195
   1.880        484.17	    24.104
   1.900        435.00	    22.847
   1.920        449.17	    23.216
   1.940        433.33	    22.804
   1.960        434.17	    22.825
   1.980        409.17	    22.159
   2.000        408.33	    22.136
   2.020        371.67	    21.119
   2.040        425.00	    22.583
   2.060        380.00	    21.354
   2.080        378.33	    21.307
   2.100        391.67	    21.679
   2.120        387.50	    21.564
   2.140        394.17	    21.749
   2.160        367.50	    21.000
   2.180        348.33	    20.445
   2.200        350.83	    20.518
   2.220        330.00	    19.900
   2.240        347.50	    20.421
   2.260        343.33	    20.298
   2.280        335.83	    20.075
   2.300        311.67	    19.339
   2.320        318.33	    19.545
   2.340        310.00	    19.287
   2.360        270.83	    18.028
   2.380        323.33	    19.698
   2.400        290.83	    18.682
   2.420        312.50	    19.365
   2.440        314.17	    19.416
   2.460        264.17	    17.804
   2.480        303.33	    19.079
   2.500        277.50	    18.248
   2.520        292.50	    18.735
   2.540        300.83	    19.000
   2.560        269.17	    17.972
   2.580        278.33	    18.276
   2.600        268.33	    17.944
   2.620        262.50	    17.748
   2.640        296.67	    18.868
   2.660        269.17	    17.972
   2.680        271.67	    18.055
   2.700        272.50	    18.083
   2.720        265.00	    17.833
   2.740        275.00	    18.166
   2.760        269.17	    17.972
   2.780        267.50	    17.916
   2.800        230.83	    16.643
   2.820        249.17	    17.292
   2.840        218.33	    16.186
   2.860        253.33	    17.436
   2.880        226.67	    16.492
   2.900        236.67	    16.852
   2.920        239.17	    16.941
   2.940        236.67	    16.852
   2.960        217.50	    16.155
   2.980        235.00	    16.793
   3.000        228.33	    16.553
   3.020        231.67	    16.673
   3.040        227.50	    16.523
   3.060        237.50	    16.882
   3.080        200.83	    15.524
   3.100        219.17	    16.217
   3.120        202.50	    15.588
   3.140        212.50	    15.969
   3.160        218.33	    16.186
   3.180        230.83	    16.643
   3.200        200.83	    15.524
   3.220        211.67	    15.937
   3.240        220.83	    16.279
   3.260        209.17	    15.843
   3.280        216.67	    16.125
   3.300        205.00	    15.684
   3.320        215.83	    16.093
   3.340        185.00	    14.900
   3.360        197.50	    15.395
   3.380        220.00	    16.248
   3.400        202.50	    15.588
   3.420        202.50	    15.588
   3.440        205.00	    15.684
   3.460        195.00	    15.297
   3.480        170.00	    14.283
   3.500        200.83	    15.524
   3.520        172.50	    14.387
   3.540        181.67	    14.765
   3.560        187.50	    15.000
   3.580        202.50	    15.588
   3.600        176.67	    14.560
   3.620        202.50	    15.588
   3.640        169.17	    14.248
   3.660        183.33	    14.832
   3.680        179.17	    14.663
   3.700        173.33	    14.422
   3.720        181.67	    14.765
   3.740        182.50	    14.799
   3.760        190.83	    15.133
   3.780        187.50	    15.000
   3.800        172.50	    14.387
   3.820        185.00	    14.900
   3.840        156.67	    13.711
   3.860        182.50	    14.799
   3.880        163.33	    14.000
   3.900        194.17	    15.264
   3.920        173.33	    14.422
   3.940        139.17	    12.923
   3.960        142.50	    13.077
   3.980        166.67	    14.142
   4.000        171.67	    14.353
   4.020        163.33	    14.000
   4.040        190.83	    15.133
   4.060        169.17	    14.248
   4.080        162.50	    13.964
   4.100        171.67	    14.353
   4.120        133.33	    12.649
   4.140        169.17	    14.248
   4.160        165.00	    14.071
   4.180        149.17	    13.379
   4.200        157.50	    13.748
   4.220        150.00	    13.416
   4.240        151.67	    13.491
   4.260        137.50	    12.845
   4.280        141.67	    13.038
   4.300        145.00	    13.191
   4.320        164.17	    14.036
   4.340        143.33	    13.115
   4.360        150.00	    13.416
   4.380        153.33	    13.565
   4.400        146.67	    13.266
   4.420        156.67	    13.711
   4.440        154.17	    13.601
   4.460        160.00	    13.856
   4.480        151.67	    13.491
   4.500        138.33	    12.884
   4.520        145.83	    13.229
   4.540        155.83	    13.675
   4.560        152.50	    13.528
   4.580        175.00	    14.491
   4.600        149.17	    13.379
   4.620        132.50	    12.610
   4.640        150.00	    13.416
   4.660        138.33	    12.884
   4.680        165.00	    14.071
   4.700        138.33	    12.884
   4.720        130.00	    12.490
   4.740        132.50	    12.610
   4.760        149.17	    13.379
   4.780        120.00	    12.000
   4.800        129.17	    12.450
   4.820        123.33	    12.166
   4.840        124.17	    12.207
   4.860        138.33	    12.884
   4.880        143.33	    13.115
   4.900        131.67	    12.570
   4.920        140.00	    12.961
   4.940        125.83	    12.288
   4.960        129.17	    12.450
   4.980        140.00	    12.961
   5.000        125.83	    12.288
   5.020        118.33	    11.916
   5.040        124.17	    12.207
   5.060        138.33	    12.884
   5.080        111.67	    11.576
   5.100        135.83	    12.767
   5.120        130.83	    12.530
   5.140        125.00	    12.247
   5.160        130.83	    12.530
   5.180        132.50	    12.610
   5.200        109.17	    11.446
   5.220        112.50	    11.619
   5.240        110.83	    11.533
   5.260         94.17	    10.630
   5.280        125.00	    12.247
   5.300        123.33	    12.166
   5.320        119.17	    11.958
   5.340        125.00	    12.247
   5.360         95.00	    10.677
   5.380        120.00	    12.000
   5.400        121.67	    12.083
   5.420        124.17	    12.207
   5.440        105.00	    11.225
   5.460        115.83	    11.790
   5.480        113.33	    11.662
   5.500        123.33	    12.166
   5.520        122.50	    12.124
   5.540        122.50	    12.124
   5.560        115.00	    11.747
   5.580        113.33	    11.662
   5.600        138.33	    12.884
   5.620        115.83	    11.790
   5.640         99.17	    10.909
   5.660        119.17	    11.958
   5.680        101.67	    11.045
   5.700         98.33	    10.863
   5.720        114.17	    11.705
   5.740        105.00	    11.225
   5.760        108.33	    11.402
   5.780        102.50	    11.091
   5.800        100.83	    11.000
   5.820        117.50	    11.874
   5.840        112.50	    11.619
   5.860        107.50	    11.358
   5.880         95.00	    10.677
   5.900        115.00	    11.747
   5.920        104.17	    11.180
   5.940        123.33	    12.166
   5.960        120.00	    12.000
   5.980         89.17	    10.344
   6.000        120.83	    12.042
   6.020        113.33	    11.662
   6.040        103.33	    11.136
   6.060        107.50	    11.358
   6.080        116.67	    11.832
   6.100        150.00	    13.416
   6.120        115.83	    11.790
   6.140        135.83	    12.767
   6.160        121.67	    12.083
   6.180        113.33	    11.662
   6.200        122.50	    12.124
   6.220        141.67	    13.038
   6.240        131.67	    12.570
   6.260        164.17	    14.036
   6.280        165.00	    14.071
   6.300        184.17	    14.866
   6.320        176.67	    14.560
   6.340        180.83	    14.731
   6.360        178.33	    14.629
   6.380        154.17	    13.601
   6.400        126.67	    12.329
   6.420        124.17	    12.207
   6.440        125.00	    12.247
   6.460        122.50	    12.124
   6.480        130.00	    12.490
   6.500         98.33	    10.863
   6.520        105.00	    11.225
   6.540        110.00	    11.489
   6.560         86.67	    10.198
   6.580        119.17	    11.958
   6.600        110.00	    11.489
   6.620        103.33	    11.136
   6.640        100.00	    10.954
   6.660        100.00	    10.954
   6.680        111.67	    11.576
   6.700        102.50	    11.091
   6.720         77.50	     9.644
   6.740         97.50	    10.817
   6.760         89.17	    10.344
   6.780         95.83	    10.724
   6.800         80.00	     9.798
   6.820         94.17	    10.630
   6.840         91.67	    10.488
   6.860         95.83	    10.724
   6.880         88.33	    10.296
   6.900        109.17	    11.446
   6.920         81.67	     9.899
   6.940         77.50	     9.644
   6.960         90.83	    10.440
   6.980         88.33	    10.296
   7.000         80.83	     9.849
   7.020         88.33	    10.296
   7.040         85.83	    10.149
   7.060         86.67	    10.198
   7.080         88.33	    10.296
   7.100        100.00	    10.954
   7.120         92.50	    10.536
   7.140         70.00	     9.165
   7.160        113.33	    11.662
   7.180         92.50	    10.536
   7.200        108.33	    11.402
   7.220         83.33	    10.000
   7.240        104.17	    11.180
   7.260         85.00	    10.100
   7.280        100.00	    10.954
   7.300         95.83	    10.724
   7.320         90.83	    10.440
   7.340         87.50	    10.247
   7.360         76.67	     9.592
   7.380         79.17	     9.747
   7.400         80.83	     9.849
   7.420         79.17	     9.747
   7.440         78.33	     9.695
   7.460         95.00	    10.677
   7.480         80.00	     9.798
   7.500         70.83	     9.220
   7.520         82.50	     9.950
   7.540         77.50	     9.644
   7.560         82.50	     9.950
   7.580         96.67	    10.770
   7.600         76.67	     9.592
   7.620         76.67	     9.592
   7.640         81.67	     9.899
   7.660         74.17	     9.434
   7.680         85.00	    10.100
   7.700         67.50	     9.000
   7.720         74.17	     9.434
   7.740         63.33	     8.718
   7.760         70.00	     9.165
   7.780         77.50	     9.644
   7.800         79.17	     9.747
   7.820         65.83	     8.888
   7.840         80.00	     9.798
   7.860         74.17	     9.434
   7.880         66.67	     8.944
   7.900         85.83	    10.149
   7.920         74.17	     9.434
   7.940         70.83	     9.220
   7.960         57.50	     8.307
   7.980         60.83	     8.544
   8.000         81.67	     9.899
   8.020         76.67	     9.592
   8.040         68.33	     9.055
   8.060         75.83	     9.539
   8.080         75.00	     9.487
   8.100         82.50	     9.950
   8.120         69.17	     9.110
   8.140         70.83	     9.220
   8.160         84.17	    10.050
   8.180         85.83	    10.149
   8.200         69.17	     9.110
   8.220         72.50	     9.327
   8.240         75.00	     9.487
   8.260         69.17	     9.110
   8.280         64.17	     8.775
   8.300         66.67	     8.944
   8.320        102.50	    11.091
   8.340         75.00	     9.487
   8.360         66.67	     8.944
   8.380         97.50	    10.817
   8.400         60.00	     8.485
   8.420         75.00	     9.487
   8.440         65.83	     8.888
   8.460         66.67	     8.944
   8.480         75.83	     9.539
   8.500         74.17	     9.434
   8.520         73.33	     9.381
   8.540         69.17	     9.110
   8.560         66.67	     8.944
   8.580         80.83	     9.849
   8.600         73.33	     9.381
   8.620         63.33	     8.718
   8.640         70.83	     9.220
   8.660         75.00	     9.487
   8.680         78.33	     9.695
   8.700         77.50	     9.644
   8.720         85.83	    10.149
   8.740         82.50	     9.950
   8.760         81.67	     9.899
   8.780         97.50	    10.817
   8.800         85.83	    10.149
   8.820         93.33	    10.583
   8.840         95.00	    10.677
   8.860        122.50	    12.124
   8.880        122.50	    12.124
   8.900        147.50	    13.304
   8.920        164.17	    14.036
   8.940        194.17	    15.264
   8.960        232.50	    16.703
   8.980        253.33	    17.436
   9.000        282.50	    18.412
   9.020        315.83	    19.468
   9.040        292.50	    18.735
   9.060        206.67	    15.748
   9.080        106.67	    11.314
   9.100         91.67	    10.488
   9.120         89.17	    10.344
   9.140         80.00	     9.798
   9.160         74.17	     9.434
   9.180         75.00	     9.487
   9.200         70.83	     9.220
   9.220         75.00	     9.487
   9.240         72.50	     9.327
   9.260         83.33	    10.000
   9.280         84.17	    10.050
   9.300         80.83	     9.849
   9.320         80.00	     9.798
   9.340         90.83	    10.440
   9.360         54.17	     8.062
   9.380         68.33	     9.055
   9.400         60.83	     8.544
   9.420         69.17	     9.110
   9.440         75.00	     9.487
   9.460         65.00	     8.832
   9.480         69.17	     9.110
   9.500         67.50	     9.000
   9.520         67.50	     9.000
   9.540         76.67	     9.592
   9.560         81.67	     9.899
   9.580         72.50	     9.327
   9.600         75.00	     9.487
   9.620         71.67	     9.274
   9.640         54.17	     8.062
   9.660         70.00	     9.165
   9.680         59.17	     8.426
   9.700         48.33	     7.616
   9.720         60.83	     8.544
   9.740         42.50	     7.141
   9.760         53.33	     8.000
   9.780         52.50	     7.937
   9.800         49.17	     7.681
   9.820         64.17	     8.775
   9.840         55.83	     8.185
   9.860         61.67	     8.602
   9.880         57.50	     8.307
   9.900         62.50	     8.660
   9.920         57.50	     8.307
   9.940         47.50	     7.550
   9.960         55.00	     8.124
   9.980         60.00	     8.485
  10.000         49.17	     7.681
  10.020         65.00	     8.832
  10.040         52.50	     7.937
  10.060         50.00	     7.746
  10.080         41.67	     7.071
  10.100         47.50	     7.550
  10.120         60.00	     8.485
  10.140         65.00	     8.832
  10.160         61.67	     8.602
  10.180         60.00	     8.485
  10.200         63.33	     8.718
  10.220         61.67	     8.602
  10.240         49.17	     7.681
  10.260         49.17	     7.681
  10.280         59.17	     8.426
  10.300         53.33	     8.000
  10.320         45.00	     7.348
  10.340         45.83	     7.416
  10.360         55.00	     8.124
  10.380         58.33	     8.367
  10.400         49.17	     7.681
  10.420         56.67	     8.246
  10.440         54.17	     8.062
  10.460         61.67	     8.602
  10.480         56.67	     8.246
  10.500         48.33	     7.616
  10.520         49.17	     7.681
  10.540         56.67	     8.246
  10.560         55.00	     8.124
  10.580         54.17	     8.062
  10.600         69.17	     9.110
  10.620         77.50	     9.644
  10.640         71.67	     9.274
  10.660         98.33	    10.863
  10.680        124.17	    12.207
  10.700        140.00	    12.961
  10.720         95.83	    10.724
  10.740         60.00	     8.485
  10.760         65.83	     8.888
  10.780         40.00	     6.928
  10.800         56.67	     8.246
  10.820         44.17	     7.280
  10.840         42.50	     7.141
  10.860         46.67	     7.483
  10.880         50.00	     7.746
  10.900         50.00	     7.746
  10.920         45.00	     7.348
  10.940         60.00	     8.485
  10.960         47.50	     7.550
  10.980         48.33	     7.616
  11.000         48.33	     7.616
  11.020         39.17	     6.856
  11.040         46.67	     7.483
  11.060         47.50	     7.550
  11.080         43.33	     7.211
  11.100         52.50	     7.937
  11.120         50.83	     7.810
  11.140         55.83	     8.185
  11.160         53.33	     8.000
  11.180         50.00	     7.746
  11.200         55.00	     8.124
  11.220         42.50	     7.141
  11.240         39.17	     6.856
  11.260         50.00	     7.746
  11.280         42.50	     7.141
  11.300         51.67	     7.874
  11.320         54.17	     8.062
  11.340         45.83	     7.416
  11.360         47.50	     7.550
  11.380         47.50	     7.550
  11.400         36.67	     6.633
  11.420         39.17	     6.856
  11.440         51.67	     7.874
  11.460         45.00	     7.348
  11.480         45.00	     7.348
  11.500         52.50	     7.937
  11.520         58.33	     8.367
  11.540         37.50	     6.708
  11.560         47.50	     7.550
  11.580         48.33	     7.616
  11.600         37.50	     6.708
  11.620         53.33	     8.000
  11.640         48.33	     7.616
  11.660         42.50	     7.141
  11.680         41.67	     7.071
  11.700         43.33	     7.211
  11.720         48.33	     7.616
  11.740         51.67	     7.874
  11.760         35.83	     6.557
  11.780         60.83	     8.544
  11.800         55.83	     8.185
  11.820         49.17	     7.681
  11.840         50.83	     7.810
  11.860         50.00	     7.746
  11.880         43.33	     7.211
  11.900         51.67	     7.874
  11.920         53.33	     8.000
  11.940         45.00	     7.348
  11.960         50.00	     7.746
  11.980         42.50	     7.141
  12.000         48.33	     7.616
  12.020         49.17	     7.681
  12.040         45.00	     7.348
  12.060         61.67	     8.602
  12.080         50.00	     7.746
  12.100         60.83	     8.544
  12.120         58.33	     8.367
  12.140         67.50	     9.000
  12.160         68.33	     9.055
  12.180         94.17	    10.630
  12.200        113.33	    11.662
  12.220        110.83	    11.533
  12.240        126.67	    12.329
  12.260        184.17	    14.866
  12.280        230.00	    16.613
  12.300        249.17	    17.292
  12.320        269.17	    17.972
  12.340        290.83	    18.682
  12.360        240.83	    17.000
  12.380        185.83	    14.933
  12.400        138.33	    12.884
  12.420        138.33	    12.884
  12.440        145.00	    13.191
  12.460        160.83	    13.892
  12.480        160.00	    13.856
  12.500        169.17	    14.248
  12.520        156.67	    13.711
  12.540        162.50	    13.964
  12.560        170.83	    14.318
  12.580        189.17	    15.067
  12.600        185.83	    14.933
  12.620        178.33	    14.629
  12.640        187.50	    15.000
  12.660        141.67	    13.038
  12.680        123.33	    12.166
  12.700         86.67	    10.198
  12.720         61.67	     8.602
  12.740         55.00	     8.124
  12.760         63.33	     8.718
  12.780         40.00	     6.928
  12.800         46.67	     7.483
  12.820         44.17	     7.280
  12.840         55.83	     8.185
  12.860         40.83	     7.000
  12.880         50.83	     7.810
  12.900         42.50	     7.141
  12.920         43.33	     7.211
  12.940         45.00	     7.348
  12.960         45.00	     7.348
  12.980         28.33	     5.831
  13.000         38.33	     6.782
  13.020         42.50	     7.141
  13.040         38.33	     6.782
  13.060         39.17	     6.856
  13.080         48.33	     7.616
  13.100         36.67	     6.633
  13.120         44.17	     7.280
  13.140         45.83	     7.416
  13.160         36.67	     6.633
  13.180         30.83	     6.083
  13.200         40.00	     6.928
  13.220         51.67	     7.874
  13.240         44.17	     7.280
  13.260         38.33	     6.782
  13.280         46.67	     7.483
  13.300         36.67	     6.633
  13.320         43.33	     7.211
  13.340         39.17	     6.856
  13.360         47.50	     7.550
  13.380         50.00	     7.746
  13.400         35.83	     6.557
  13.420         33.33	     6.325
  13.440         44.17	     7.280
  13.460         37.50	     6.708
  13.480         51.67	     7.874
  13.500         45.83	     7.416
  13.520         39.17	     6.856
  13.540         50.00	     7.746
  13.560         38.33	     6.782
  13.580         31.67	     6.164
  13.600         41.67	     7.071
  13.620         40.00	     6.928
  13.640         40.00	     6.928
  13.660         33.33	     6.325
  13.680         45.00	     7.348
  13.700         45.00	     7.348
  13.720         40.00	     6.928
  13.740         56.67	     8.246
  13.760         41.67	     7.071
  13.780         40.83	     7.000
  13.800         45.00	     7.348
  13.820         33.33	     6.325
  13.840         41.67	     7.071
  13.860         40.00	     6.928
  13.880         49.17	     7.681
  13.900         46.67	     7.483
  13.920         40.83	     7.000
  13.940         50.00	     7.746
  13.960         58.33	     8.367
  13.980         55.83	     8.185
  14.000         68.33	     9.055
  14.020         77.50	     9.644
  14.040         40.83	     7.000
  14.060         43.33	     7.211
  14.080         45.00	     7.348
  14.100         35.00	     6.481
  14.120         50.00	     7.746
  14.140         37.50	     6.708
  14.160         44.17	     7.280
  14.180         25.83	     5.568
  14.200         35.00	     6.481
  14.220         39.17	     6.856
  14.240         30.00	     6.000
  14.260         37.50	     6.708
  14.280         37.50	     6.708
  14.300         38.33	     6.782
  14.320         24.17	     5.385
  14.340         29.17	     5.916
  14.360         36.67	     6.633
  14.380         37.50	     6.708
  14.400         35.83	     6.557
  14.420         43.33	     7.211
  14.440         35.83	     6.557
  14.460         29.17	     5.916
  14.480         26.67	     5.657
  14.500         33.33	     6.325
  14.520         36.67	     6.633
  14.540         42.50	     7.141
  14.560         40.00	     6.928
  14.580         26.67	     5.657
  14.600         30.00	     6.000
  14.620         34.17	     6.403
  14.640         32.50	     6.245
  14.660         23.33	     5.292
  14.680         35.83	     6.557
  14.700         30.83	     6.083
  14.720         27.50	     5.745
  14.740         40.00	     6.928
  14.760         30.00	     6.000
  14.780         31.67	     6.164
  14.800         32.50	     6.245
  14.820         32.50	     6.245
  14.840         28.33	     5.831
  14.860         35.00	     6.481
  14.880         30.00	     6.000
  14.900         29.17	     5.916
  14.920         32.50	     6.245
  14.940         30.83	     6.083
  14.960         36.67	     6.633
  14.980         36.67	     6.633
  15.000         35.00	     6.481
  15.020         40.00	     6.928
  15.040         39.17	     6.856
  15.060         32.50	     6.245
  15.080         48.33	     7.616
  15.100         45.00	     7.348
  15.120         54.17	     8.062
  15.140         72.50	     9.327
  15.160         40.83	     7.000
  15.180         44.17	     7.280
  15.200         43.33	     7.211
  15.220         38.33	     6.782
  15.240         34.17	     6.403
  15.260         25.00	     5.477
  15.280         32.50	     6.245
  15.300         37.50	     6.708
  15.320         36.67	     6.633
  15.340         29.17	     5.916
  15.360         40.00	     6.928
  15.380         38.33	     6.782
  15.400         29.17	     5.916
  15.420         33.33	     6.325
  15.440         27.50	     5.745
  15.460         35.00	     6.481
  15.480         26.67	     5.657
  15.500         36.67	     6.633
  15.520         31.67	     6.164
  15.540         30.83	     6.083
  15.560         24.17	     5.385
  15.580         33.33	     6.325
  15.600         25.00	     5.477
  15.620         28.33	     5.831
  15.640         35.00	     6.481
  15.660         35.00	     6.481
  15.680         33.33	     6.325
  15.700         24.17	     5.385
  15.720         40.00	     6.928
  15.740         32.50	     6.245
  15.760         34.17	     6.403
  15.780         27.50	     5.745
  15.800         40.83	     7.000
  15.820         25.00	     5.477
  15.840         32.50	     6.245
  15.860         40.83	     7.000
  15.880         30.00	     6.000
  15.900         49.17	     7.681
  15.920         40.00	     6.928
  15.940         53.33	     8.000
  15.960         50.00	     7.746
  15.980         65.83	     8.888
  16.000         58.33	     8.367
  16.020         43.33	     7.211
  16.040         35.83	     6.557
  16.060         26.67	     5.657
  16.080         31.67	     6.164
  16.100         33.33	     6.325
  16.120         35.83	     6.557
  16.140         35.83	     6.557
  16.160         30.00	     6.000
  16.180         30.00	     6.000
  16.200         32.50	     6.245
  16.220         23.33	     5.292
  16.240         35.83	     6.557
  16.260         25.83	     5.568
  16.280         30.00	     6.000
  16.300         24.17	     5.385
  16.320         38.33	     6.782
  16.340         37.50	     6.708
  16.360         27.50	     5.745
  16.380         27.50	     5.745
  16.400         30.83	     6.083
  16.420         35.83	     6.557
  16.440         29.17	     5.916
  16.460         19.17	     4.796
  16.480         30.00	     6.000
  16.500         25.83	     5.568
  16.520         38.33	     6.782
  16.540         34.17	     6.403
  16.560         42.50	     7.141
  16.580         30.00	     6.000
  16.600         35.00	     6.481
  16.620         26.67	     5.657
  16.640         30.00	     6.000
  16.660         34.17	     6.403
  16.680         30.00	     6.000
  16.700         32.50	     6.245
  16.720         24.17	     5.385
  16.740         37.50	     6.708
  16.760         35.83	     6.557
  16.780         35.83	     6.557
  16.800         31.67	     6.164
  16.820         37.50	     6.708
  16.840         25.00	     5.477
  16.860         31.67	     6.164
  16.880         20.00	     4.899
  16.900         30.00	     6.000
  16.920         25.83	     5.568
  16.940         27.50	     5.745
  16.960         27.50	     5.745
  16.980         28.33	     5.831
  17.000         29.17	     5.916
  17.020         28.33	     5.831
  17.040         25.83	     5.568
  17.060         30.00	     6.000
  17.080         30.83	     6.083
  17.100         36.67	     6.633
  17.120         25.83	     5.568
  17.140         35.00	     6.481
  17.160         43.33	     7.211
  17.180         28.33	     5.831
  17.200         35.83	     6.557
  17.220         32.50	     6.245
  17.240         30.83	     6.083
  17.260         25.83	     5.568
  17.280         27.50	     5.745
  17.300         30.83	     6.083
  17.320         20.83	     5.000
  17.340         19.17	     4.796
  17.360         29.17	     5.916
  17.380         35.83	     6.557
  17.400         28.33	     5.831
  17.420         34.17	     6.403
  17.440         32.50	     6.245
  17.460         29.17	     5.916
  17.480         35.83	     6.557
  17.500         30.00	     6.000
  17.520         36.67	     6.633
  17.540         33.33	     6.325
  17.560         29.17	     5.916
  17.580         25.83	     5.568
  17.600         52.50	     7.937
  17.620         77.50	     9.644
  17.640         66.67	     8.944
  17.660         54.17	     8.062
  17.680         45.83	     7.416
  17.700         39.17	     6.856
  17.720         33.33	     6.325
  17.740         37.50	     6.708
  17.760         45.83	     7.416
  17.780         48.33	     7.616
  17.800         40.83	     7.000
  17.820         46.67	     7.483
  17.840         53.33	     8.000
  17.860         72.50	     9.327
  17.880        105.00	    11.225
  17.900        135.00	    12.728
  17.920        165.83	    14.107
  17.940        172.50	    14.387
  17.960        213.33	    16.000
  17.980        144.17	    13.153
  18.000        140.00	    12.961
  18.020         92.50	    10.536
  18.040         72.50	     9.327
  18.060         59.17	     8.426
  18.080         39.17	     6.856
  18.100         36.67	     6.633
  18.120         45.00	     7.348
  18.140         33.33	     6.325
  18.160         28.33	     5.831
  18.180         28.33	     5.831
  18.200         43.33	     7.211
  18.220         34.17	     6.403
  18.240         32.50	     6.245
  18.260         34.17	     6.403
  18.280         33.33	     6.325
  18.300         31.67	     6.164
  18.320         40.83	     7.000
  18.340         34.17	     6.403
  18.360         28.33	     5.831
  18.380         35.00	     6.481
  18.400         35.83	     6.557
  18.420         37.50	     6.708
  18.440         43.33	     7.211
  18.460         37.50	     6.708
  18.480         36.67	     6.633
  18.500         45.00	     7.348
  18.520         48.33	     7.616
  18.540         56.67	     8.246
  18.560         41.67	     7.071
  18.580         46.67	     7.483
  18.600         39.17	     6.856
  18.620         69.17	     9.110
  18.640         73.33	     9.381
  18.660        104.17	    11.180
  18.680        113.33	    11.662
  18.700        109.17	    11.446
  18.720        101.67	    11.045
  18.740         88.33	    10.296
  18.760        105.83	    11.269
  18.780         79.17	     9.747
  18.800         73.33	     9.381
  18.820         71.67	     9.274
  18.840         89.17	    10.344
  18.860         90.00	    10.392
  18.880         82.50	     9.950
  18.900         83.33	    10.000
  18.920         93.33	    10.583
  18.940         85.00	    10.100
  18.960         81.67	     9.899
  18.980         70.00	     9.165
  19.000         59.17	     8.426
  19.020         44.17	     7.280
  19.040         45.83	     7.416
  19.060         40.83	     7.000
  19.080         48.33	     7.616
  19.100         25.00	     5.477
  19.120         28.33	     5.831
  19.140         47.50	     7.550
  19.160         30.83	     6.083
  19.180         33.33	     6.325
  19.200         32.50	     6.245
  19.220         29.17	     5.916
  19.240         27.50	     5.745
  19.260         37.50	     6.708
  19.280         46.67	     7.483
  19.300         41.67	     7.071
  19.320         32.50	     6.245
  19.340         46.67	     7.483
  19.360         47.50	     7.550
  19.380         47.50	     7.550
  19.400         42.50	     7.141
  19.420         47.50	     7.550
  19.440         45.00	     7.348
  19.460         42.50	     7.141
  19.480         51.67	     7.874
  19.500         35.00	     6.481
  19.520         35.00	     6.481
  19.540         52.50	     7.937
  19.560         41.67	     7.071
  19.580         35.83	     6.557
  19.600         38.33	     6.782
  19.620         40.83	     7.000
  19.640         41.67	     7.071
  19.660         35.83	     6.557
  19.680         39.17	     6.856
  19.700         31.67	     6.164
  19.720         46.67	     7.483
  19.740         45.83	     7.416
  19.760         50.83	     7.810
  19.780         41.67	     7.071
  19.800         55.00	     8.124
  19.820         52.50	     7.937
  19.840         66.67	     8.944
  19.860         68.33	     9.055
  19.880         69.17	     9.110
  19.900         65.83	     8.888
  19.920         63.33	     8.718
  19.940         72.50	     9.327
  19.960         71.67	     9.274
  19.980         65.00	     8.832
  20.000         63.33	     8.718
  20.020         55.00	     8.124
  20.040         47.50	     7.550
  20.060         54.17	     8.062
  20.080         60.00	     8.485
  20.100         42.50	     7.141
  20.120         45.00	     7.348
  20.140         35.83	     6.557
  20.160         33.33	     6.325
  20.180         35.00	     6.481
  20.200         32.50	     6.245
  20.220         50.00	     7.746
  20.240         38.33	     6.782
  20.260         38.33	     6.782
  20.280         37.50	     6.708
  20.300         33.33	     6.325
  20.320         38.33	     6.782
  20.340         43.33	     7.211
  20.360         30.00	     6.000
  20.380         25.00	     5.477
  20.400         37.50	     6.708
  20.420         29.17	     5.916
  20.440         28.33	     5.831
  20.460         30.00	     6.000
  20.480         30.00	     6.000
  20.500         43.33	     7.211
  20.520         39.17	     6.856
  20.540         30.00	     6.000
  20.560         37.50	     6.708
  20.580         35.83	     6.557
  20.600         40.00	     6.928
  20.620         33.33	     6.325
  20.640         45.83	     7.416
  20.660         40.83	     7.000
  20.680         40.83	     7.000
  20.700         31.67	     6.164
  20.720         46.67	     7.483
  20.740         48.33	     7.616
  20.760         58.33	     8.367
  20.780         47.50	     7.550
  20.800         55.83	     8.185
  20.820         80.83	     9.849
  20.840        110.00	    11.489
  20.860        146.67	    13.266
  20.880        170.00	    14.283
  20.900        156.67	    13.711
  20.920        189.17	    15.067
  20.940        352.50	    20.567
  20.960        457.50	    23.431
  20.980        402.50	    21.977
  21.000        340.83	    20.224
  21.020        305.83	    19.157
  21.040        219.17	    16.217
  21.060        150.83	    13.454
  21.080        110.83	    11.533
  21.100         66.67	     8.944
  21.120         63.33	     8.718
  21.140         58.33	     8.367
  21.160         55.83	     8.185
  21.180         63.33	     8.718
  21.200         65.83	     8.888
  21.220         55.00	     8.124
  21.240         55.83	     8.185
  21.260         40.00	     6.928
  21.280         35.00	     6.481
  21.300         40.83	     7.000
  21.320         35.83	     6.557
  21.340         39.17	     6.856
  21.360         41.67	     7.071
  21.380         40.83	     7.000
  21.400         32.50	     6.245
  21.420         40.83	     7.000
  21.440         37.50	     6.708
  21.460         30.00	     6.000
  21.480         37.50	     6.708
  21.500         34.17	     6.403
  21.520         37.50	     6.708
  21.540         35.00	     6.481
  21.560         35.83	     6.557
  21.580         45.00	     7.348
  21.600         37.50	     6.708
  21.620         32.50	     6.245
  21.640         36.67	     6.633
  21.660         35.83	     6.557
  21.680         39.17	     6.856
  21.700         37.50	     6.708
  21.720         35.00	     6.481
  21.740         34.17	     6.403
  21.760         43.33	     7.211
  21.780         32.50	     6.245
  21.800         40.83	     7.000
  21.820         30.83	     6.083
  21.840         35.00	     6.481
  21.860         30.83	     6.083
  21.880         35.00	     6.481
  21.900         25.83	     5.568
  21.920         27.50	     5.745
  21.940         35.83	     6.557
  21.960         47.50	     7.550
  21.980         44.17	     7.280
  22.000         39.17	     6.856
  22.020         45.83	     7.416
  22.040         63.33	     8.718
  22.060         69.17	     9.110
  22.080         55.83	     8.185
  22.100         90.83	    10.440
  22.120        127.50	    12.369
  22.140        140.00	    12.961
  22.160        167.50	    14.177
  22.180        144.17	    13.153
  22.200        121.67	    12.083
  22.220         91.67	    10.488
  22.240         89.17	    10.344
  22.260         56.67	     8.246
  22.280         50.00	     7.746
  22.300         47.50	     7.550
  22.320         50.83	     7.810
  22.340         45.83	     7.416
  22.360         44.17	     7.280
  22.380         33.33	     6.325
  22.400         44.17	     7.280
  22.420         43.33	     7.211
  22.440         26.67	     5.657
  22.460         35.00	     6.481
  22.480         35.00	     6.481
  22.500         35.83	     6.557
  22.520         34.17	     6.403
  22.540         31.67	     6.164
  22.560         40.83	     7.000
  22.580         46.67	     7.483
  22.600         40.00	     6.928
  22.620         35.00	     6.481
  22.640         48.33	     7.616
  22.660         38.33	     6.782
  22.680         31.67	     6.164
  22.700         40.00	     6.928
  22.720         39.17	     6.856
  22.740         30.00	     6.000
  22.760         45.00	     7.348
  22.780         40.00	     6.928
  22.800         29.17	     5.916
  22.820         44.17	     7.280
  22.840         30.00	     6.000
  22.860         38.33	     6.782
  22.880         35.00	     6.481
  22.900         37.50	     6.708
  22.920         49.17	     7.681
  22.940         57.50	     8.307
  22.960         71.67	     9.274
  22.980         66.67	     8.944
  23.000         67.50	     9.000
  23.020         70.00	     9.165
  23.040         56.67	     8.246
  23.060         64.17	     8.775
  23.080         59.17	     8.426
  23.100         62.50	     8.660
  23.120         61.67	     8.602
  23.140         64.17	     8.775
  23.160         70.00	     9.165
  23.180         55.00	     8.124
  23.200         68.33	     9.055
  23.220         65.83	     8.888
  23.240         41.67	     7.071
  23.260         56.67	     8.246
  23.280         40.00	     6.928
  23.300         30.83	     6.083
  23.320         30.83	     6.083
  23.340         35.00	     6.481
  23.360         35.83	     6.557
  23.380         48.33	     7.616
  23.400         45.00	     7.348
  23.420         44.17	     7.280
  23.440         37.50	     6.708
  23.460         45.83	     7.416
  23.480         40.00	     6.928
  23.500         45.83	     7.416
  23.520         42.50	     7.141
  23.540         33.33	     6.325
  23.560         43.33	     7.211
  23.580         36.67	     6.633
  23.600         60.00	     8.485
  23.620         60.00	     8.485
  23.640         71.67	     9.274
  23.660         76.67	     9.592
  23.680         71.67	     9.274
  23.700         73.33	     9.381
  23.720         70.00	     9.165
  23.740         70.83	     9.220
  23.760         64.17	     8.775
  23.780         69.17	     9.110
  23.800         65.83	     8.888
  23.820         60.00	     8.485
  23.840         65.83	     8.888
  23.860         55.00	     8.124
  23.880         40.83	     7.000
  23.900         50.83	     7.810
  23.920         55.00	     8.124
  23.940         57.50	     8.307
  23.960         49.17	     7.681
  23.980         59.17	     8.426
  24.000         46.67	     7.483
  24.020         61.67	     8.602
  24.040         58.33	     8.367
  24.060         67.50	     9.000
  24.080         67.50	     9.000
  24.100         72.50	     9.327
  24.120         60.00	     8.485
  24.140         69.17	     9.110
  24.160         75.00	     9.487
  24.180         61.67	     8.602
  24.200         60.00	     8.485
  24.220         69.17	     9.110
  24.240         63.33	     8.718
  24.260         76.67	     9.592
  24.280         90.00	    10.392
  24.300         71.67	     9.274
  24.320         82.50	     9.950
  24.340        100.00	    10.954
  24.360         96.67	    10.770
  24.380        125.00	    12.247
  24.400        145.00	    13.191
  24.420        176.67	    14.560
  24.440        140.83	    13.000
  24.460        117.50	    11.874
  24.480        124.17	    12.207
  24.500        100.83	    11.000
  24.520         98.33	    10.863
  24.540         76.67	     9.592
  24.560         79.17	     9.747
  24.580         64.17	     8.775
  24.600         77.50	     9.644
  24.620        121.67	    12.083
  24.640        140.00	    12.961
  24.660        175.00	    14.491
  24.680        208.33	    15.811
  24.700        269.17	    17.972
  24.720        284.17	    18.466
  24.740        274.17	    18.138
  24.760        282.50	    18.412
  24.780        233.33	    16.733
  24.800        214.17	    16.031
  24.820        153.33	    13.565
  24.840        162.50	    13.964
  24.860        121.67	    12.083
  24.880        103.33	    11.136
  24.900        116.67	    11.832
  24.920        117.50	    11.874
  24.940        150.00	    13.416
  24.960        155.00	    13.638
  24.980        150.00	    13.416
  25.000        129.17	    12.450
  25.020        119.17	    11.958
  25.040        130.83	    12.530
  25.060        104.17	    11.180
  25.080         90.00	    10.392
  25.100         94.17	    10.630
  25.120         97.50	    10.817
  25.140        104.17	    11.180
  25.160         90.00	    10.392
  25.180        106.67	    11.314
  25.200        138.33	    12.884
  25.220        153.33	    13.565
  25.240        159.17	    13.820
  25.260        152.50	    13.528
  25.280        177.50	    14.595
  25.300        161.67	    13.928
  25.320        189.17	    15.067
  25.340        153.33	    13.565
  25.360        127.50	    12.369
  25.380        115.83	    11.790
  25.400         98.33	    10.863
  25.420        105.00	    11.225
  25.440         89.17	    10.344
  25.460        116.67	    11.832
  25.480        130.83	    12.530
  25.500        523.33	    25.060
  25.520       1000.00	    34.641
  25.540       1023.33	    35.043
  25.560        546.67	    25.612
  25.580        615.83	    27.185
  25.600        583.33	    26.458
  25.620        365.00	    20.928
  25.640        216.67	    16.125
  25.660        169.17	    14.248
  25.680        130.00	    12.490
  25.700        153.33	    13.565
  25.720        114.17	    11.705
  25.740        112.50	    11.619
  25.760        102.50	    11.091
  25.780         79.17	     9.747
  25.800         69.17	     9.110
  25.820         72.50	     9.327
  25.840         67.50	     9.000
  25.860         60.83	     8.544
  25.880         57.50	     8.307
  25.900         55.83	     8.185
  25.920         53.33	     8.000
  25.940         45.83	     7.416
  25.960         50.83	     7.810
  25.980         60.83	     8.544
  26.000         46.67	     7.483
  26.020         49.17	     7.681
  26.040         47.50	     7.550
  26.060         36.67	     6.633
  26.080         38.33	     6.782
  26.100         50.00	     7.746
  26.120         47.50	     7.550
  26.140         46.67	     7.483
  26.160         44.17	     7.280
  26.180         50.83	     7.810
  26.200         39.17	     6.856
  26.220         53.33	     8.000
  26.240         49.17	     7.681
  26.260         55.00	     8.124
  26.280         55.00	     8.124
  26.300         66.67	     8.944
  26.320         55.00	     8.124
  26.340         66.67	     8.944
  26.360         66.67	     8.944
  26.380         61.67	     8.602
  26.400         73.33	     9.381
  26.420         71.67	     9.274
  26.440         77.50	     9.644
  26.460         90.00	    10.392
  26.480         94.17	    10.630
  26.500        110.83	    11.533
  26.520        142.50	    13.077
  26.540        143.33	    13.115
  26.560        160.83	    13.892
  26.580        183.33	    14.832
  26.600        260.83	    17.692
  26.620        526.67	    25.140
  26.640       1552.50	    43.162
  26.660       1882.50	    47.529
  26.680       1156.67	    37.256
  26.700       1471.67	    42.024
  26.720       2260.83	    52.086
  26.740       2177.50	    51.118
  26.760       2142.50	    50.705
  26.780       2085.00	    50.020
  26.800       1560.83	    43.278
  26.820       1135.83	    36.919
  26.840        983.33	    34.351
  26.860        647.50	    27.875
  26.880        366.67	    20.976
  26.900        320.00	    19.596
  26.920        328.33	    19.849
  26.940        330.00	    19.900
  26.960        399.17	    21.886
  26.980        556.67	    25.846
  27.000        600.83	    26.851
  27.020        521.67	    25.020
  27.040        455.83	    23.388
  27.060        375.00	    21.213
  27.080        290.83	    18.682
  27.100        228.33	    16.553
  27.120        157.50	    13.748
  27.140        125.00	    12.247
  27.160        116.67	    11.832
  27.180         81.67	     9.899
  27.200         95.83	    10.724
  27.220         89.17	    10.344
  27.240         77.50	     9.644
  27.260         94.17	    10.630
  27.280         90.00	    10.392
  27.300         94.17	    10.630
  27.320         80.00	     9.798
  27.340         62.50	     8.660
  27.360         73.33	     9.381
  27.380         79.17	     9.747
  27.400         64.17	     8.775
  27.420         71.67	     9.274
  27.440         66.67	     8.944
  27.460         58.33	     8.367
  27.480         72.50	     9.327
  27.500         72.50	     9.327
  27.520         75.83	     9.539
  27.540         95.00	    10.677
  27.560        120.00	    12.000
  27.580        119.17	    11.958
  27.600        100.83	    11.000
  27.620        112.50	    11.619
  27.640        109.17	    11.446
  27.660         90.83	    10.440
  27.680         94.17	    10.630
  27.700         84.17	    10.050
  27.720         76.67	     9.592
  27.740         77.50	     9.644
  27.760         70.00	     9.165
  27.780         84.17	    10.050
  27.800        125.00	    12.247
  27.820        136.67	    12.806
  27.840        176.67	    14.560
  27.860        196.67	    15.362
  27.880        218.33	    16.186
  27.900        184.17	    14.866
  27.920        185.00	    14.900
  27.940        220.83	    16.279
  27.960        239.17	    16.941
  27.980        254.17	    17.464
  28.000        330.83	    19.925
  28.020        415.83	    22.338
  28.040        451.67	    23.281
  28.060        469.17	    23.728
  28.080        402.50	    21.977
  28.100        306.67	    19.183
  28.120        303.33	    19.079
  28.140        285.00	    18.493
  28.160        169.17	    14.248
  28.180        123.33	    12.166
  28.200        126.67	    12.329
  28.220         95.83	    10.724
  28.240         93.33	    10.583
  28.260        105.83	    11.269
  28.280        101.67	    11.045
  28.300        112.50	    11.619
  28.320        120.00	    12.000
  28.340        120.83	    12.042
  28.360        124.17	    12.207
  28.380        134.17	    12.689
  28.400        130.00	    12.490
  28.420        130.00	    12.490
  28.440         99.17	    10.909
  28.460         91.67	    10.488
  28.480         70.00	     9.165
  28.500         75.00	     9.487
  28.520         57.50	     8.307
  28.540         44.17	     7.280
  28.560         53.33	     8.000
  28.580         42.50	     7.141
  28.600         50.00	     7.746
  28.620         79.17	     9.747
  28.640         81.67	     9.899
  28.660         97.50	    10.817
  28.680         85.00	    10.100
  28.700         92.50	    10.536
  28.720        114.17	    11.705
  28.740        122.50	    12.124
  28.760        115.83	    11.790
  28.780        129.17	    12.450
  28.800        105.00	    11.225
  28.820        108.33	    11.402
  28.840         96.67	    10.770
  28.860         75.00	     9.487
  28.880         53.33	     8.000
  28.900         49.17	     7.681
  28.920         56.67	     8.246
  28.940         59.17	     8.426
  28.960         39.17	     6.856
  28.980         44.17	     7.280
  29.000         32.50	     6.245
  29.020         52.50	     7.937
  29.040         45.00	     7.348
  29.060         49.17	     7.681
  29.080         41.67	     7.071
  29.100         40.00	     6.928
  29.120         38.33	     6.782
  29.140         28.33	     5.831
  29.160         33.33	     6.325
  29.180         37.50	     6.708
  29.200         29.17	     5.916
  29.220         40.00	     6.928
  29.240         36.67	     6.633
  29.260         37.50	     6.708
  29.280         34.17	     6.403
  29.300         35.83	     6.557
  29.320         33.33	     6.325
  29.340         31.67	     6.164
  29.360         47.50	     7.550
  29.380         30.00	     6.000
  29.400         30.83	     6.083
  29.420         37.50	     6.708
  29.440         33.33	     6.325
  29.460         32.50	     6.245
  29.480         40.00	     6.928
  29.500         34.17	     6.403
  29.520         41.67	     7.071
  29.540         30.00	     6.000
  29.560         33.33	     6.325
  29.580         32.50	     6.245
  29.600         30.00	     6.000
  29.620         36.67	     6.633
  29.640         22.50	     5.196
  29.660         32.50	     6.245
  29.680         32.50	     6.245
  29.700         29.17	     5.916
  29.720         44.17	     7.280
  29.740         52.50	     7.937
  29.760         40.83	     7.000
  29.780         40.83	     7.000
  29.800         43.33	     7.211
  29.820         47.50	     7.550
  29.840         55.00	     8.124
  29.860         53.33	     8.000
  29.880         67.50	     9.000
  29.900         47.50	     7.550
  29.920         78.33	     9.695
  29.940         78.33	     9.695
  29.960         87.50	    10.247
  29.980         95.83	    10.724
  30.000         74.17	     9.434
  30.020        102.50	    11.091
  30.040         97.50	    10.817
  30.060         75.83	     9.539
  30.080         60.00	     8.485
  30.100         68.33	     9.055
  30.120         74.17	     9.434
  30.140         63.33	     8.718
  30.160         58.33	     8.367
  30.180         65.00	     8.832
  30.200         69.17	     9.110
  30.220         96.67	    10.770
  30.240        104.17	    11.180
  30.260         99.17	    10.909
  30.280        150.83	    13.454
  30.300        249.17	    17.292
  30.320        205.00	    15.684
  30.340        205.83	    15.716
  30.360        228.33	    16.553
  30.380        191.67	    15.166
  30.400        210.83	    15.906
  30.420        142.50	    13.077
  30.440        126.67	    12.329
  30.460        115.83	    11.790
  30.480        122.50	    12.124
  30.500         89.17	    10.344
  30.520         91.67	    10.488
  30.540        116.67	    11.832
  30.560        130.83	    12.530
  30.580        189.17	    15.067
  30.600        206.67	    15.748
  30.620        178.33	    14.629
  30.640        139.17	    12.923
  30.660        132.50	    12.610
  30.680        124.17	    12.207
  30.700         82.50	     9.950
  30.720         73.33	     9.381
  30.740         64.17	     8.775
  30.760         52.50	     7.937
  30.780         39.17	     6.856
  30.800         49.17	     7.681
  30.820         54.17	     8.062
  30.840         41.67	     7.071
  30.860         58.33	     8.367
  30.880         66.67	     8.944
  30.900         59.17	     8.426
  30.920         70.83	     9.220
  30.940         71.67	     9.274
  30.960         68.33	     9.055
  30.980         65.00	     8.832
  31.000         61.67	     8.602
  31.020         72.50	     9.327
  31.040         52.50	     7.937
  31.060         83.33	    10.000
  31.080         67.50	     9.000
  31.100         75.83	     9.539
  31.120         89.17	    10.344
  31.140         65.83	     8.888
  31.160         87.50	    10.247
  31.180         72.50	     9.327
  31.200         68.33	     9.055
  31.220         68.33	     9.055
  31.240         71.67	     9.274
  31.260         65.83	     8.888
  31.280         73.33	     9.381
  31.300         85.83	    10.149
  31.320         96.67	    10.770
  31.340        109.17	    11.446
  31.360         90.00	    10.392
  31.380         87.50	    10.247
  31.400         87.50	    10.247
  31.420         81.67	     9.899
  31.440         80.83	     9.849
  31.460         60.00	     8.485
  31.480         70.83	     9.220
  31.500         58.33	     8.367
  31.520         44.17	     7.280
  31.540         54.17	     8.062
  31.560         39.17	     6.856
  31.580         46.67	     7.483
  31.600         64.17	     8.775
  31.620         46.67	     7.483
  31.640         54.17	     8.062
  31.660         61.67	     8.602
  31.680         51.67	     7.874
  31.700         63.33	     8.718
  31.720         54.17	     8.062
  31.740         52.50	     7.937
  31.760         50.83	     7.810
  31.780         42.50	     7.141
  31.800         38.33	     6.782
  31.820         38.33	     6.782
  31.840         45.00	     7.348
  31.860         40.83	     7.000
  31.880         34.17	     6.403
  31.900         40.83	     7.000
  31.920         36.67	     6.633
  31.940         36.67	     6.633
  31.960         40.83	     7.000
  31.980         37.50	     6.708
  32.000         40.00	     6.928
  32.020         29.17	     5.916
  32.040         38.33	     6.782
  32.060         50.83	     7.810
  32.080         41.67	     7.071
  32.100         33.33	     6.325
  32.120         47.50	     7.550
  32.140         44.17	     7.280
  32.160         55.83	     8.185
  32.180         55.83	     8.185
  32.200         49.17	     7.681
  32.220         65.00	     8.832
  32.240         59.17	     8.426
  32.260         79.17	     9.747
  32.280         70.83	     9.220
  32.300         60.83	     8.544
  32.320         54.17	     8.062
  32.340         65.00	     8.832
  32.360         48.33	     7.616
  32.380         59.17	     8.426
  32.400         55.00	     8.124
  32.420         50.00	     7.746
  32.440         60.00	     8.485
  32.460         60.83	     8.544
  32.480         40.00	     6.928
  32.500         40.83	     7.000
  32.520         47.50	     7.550
  32.540         39.17	     6.856
  32.560         48.33	     7.616
  32.580         43.33	     7.211
  32.600         32.50	     6.245
  32.620         41.67	     7.071
  32.640         32.50	     6.245
  32.660         30.83	     6.083
  32.680         37.50	     6.708
  32.700         30.00	     6.000
  32.720         25.83	     5.568
  32.740         31.67	     6.164
  32.760         27.50	     5.745
  32.780         37.50	     6.708
  32.800         28.33	     5.831
  32.820         30.83	     6.083
  32.840         35.00	     6.481
  32.860         25.83	     5.568
  32.880         37.50	     6.708
  32.900         24.17	     5.385
  32.920         37.50	     6.708
  32.940         37.50	     6.708
  32.960         41.67	     7.071
  32.980         37.50	     6.708
  33.000         43.33	     7.211
  33.020         43.33	     7.211
  33.040         39.17	     6.856
  33.060         40.00	     6.928
  33.080         60.83	     8.544
  33.100         48.33	     7.616
  33.120         56.67	     8.246
  33.140         61.67	     8.602
  33.160        125.83	    12.288
  33.180        145.83	    13.229
  33.200        145.83	    13.229
  33.220         92.50	    10.536
  33.240         88.33	    10.296
  33.260        103.33	    11.136
  33.280         86.67	    10.198
  33.300         70.00	     9.165
  33.320         45.00	     7.348
  33.340         35.83	     6.557
  33.360         35.00	     6.481
  33.380         35.00	     6.481
  33.400         45.00	     7.348
  33.420         39.17	     6.856
  33.440         38.33	     6.782
  33.460         32.50	     6.245
  33.480         42.50	     7.141
  33.500         40.00	     6.928
  33.520         34.17	     6.403
  33.540         48.33	     7.616
  33.560         26.67	     5.657
  33.580         35.83	     6.557
  33.600         45.83	     7.416
  33.620         49.17	     7.681
  33.640         52.50	     7.937
  33.660         50.83	     7.810
  33.680         35.00	     6.481
  33.700         34.17	     6.403
  33.720         34.17	     6.403
  33.740         40.83	     7.000
  33.760         31.67	     6.164
  33.780         33.33	     6.325
  33.800         39.17	     6.856
  33.820         30.00	     6.000
  33.840         30.83	     6.083
  33.860         20.83	     5.000
  33.880         30.83	     6.083
  33.900         21.67	     5.099
  33.920         35.00	     6.481
  33.940         42.50	     7.141
  33.960         40.83	     7.000
  33.980         40.83	     7.000
  34.000         51.67	     7.874
  34.020         61.67	     8.602
  34.040         59.17	     8.426
  34.060         55.83	     8.185
  34.080         57.50	     8.307
  34.100         52.50	     7.937
  34.120         51.67	     7.874
  34.140         66.67	     8.944
  34.160         44.17	     7.280
  34.180         50.83	     7.810
  34.200         28.33	     5.831
  34.220         40.00	     6.928
  34.240         42.50	     7.141
  34.260         40.00	     6.928
  34.280         40.00	     6.928
  34.300         44.17	     7.280
  34.320         36.67	     6.633
  34.340         40.83	     7.000
  34.360         48.33	     7.616
  34.380         31.67	     6.164
  34.400         39.17	     6.856
  34.420         44.17	     7.280
  34.440         37.50	     6.708
  34.460         38.33	     6.782
  34.480         42.50	     7.141
  34.500         47.50	     7.550
  34.520         38.33	     6.782
  34.540         55.00	     8.124
  34.560         77.50	     9.644
  34.580         82.50	     9.950
  34.600        106.67	    11.314
  34.620        105.83	    11.269
  34.640         98.33	    10.863
  34.660        106.67	    11.314
  34.680         95.83	    10.724
  34.700        150.00	    13.416
  34.720        127.50	    12.369
  34.740        107.50	    11.358
  34.760         96.67	    10.770
  34.780         95.83	    10.724
  34.800         90.83	    10.440
  34.820         75.83	     9.539
  34.840         74.17	     9.434
  34.860         60.00	     8.485
  34.880         62.50	     8.660
  34.900         60.83	     8.544
  34.920         85.00	    10.100
  34.940         56.67	     8.246
  34.960         91.67	    10.488
  34.980         95.83	    10.724
  35.000        100.00	    10.954
  35.020        110.00	    11.489
  35.040         95.83	    10.724
  35.060        110.83	    11.533
  35.080        110.83	    11.533
  35.100        110.00	    11.489
  35.120        105.83	    11.269
  35.140        135.00	    12.728
  35.160         88.33	    10.296
  35.180         95.00	    10.677
  35.200         91.67	    10.488
  35.220         85.00	    10.100
  35.240         90.00	    10.392
  35.260         69.17	     9.110
  35.280         70.00	     9.165
  35.300         60.00	     8.485
  35.320         69.17	     9.110
  35.340         73.33	     9.381
  35.360         73.33	     9.381
  35.380         74.17	     9.434
  35.400         90.00	    10.392
  35.420        105.83	    11.269
  35.440        104.17	    11.180
  35.460         87.50	    10.247
  35.480         91.67	    10.488
  35.500         90.83	    10.440
  35.520        121.67	    12.083
  35.540        147.50	    13.304
  35.560        201.67	    15.556
  35.580        267.50	    17.916
  35.600        277.50	    18.248
  35.620        242.50	    17.059
  35.640        225.00	    16.432
  35.660        240.83	    17.000
  35.680        270.83	    18.028
  35.700        208.33	    15.811
  35.720        176.67	    14.560
  35.740        155.00	    13.638
  35.760        141.67	    13.038
  35.780        116.67	    11.832
  35.800         97.50	    10.817
  35.820         93.33	    10.583
  35.840         93.33	    10.583
  35.860         60.00	     8.485
  35.880         59.17	     8.426
  35.900         84.17	    10.050
  35.920         70.83	     9.220
  35.940         55.00	     8.124
  35.960         57.50	     8.307
  35.980         55.00	     8.124
  36.000         53.33	     8.000
  36.020         54.17	     8.062
  36.040         50.00	     7.746
  36.060         50.00	     7.746
  36.080         48.33	     7.616
  36.100         62.50	     8.660
  36.120         41.67	     7.071
  36.140         49.17	     7.681
  36.160         48.33	     7.616
  36.180         65.83	     8.888
  36.200         71.67	     9.274
  36.220         65.00	     8.832
  36.240         60.00	     8.485
  36.260         65.83	     8.888
  36.280         60.83	     8.544
  36.300         45.83	     7.416
  36.320         50.83	     7.810
  36.340         54.17	     8.062
  36.360         52.50	     7.937
  36.380         52.50	     7.937
  36.400         35.83	     6.557
  36.420         41.67	     7.071
  36.440         52.50	     7.937
  36.460         41.67	     7.071
  36.480         50.00	     7.746
  36.500         44.17	     7.280
  36.520         70.83	     9.220
  36.540         70.83	     9.220
  36.560        100.83	    11.000
  36.580        141.67	    13.038
  36.600        180.83	    14.731
  36.620        171.67	    14.353
  36.640        175.83	    14.526
  36.660        205.00	    15.684
  36.680        218.33	    16.186
  36.700        172.50	    14.387
  36.720        133.33	    12.649
  36.740        131.67	    12.570
  36.760        135.00	    12.728
  36.780        116.67	    11.832
  36.800         95.83	    10.724
  36.820         71.67	     9.274
  36.840         75.83	     9.539
  36.860         60.00	     8.485
  36.880         53.33	     8.000
  36.900         60.00	     8.485
  36.920         51.67	     7.874
  36.940         38.33	     6.782
  36.960         43.33	     7.211
  36.980         41.67	     7.071
  37.000         44.17	     7.280
  37.020         40.83	     7.000
  37.040         42.50	     7.141
  37.060         42.50	     7.141
  37.080         36.67	     6.633
  37.100         33.33	     6.325
  37.120         33.33	     6.325
  37.140         45.00	     7.348
  37.160         40.83	     7.000
  37.180         29.17	     5.916
  37.200         54.17	     8.062
  37.220         40.00	     6.928
  37.240         40.83	     7.000
  37.260         35.83	     6.557
  37.280         51.67	     7.874
  37.300         52.50	     7.937
  37.320         60.83	     8.544
  37.340         48.33	     7.616
  37.360         37.50	     6.708
  37.380         49.17	     7.681
  37.400         57.50	     8.307
  37.420         43.33	     7.211
  37.440         55.83	     8.185
  37.460         55.83	     8.185
  37.480         72.50	     9.327
  37.500         61.67	     8.602
  37.520         55.00	     8.124
  37.540         70.83	     9.220
  37.560         65.00	     8.832
  37.580         60.83	     8.544
  37.600         62.50	     8.660
  37.620         77.50	     9.644
  37.640        106.67	    11.314
  37.660        130.83	    12.530
  37.680        142.50	    13.077
  37.700        123.33	    12.166
  37.720        112.50	    11.619
  37.740        110.83	    11.533
  37.760        107.50	    11.358
  37.780        110.83	    11.533
  37.800        100.83	    11.000
  37.820         80.83	     9.849
  37.840         70.00	     9.165
  37.860         75.83	     9.539
  37.880         68.33	     9.055
  37.900         70.00	     9.165
  37.920         46.67	     7.483
  37.940         50.83	     7.810
  37.960         54.17	     8.062
  37.980         44.17	     7.280
  38.000         41.67	     7.071
  38.020         43.33	     7.211
  38.040         40.83	     7.000
  38.060         39.17	     6.856
  38.080         25.83	     5.568
  38.100         28.33	     5.831
  38.120         37.50	     6.708
  38.140         34.17	     6.403
  38.160         26.67	     5.657
  38.180         27.50	     5.745
  38.200         27.50	     5.745
  38.220         37.50	     6.708
  38.240         30.00	     6.000
  38.260         29.17	     5.916
  38.280         27.50	     5.745
  38.300         40.00	     6.928
  38.320         29.17	     5.916
  38.340         47.50	     7.550
  38.360         36.67	     6.633
  38.380         35.00	     6.481
  38.400         30.00	     6.000
  38.420         34.17	     6.403
  38.440         39.17	     6.856
  38.460         33.33	     6.325
  38.480         34.17	     6.403
  38.500         30.00	     6.000
  38.520         33.33	     6.325
  38.540         32.50	     6.245
  38.560         40.83	     7.000
  38.580         35.83	     6.557
  38.600         37.50	     6.708
  38.620         47.50	     7.550
  38.640         36.67	     6.633
  38.660         35.83	     6.557
  38.680         34.17	     6.403
  38.700         44.17	     7.280
  38.720         38.33	     6.782
  38.740         26.67	     5.657
  38.760         20.83	     5.000
  38.780         34.17	     6.403
  38.800         30.83	     6.083
  38.820         35.00	     6.481
  38.840         38.33	     6.782
  38.860         20.00	     4.899
  38.880         42.50	     7.141
  38.900         44.17	     7.280
  38.920         50.83	     7.810
  38.940         40.83	     7.000
  38.960         30.00	     6.000
  38.980         45.00	     7.348
  39.000         44.17	     7.280
  39.020         41.67	     7.071
  39.040         34.17	     6.403
  39.060         43.33	     7.211
  39.080         41.67	     7.071
  39.100         35.83	     6.557
  39.120         38.33	     6.782
  39.140         30.83	     6.083
  39.160         36.67	     6.633
  39.180         44.17	     7.280
  39.200         34.17	     6.403
  39.220         40.00	     6.928
  39.240         31.67	     6.164
  39.260         43.33	     7.211
  39.280         25.83	     5.568
  39.300         29.17	     5.916
  39.320         30.00	     6.000
  39.340         33.33	     6.325
  39.360         34.17	     6.403
  39.380         25.00	     5.477
  39.400         30.00	     6.000
  39.420         34.17	     6.403
  39.440         50.00	     7.746
  39.460         70.00	     9.165
  39.480         56.67	     8.246
  39.500         62.50	     8.660
  39.520        128.33	    12.410
  39.540        157.50	    13.748
  39.560        155.00	    13.638
  39.580        164.17	    14.036
  39.600        140.00	    12.961
  39.620        140.00	    12.961
  39.640        140.83	    13.000
  39.660        137.50	    12.845
  39.680        112.50	    11.619
  39.700         85.83	    10.149
  39.720         77.50	     9.644
  39.740         65.83	     8.888
  39.760         60.83	     8.544
  39.780         65.00	     8.832
  39.800         55.83	     8.185
  39.820         46.67	     7.483
  39.840         50.00	     7.746
  39.860         52.50	     7.937
  39.880         50.00	     7.746
  39.900         47.50	     7.550
  39.920         45.00	     7.348
  39.940         34.17	     6.403
  39.960         30.83	     6.083
  39.980         30.00	     6.000
  40.000         48.33	     7.616
  40.020         35.00	     6.481
  40.040         31.67	     6.164
  40.060         32.50	     6.245
  40.080         33.33	     6.325
  40.100         39.17	     6.856
  40.120         31.67	     6.164
  40.140         31.67	     6.164
  40.160         44.17	     7.280
  40.180         35.83	     6.557
  40.200         44.17	     7.280
  40.220         50.00	     7.746
  40.240         35.00	     6.481
  40.260         35.83	     6.557
  40.280         47.50	     7.550
  40.300         50.00	     7.746
  40.320         75.00	     9.487
  40.340         90.00	    10.392
  40.360        139.17	    12.923
  40.380        167.50	    14.177
  40.400        142.50	    13.077
  40.420        125.00	    12.247
  40.440        103.33	    11.136
  40.460        109.17	    11.446
  40.480        112.50	    11.619
  40.500        102.50	    11.091
  40.520         72.50	     9.327
  40.540         61.67	     8.602
  40.560         45.83	     7.416
  40.580         35.83	     6.557
  40.600         36.67	     6.633
  40.620         43.33	     7.211
  40.640         31.67	     6.164
  40.660         45.00	     7.348
  40.680         29.17	     5.916
  40.700         30.00	     6.000
  40.720         43.33	     7.211
  40.740         19.17	     4.796
  40.760         24.17	     5.385
  40.780         30.83	     6.083
  40.800         28.33	     5.831
  40.820         26.67	     5.657
  40.840         31.67	     6.164
  40.860         29.17	     5.916
  40.880         33.33	     6.325
  40.900         36.67	     6.633
  40.920         44.17	     7.280
  40.940         30.83	     6.083
  40.960         25.83	     5.568
  40.980         45.83	     7.416
  41.000         41.67	     7.071
  41.020         36.67	     6.633
  41.040         33.33	     6.325
  41.060         41.67	     7.071
  41.080         36.67	     6.633
  41.100         28.33	     5.831
  41.120         30.00	     6.000
  41.140         48.33	     7.616
  41.160         45.83	     7.416
  41.180         46.67	     7.483
  41.200         38.33	     6.782
  41.220         43.33	     7.211
  41.240         50.83	     7.810
  41.260         45.83	     7.416
  41.280         47.50	     7.550
  41.300         48.33	     7.616
  41.320         54.17	     8.062
  41.340         54.17	     8.062
  41.360         55.83	     8.185
  41.380         52.50	     7.937
  41.400         55.00	     8.124
  41.420         47.50	     7.550
  41.440         44.17	     7.280
  41.460         49.17	     7.681
  41.480         51.67	     7.874
  41.500         50.83	     7.810
  41.520         40.83	     7.000
  41.540         37.50	     6.708
  41.560         32.50	     6.245
  41.580         32.50	     6.245
  41.600         37.50	     6.708
  41.620         40.00	     6.928
  41.640         35.00	     6.481
  41.660         32.50	     6.245
  41.680         39.17	     6.856
  41.700         44.17	     7.280
  41.720         61.67	     8.602
  41.740         55.00	     8.124
  41.760         80.83	     9.849
  41.780         69.17	     9.110
  41.800         83.33	    10.000
  41.820         66.67	     8.944
  41.840         67.50	     9.000
  41.860         75.00	     9.487
  41.880         69.17	     9.110
  41.900         63.33	     8.718
  41.920         69.17	     9.110
  41.940         55.00	     8.124
  41.960         71.67	     9.274
  41.980         75.00	     9.487
  42.000         80.00	     9.798
  42.020         55.00	     8.124
  42.040         66.67	     8.944
  42.060         55.00	     8.124
  42.080         61.67	     8.602
  42.100         67.50	     9.000
  42.120         68.33	     9.055
  42.140         52.50	     7.937
  42.160         65.00	     8.832
  42.180         45.00	     7.348
  42.200         62.50	     8.660
  42.220         46.67	     7.483
  42.240         51.67	     7.874
  42.260         44.17	     7.280
  42.280         39.17	     6.856
  42.300         36.67	     6.633
  42.320         44.17	     7.280
  42.340         47.50	     7.550
  42.360         40.83	     7.000
  42.380         35.00	     6.481
  42.400         39.17	     6.856
  42.420         42.50	     7.141
  42.440         53.33	     8.000
  42.460         60.83	     8.544
  42.480         62.50	     8.660
  42.500         83.33	    10.000
  42.520        140.83	    13.000
  42.540        171.67	    14.353
  42.560        158.33	    13.784
  42.580        140.83	    13.000
  42.600        108.33	    11.402
  42.620        106.67	    11.314
  42.640        114.17	    11.705
  42.660         96.67	    10.770
  42.680         94.17	    10.630
  42.700         86.67	    10.198
  42.720         56.67	     8.246
  42.740         62.50	     8.660
  42.760         53.33	     8.000
  42.780         46.67	     7.483
  42.800         34.17	     6.403
  42.820         37.50	     6.708
  42.840         35.00	     6.481
  42.860         46.67	     7.483
  42.880         25.83	     5.568
  42.900         42.50	     7.141
  42.920         50.00	     7.746
  42.940         45.00	     7.348
  42.960         42.50	     7.141
  42.980         40.83	     7.000
  43.000         47.50	     7.550
  43.020         35.00	     6.481
  43.040         42.50	     7.141
  43.060         39.17	     6.856
  43.080         47.50	     7.550
  43.100         58.33	     8.367
  43.120         49.17	     7.681
  43.140         50.83	     7.810
  43.160         40.00	     6.928
  43.180         30.83	     6.083
  43.200         34.17	     6.403
  43.220         43.33	     7.211
  43.240         40.83	     7.000
  43.260         35.83	     6.557
  43.280         39.17	     6.856
  43.300         28.33	     5.831
  43.320         30.83	     6.083
  43.340         26.67	     5.657
  43.360         32.50	     6.245
  43.380         30.83	     6.083
  43.400         27.50	     5.745
  43.420         35.83	     6.557
  43.440         32.50	     6.245
  43.460         24.17	     5.385
  43.480         28.33	     5.831
  43.500         18.33	     4.690
  43.520         30.00	     6.000
  43.540         26.67	     5.657
  43.560         32.50	     6.245
  43.580         30.83	     6.083
  43.600         26.67	     5.657
  43.620         30.00	     6.000
  43.640         30.83	     6.083
  43.660         39.17	     6.856
  43.680         35.00	     6.481
  43.700         27.50	     5.745
  43.720         29.17	     5.916
  43.740         30.83	     6.083
  43.760         41.67	     7.071
  43.780         32.50	     6.245
  43.800         31.67	     6.164
  43.820         34.17	     6.403
  43.840         40.00	     6.928
  43.860         35.83	     6.557
  43.880         40.83	     7.000
  43.900         34.17	     6.403
  43.920         34.17	     6.403
  43.940         25.00	     5.477
  43.960         20.83	     5.000
  43.980         35.83	     6.557
  44.000         35.83	     6.557
  44.020         24.17	     5.385
  44.040         27.50	     5.745
  44.060         30.00	     6.000
  44.080         20.00	     4.899
  44.100         33.33	     6.325
  44.120         29.17	     5.916
  44.140         30.83	     6.083
  44.160         30.83	     6.083
  44.180         28.33	     5.831
  44.200         40.00	     6.928
  44.220         32.50	     6.245
  44.240         35.83	     6.557
  44.260         35.00	     6.481
  44.280         27.50	     5.745
  44.300         30.83	     6.083
  44.320         30.83	     6.083
  44.340         36.67	     6.633
  44.360         31.67	     6.164
  44.380         30.00	     6.000
  44.400         41.67	     7.071
  44.420         33.33	     6.325
  44.440         20.83	     5.000
  44.460         26.67	     5.657
  44.480         19.17	     4.796
  44.500         39.17	     6.856
  44.520         25.83	     5.568
  44.540         26.67	     5.657
  44.560         25.00	     5.477
  44.580         30.00	     6.000
  44.600         21.67	     5.099
  44.620         22.50	     5.196
  44.640         30.83	     6.083
  44.660         30.00	     6.000
  44.680         25.83	     5.568
  44.700         30.83	     6.083
  44.720         25.00	     5.477
  44.740         34.17	     6.403
  44.760         22.50	     5.196
  44.780         38.33	     6.782
  44.800         25.00	     5.477
  44.820         21.67	     5.099
  44.840         30.00	     6.000
  44.860         36.67	     6.633
  44.880         31.67	     6.164
  44.900         32.50	     6.245
  44.920         37.50	     6.708
  44.940         39.17	     6.856
  44.960         27.50	     5.745
  44.980         46.67	     7.483
  45.000         50.00	     7.746
  45.020         43.33	     7.211
  45.040         47.50	     7.550
  45.060         57.50	     8.307
  45.080         44.17	     7.280
  45.100         51.67	     7.874
  45.120         58.33	     8.367
  45.140         47.50	     7.550
  45.160         48.33	     7.616
  45.180         66.67	     8.944
  45.200         63.33	     8.718
  45.220         55.83	     8.185
  45.240         54.17	     8.062
  45.260         39.17	     6.856
  45.280         50.83	     7.810
  45.300         37.50	     6.708
  45.320         45.00	     7.348
  45.340         51.67	     7.874
  45.360         55.83	     8.185
  45.380         42.50	     7.141
  45.400         52.50	     7.937
  45.420         44.17	     7.280
  45.440         43.33	     7.211
  45.460         53.33	     8.000
  45.480         48.33	     7.616
  45.500         59.17	     8.426
  45.520         53.33	     8.000
  45.540         71.67	     9.274
  45.560         69.17	     9.110
  45.580         81.67	     9.899
  45.600         97.50	    10.817
  45.620         94.17	    10.630
  45.640        116.67	    11.832
  45.660        165.00	    14.071
  45.680        169.17	    14.248
  45.700        161.67	    13.928
  45.720        172.50	    14.387
  45.740        168.33	    14.213
  45.760        170.00	    14.283
  45.780        153.33	    13.565
  45.800        149.17	    13.379
  45.820        141.67	    13.038
  45.840        160.83	    13.892
  45.860        201.67	    15.556
  45.880        257.50	    17.578
  45.900        211.67	    15.937
  45.920        157.50	    13.748
  45.940        125.00	    12.247
  45.960         99.17	    10.909
  45.980        100.00	    10.954
  46.000        131.67	    12.570
  46.020        116.67	    11.832
  46.040        104.17	    11.180
  46.060         60.83	     8.544
  46.080         45.83	     7.416
  46.100         46.67	     7.483
  46.120         43.33	     7.211
  46.140         39.17	     6.856
  46.160         32.50	     6.245
  46.180         40.83	     7.000
  46.200         51.67	     7.874
  46.220         33.33	     6.325
  46.240         38.33	     6.782
  46.260         39.17	     6.856
  46.280         57.50	     8.307
  46.300         56.67	     8.246
  46.320         45.00	     7.348
  46.340         28.33	     5.831
  46.360         41.67	     7.071
  46.380         31.67	     6.164
  46.400         41.67	     7.071
  46.420         40.00	     6.928
  46.440         27.50	     5.745
  46.460         35.00	     6.481
  46.480         19.17	     4.796
  46.500         36.67	     6.633
  46.520         31.67	     6.164
  46.540         26.67	     5.657
  46.560         30.00	     6.000
  46.580         23.33	     5.292
  46.600         25.00	     5.477
  46.620         32.50	     6.245
  46.640         34.17	     6.403
  46.660         33.33	     6.325
  46.680         31.67	     6.164
  46.700         25.83	     5.568
  46.720         35.83	     6.557
  46.740         30.00	     6.000
  46.760         27.50	     5.745
  46.780         31.67	     6.164
  46.800         27.50	     5.745
  46.820         31.67	     6.164
  46.840         29.17	     5.916
  46.860         24.17	     5.385
  46.880         26.67	     5.657
  46.900         33.33	     6.325
  46.920         29.17	     5.916
  46.940         25.00	     5.477
  46.960         23.33	     5.292
  46.980         25.83	     5.568
  47.000         25.00	     5.477
  47.020         26.67	     5.657
  47.040         28.33	     5.831
  47.060         35.83	     6.557
  47.080         22.50	     5.196
  47.100         33.33	     6.325
  47.120         31.67	     6.164
  47.140         33.33	     6.325
  47.160         42.50	     7.141
  47.180         31.67	     6.164
  47.200         47.50	     7.550
  47.220         63.33	     8.718
  47.240         45.83	     7.416
  47.260         51.67	     7.874
  47.280         40.83	     7.000
  47.300         35.83	     6.557
  47.320         38.33	     6.782
  47.340         31.67	     6.164
  47.360         53.33	     8.000
  47.380         35.83	     6.557
  47.400         32.50	     6.245
  47.420         26.67	     5.657
  47.440         29.17	     5.916
  47.460         33.33	     6.325
  47.480         28.33	     5.831
  47.500         26.67	     5.657
  47.520         23.33	     5.292
  47.540         21.67	     5.099
  47.560         25.83	     5.568
  47.580         22.50	     5.196
  47.600         20.00	     4.899
  47.620         31.67	     6.164
  47.640         22.50	     5.196
  47.660         20.83	     5.000
  47.680         27.50	     5.745
  47.700         20.83	     5.000
  47.720         28.33	     5.831
  47.740         23.33	     5.292
  47.760         27.50	     5.745
  47.780         20.00	     4.899
  47.800         28.33	     5.831
  47.820         35.83	     6.557
  47.840         22.50	     5.196
  47.860         34.17	     6.403
  47.880         33.33	     6.325
  47.900         26.67	     5.657
  47.920         26.67	     5.657
  47.940         25.83	     5.568
  47.960         20.83	     5.000
  47.980         36.67	     6.633
  48.000         29.17	     5.916
  48.020         30.00	     6.000
  48.040         42.50	     7.141
  48.060         31.67	     6.164
  48.080         52.50	     7.937
  48.100         55.83	     8.185
  48.120         36.67	     6.633
  48.140         24.17	     5.385
  48.160         39.17	     6.856
  48.180         31.67	     6.164
  48.200         48.33	     7.616
  48.220         36.67	     6.633
  48.240         42.50	     7.141
  48.260         43.33	     7.211
  48.280         37.50	     6.708
  48.300         34.17	     6.403
  48.320         36.67	     6.633
  48.340         36.67	     6.633
  48.360         35.83	     6.557
  48.380         55.00	     8.124
  48.400         39.17	     6.856
  48.420         31.67	     6.164
  48.440         36.67	     6.633
  48.460         43.33	     7.211
  48.480         28.33	     5.831
  48.500         28.33	     5.831
  48.520         36.67	     6.633
  48.540         37.50	     6.708
  48.560         30.83	     6.083
  48.580         34.17	     6.403
  48.600         28.33	     5.831
  48.620         29.17	     5.916
  48.640         33.33	     6.325
  48.660         37.50	     6.708
  48.680         45.00	     7.348
  48.700         50.83	     7.810
  48.720         44.17	     7.280
  48.740         30.00	     6.000
  48.760         43.33	     7.211
  48.780         35.83	     6.557
  48.800         40.00	     6.928
  48.820         50.00	     7.746
  48.840         39.17	     6.856
  48.860         45.83	     7.416
  48.880         30.83	     6.083
  48.900         37.50	     6.708
  48.920         40.83	     7.000
  48.940         36.67	     6.633
  48.960         29.17	     5.916
  48.980         42.50	     7.141
  49.000         39.17	     6.856
  49.020         43.33	     7.211
  49.040         40.00	     6.928
  49.060         38.33	     6.782
  49.080         46.67	     7.483
  49.100         62.50	     8.660
  49.120         52.50	     7.937
  49.140         41.67	     7.071
  49.160         45.83	     7.416
  49.180         36.67	     6.633
  49.200         38.33	     6.782
  49.220         42.50	     7.141
  49.240         44.17	     7.280
  49.260         59.17	     8.426
  49.280         41.67	     7.071
  49.300         63.33	     8.718
  49.320         51.67	     7.874
  49.340         46.67	     7.483
  49.360         50.83	     7.810
  49.380         34.17	     6.403
  49.400         39.17	     6.856
  49.420         40.00	     6.928
  49.440         52.50	     7.937
  49.460         40.83	     7.000
  49.480         44.17	     7.280
  49.500         34.17	     6.403
  49.520         42.50	     7.141
  49.540         34.17	     6.403
  49.560         38.33	     6.782
  49.580         36.67	     6.633
  49.600         54.17	     8.062
  49.620         56.67	     8.246
  49.640         50.00	     7.746
  49.660         45.83	     7.416
  49.680         52.50	     7.937
  49.700         67.50	     9.000
  49.720         79.17	     9.747
  49.740        101.67	    11.045
  49.760         62.50	     8.660
  49.780         49.17	     7.681
  49.800         58.33	     8.367
  49.820         64.17	     8.775
  49.840         68.33	     9.055
  49.860         86.67	    10.198
  49.880         63.33	     8.718
  49.900         57.50	     8.307
  49.920         65.00	     8.832
  49.940         71.67	     9.274
  49.960         74.17	     9.434
  49.980         86.67	    10.198
  50.000         94.17	    10.630
  50.020        160.00	    13.856
  50.040        240.83	    17.000
  50.060        317.50	    19.519
  50.080        316.67	    19.494
  50.100        213.33	    16.000
  50.120        136.67	    12.806
  50.140        169.17	    14.248
  50.160        243.33	    17.088
  50.180        363.33	    20.881
  50.200        422.50	    22.517
  50.220        393.33	    21.726
  50.240        531.67	    25.259
  50.260        673.33	    28.425
  50.280        906.67	    32.985
  50.300        846.67	    31.875
  50.320        544.17	    25.554
  50.340        301.67	    19.026
  50.360        280.00	    18.330
  50.380        317.50	    19.519
  50.400        456.67	    23.409
  50.420        504.17	    24.597
  50.440        363.33	    20.881
  50.460        241.67	    17.029
  50.480        115.00	    11.747
  50.500         82.50	     9.950
  50.520         70.83	     9.220
  50.540         60.83	     8.544
  50.560         59.17	     8.426
  50.580         77.50	     9.644
  50.600         68.33	     9.055
  50.620         57.50	     8.307
  50.640         57.50	     8.307
  50.660         71.67	     9.274
  50.680         75.83	     9.539
  50.700         84.17	    10.050
  50.720         75.00	     9.487
  50.740         58.33	     8.367
  50.760         55.00	     8.124
  50.780         60.00	     8.485
  50.800         69.17	     9.110
  50.820         66.67	     8.944
  50.840         60.00	     8.485
  50.860         47.50	     7.550
  50.880         35.00	     6.481
  50.900         30.83	     6.083
  50.920         35.83	     6.557
  50.940         38.33	     6.782
  50.960         38.33	     6.782
  50.980         40.00	     6.928
  51.000         40.83	     7.000
  51.020         38.33	     6.782
  51.040         30.00	     6.000
  51.060         30.83	     6.083
  51.080         30.00	     6.000
  51.100         30.83	     6.083
  51.120         28.33	     5.831
  51.140         38.33	     6.782
  51.160         45.00	     7.348
  51.180         40.83	     7.000
  51.200         48.33	     7.616
  51.220         46.67	     7.483
  51.240         33.33	     6.325
  51.260         60.00	     8.485
  51.280         41.67	     7.071
  51.300         45.83	     7.416
  51.320         57.50	     8.307
  51.340         46.67	     7.483
  51.360         42.50	     7.141
  51.380         50.83	     7.810
  51.400         48.33	     7.616
  51.420         41.67	     7.071
  51.440         33.33	     6.325
  51.460         50.00	     7.746
  51.480         40.83	     7.000
  51.500         36.67	     6.633
  51.520         30.00	     6.000
  51.540         25.00	     5.477
  51.560         26.67	     5.657
  51.580         26.67	     5.657
  51.600         30.83	     6.083
  51.620         25.00	     5.477
  51.640         25.00	     5.477
  51.660         25.83	     5.568
  51.680         33.33	     6.325
  51.700         21.67	     5.099
  51.720         25.00	     5.477
  51.740         29.17	     5.916
  51.760         23.33	     5.292
  51.780         30.83	     6.083
  51.800         25.00	     5.477
  51.820         25.83	     5.568
  51.840         28.33	     5.831
  51.860         26.67	     5.657
  51.880         22.50	     5.196
  51.900         26.67	     5.657
  51.920         25.83	     5.568
  51.940         32.50	     6.245
  51.960         29.17	     5.916
  51.980         27.50	     5.745
  52.000         36.67	     6.633
  52.020         19.17	     4.796
  52.040         27.50	     5.745
  52.060         18.33	     4.690
  52.080         32.50	     6.245
  52.100         31.67	     6.164
  52.120         31.67	     6.164
  52.140         27.50	     5.745
  52.160         26.67	     5.657
  52.180         33.33	     6.325
  52.200         48.33	     7.616
  52.220         40.83	     7.000
  52.240         45.00	     7.348
  52.260         49.17	     7.681
  52.280         54.17	     8.062
  52.300         71.67	     9.274
  52.320        115.00	    11.747
  52.340        118.33	    11.916
  52.360         90.00	    10.392
  52.380         57.50	     8.307
  52.400         65.83	     8.888
  52.420         80.83	     9.849
  52.440        138.33	    12.884
  52.460        271.67	    18.055
  52.480        408.33	    22.136
  52.500        350.00	    20.494
  52.520        205.00	    15.684
  52.540        134.17	    12.689
  52.560         95.83	    10.724
  52.580        147.50	    13.304
  52.600        250.83	    17.349
  52.620        290.00	    18.655
  52.640        238.33	    16.912
  52.660        144.17	    13.153
  52.680        112.50	    11.619
  52.700         62.50	     8.660
  52.720         68.33	     9.055
  52.740         75.00	     9.487
  52.760         86.67	    10.198
  52.780         69.17	     9.110
  52.800         49.17	     7.681
  52.820         39.17	     6.856
  52.840         38.33	     6.782
  52.860         38.33	     6.782
  52.880         29.17	     5.916
  52.900         33.33	     6.325
  52.920         40.00	     6.928
  52.940         30.00	     6.000
  52.960         39.17	     6.856
  52.980         40.83	     7.000
  53.000         47.50	     7.550
  53.020         34.17	     6.403
  53.040         25.83	     5.568
  53.060         27.50	     5.745
  53.080         37.50	     6.708
  53.100         25.83	     5.568
  53.120         36.67	     6.633
  53.140         33.33	     6.325
  53.160         43.33	     7.211
  53.180         36.67	     6.633
  53.200         41.67	     7.071
  53.220         35.00	     6.481
  53.240         41.67	     7.071
  53.260         43.33	     7.211
  53.280         39.17	     6.856
  53.300         35.00	     6.481
  53.320         45.83	     7.416
  53.340         40.83	     7.000
  53.360         45.83	     7.416
  53.380         27.50	     5.745
  53.400         40.00	     6.928
  53.420         27.50	     5.745
  53.440         35.83	     6.557
  53.460         35.00	     6.481
  53.480         32.50	     6.245
  53.500         42.50	     7.141
  53.520         34.17	     6.403
  53.540         36.67	     6.633
  53.560         28.33	     5.831
  53.580         34.17	     6.403
  53.600         38.33	     6.782
  53.620         22.50	     5.196
  53.640         30.83	     6.083
  53.660         33.33	     6.325
  53.680         22.50	     5.196
  53.700         35.83	     6.557
  53.720         34.17	     6.403
  53.740         40.00	     6.928
  53.760         32.50	     6.245
  53.780         30.83	     6.083
  53.800         36.67	     6.633
  53.820         44.17	     7.280
  53.840         45.83	     7.416
  53.860         32.50	     6.245
  53.880         36.67	     6.633
  53.900         46.67	     7.483
  53.920         42.50	     7.141
  53.940         44.17	     7.280
  53.960         42.50	     7.141
  53.980         45.00	     7.348
  54.000         30.83	     6.083
  54.020         39.17	     6.856
  54.040         31.67	     6.164
  54.060         37.50	     6.708
  54.080         32.50	     6.245
  54.100         33.33	     6.325
  54.120         30.00	     6.000
  54.140         31.67	     6.164
  54.160         23.33	     5.292
  54.180         28.33	     5.831
  54.200         27.50	     5.745
  54.220         30.83	     6.083
  54.240         20.83	     5.000
  54.260         28.33	     5.831
  54.280         35.83	     6.557
  54.300         22.50	     5.196
  54.320         34.17	     6.403
  54.340         31.67	     6.164
  54.360         41.67	     7.071
  54.380         42.50	     7.141
  54.400         36.67	     6.633
  54.420         35.83	     6.557
  54.440         44.17	     7.280
  54.460         46.67	     7.483
  54.480         35.83	     6.557
  54.500         35.83	     6.557
  54.520         43.33	     7.211
  54.540         31.67	     6.164
  54.560         39.17	     6.856
  54.580         26.67	     5.657
  54.600         37.50	     6.708
  54.620         33.33	     6.325
  54.640         32.50	     6.245
  54.660         39.17	     6.856
  54.680         35.83	     6.557
  54.700         29.17	     5.916
  54.720         39.17	     6.856
  54.740         29.17	     5.916
  54.760         36.67	     6.633
  54.780         25.00	     5.477
  54.800         25.00	     5.477
  54.820         34.17	     6.403
  54.840         32.50	     6.245
  54.860         43.33	     7.211
  54.880         53.33	     8.000
  54.900         52.50	     7.937
  54.920         74.17	     9.434
  54.940         91.67	    10.488
  54.960         83.33	    10.000
  54.980        106.67	    11.314
  55.000         90.00	    10.392
  55.020         92.50	    10.536
  55.040         63.33	     8.718
  55.060         68.33	     9.055
  55.080         55.00	     8.124
  55.100         55.00	     8.124
  55.120         81.67	     9.899
  55.140         68.33	     9.055
  55.160         55.00	     8.124
  55.180         52.50	     7.937
  55.200         39.17	     6.856
  55.220         46.67	     7.483
  55.240         40.00	     6.928
  55.260         39.17	     6.856
  55.280         44.17	     7.280
  55.300         48.33	     7.616
  55.320         54.17	     8.062
  55.340         47.50	     7.550
  55.360         45.83	     7.416
  55.380         59.17	     8.426
  55.400         53.33	     8.000
  55.420         45.00	     7.348
  55.440         77.50	     9.644
  55.460         90.00	    10.392
  55.480         54.17	     8.062
  55.500         32.50	     6.245
  55.520         46.67	     7.483
  55.540         49.17	     7.681
  55.560         38.33	     6.782
  55.580         48.33	     7.616
  55.600         48.33	     7.616
  55.620         50.00	     7.746
  55.640         42.50	     7.141
  55.660         32.50	     6.245
  55.680         35.00	     6.481
  55.700         35.83	     6.557
  55.720         32.50	     6.245
  55.740         43.33	     7.211
  55.760         29.17	     5.916
  55.780         35.83	     6.557
  55.800         42.50	     7.141
  55.820         40.00	     6.928
  55.840         41.67	     7.071
  55.860         43.33	     7.211
  55.880         48.33	     7.616
  55.900         51.67	     7.874
  55.920         35.83	     6.557
  55.940         43.33	     7.211
  55.960         41.67	     7.071
  55.980         43.33	     7.211
  56.000         40.83	     7.000
  56.020         35.83	     6.557
  56.040         35.83	     6.557
  56.060         31.67	     6.164
  56.080         33.33	     6.325
  56.100         37.50	     6.708
  56.120         34.17	     6.403
  56.140         40.83	     7.000
  56.160         25.00	     5.477
  56.180         43.33	     7.211
  56.200         26.67	     5.657
  56.220         35.00	     6.481
  56.240         33.33	     6.325
  56.260         26.67	     5.657
  56.280         35.83	     6.557
  56.300         35.83	     6.557
  56.320         33.33	     6.325
  56.340         35.83	     6.557
  56.360         40.00	     6.928
  56.380         25.00	     5.477
  56.400         34.17	     6.403
  56.420         24.17	     5.385
  56.440         30.00	     6.000
  56.460         25.83	     5.568
  56.480         35.00	     6.481
  56.500         21.67	     5.099
  56.520         27.50	     5.745
  56.540         22.50	     5.196
  56.560         30.00	     6.000
  56.580         28.33	     5.831
  56.600         32.50	     6.245
  56.620         33.33	     6.325
  56.640         35.83	     6.557
  56.660         34.17	     6.403
  56.680         36.67	     6.633
  56.700         40.00	     6.928
  56.720         35.83	     6.557
  56.740         24.17	     5.385
  56.760         36.67	     6.633
  56.780         29.17	     5.916
  56.800         45.00	     7.348
  56.820         32.50	     6.245
  56.840         51.67	     7.874
  56.860         54.17	     8.062
  56.880         30.83	     6.083
  56.900         42.50	     7.141
  56.920         33.33	     6.325
  56.940         35.83	     6.557
  56.960         40.83	     7.000
  56.980         54.17	     8.062
  57.000         42.50	     7.141
  57.020         48.33	     7.616
  57.040         35.83	     6.557
  57.060         28.33	     5.831
  57.080         30.83	     6.083
  57.100         24.17	     5.385
  57.120         34.17	     6.403
  57.140         30.00	     6.000
  57.160         41.67	     7.071
  57.180         34.17	     6.403
  57.200         33.33	     6.325
  57.220         34.17	     6.403
  57.240         32.50	     6.245
  57.260         17.50	     4.583
  57.280         30.83	     6.083
  57.300         41.67	     7.071
  57.320         30.83	     6.083
  57.340         33.33	     6.325
  57.360         30.00	     6.000
  57.380         31.67	     6.164
  57.400         30.83	     6.083
  57.420         35.00	     6.481
  57.440         25.83	     5.568
  57.460         35.00	     6.481
  57.480         27.50	     5.745
  57.500         26.67	     5.657
  57.520         29.17	     5.916
  57.540         28.33	     5.831
  57.560         21.67	     5.099
  57.580         37.50	     6.708
  57.600         25.00	     5.477
  57.620         36.67	     6.633
  57.640         33.33	     6.325
  57.660         28.33	     5.831
  57.680         40.83	     7.000
  57.700         35.83	     6.557
  57.720         29.17	     5.916
  57.740         36.67	     6.633
  57.760         30.83	     6.083
  57.780         30.00	     6.000
  57.800         34.17	     6.403
  57.820         32.50	     6.245
  57.840         27.50	     5.745
  57.860         31.67	     6.164
  57.880         25.83	     5.568
  57.900         26.67	     5.657
  57.920         26.67	     5.657
  57.940         25.83	     5.568
  57.960         30.00	     6.000
  57.980         33.33	     6.325
  58.000         32.50	     6.245
  58.020         19.17	     4.796
  58.040         28.33	     5.831
  58.060         26.67	     5.657
  58.080         31.67	     6.164
  58.100         35.00	     6.481
  58.120         24.17	     5.385
  58.140         27.50	     5.745
  58.160         35.83	     6.557
  58.180         40.00	     6.928
  58.200         33.33	     6.325
  58.220         41.67	     7.071
  58.240         39.17	     6.856
  58.260         41.67	     7.071
  58.280         30.83	     6.083
  58.300         35.83	     6.557
  58.320         55.83	     8.185
  58.340         72.50	     9.327
  58.360         67.50	     9.000
  58.380         60.00	     8.485
  58.400         70.83	     9.220
  58.420         60.83	     8.544
  58.440         55.83	     8.185
  58.460         45.83	     7.416
  58.480         50.83	     7.810
  58.500         54.17	     8.062
  58.520         66.67	     8.944
  58.540         82.50	     9.950
  58.560         77.50	     9.644
  58.580         35.83	     6.557
  58.600         37.50	     6.708
  58.620         49.17	     7.681
  58.640         41.67	     7.071
  58.660         46.67	     7.483
  58.680         54.17	     8.062
  58.700         54.17	     8.062
  58.720         64.17	     8.775
  58.740         40.00	     6.928
  58.760         48.33	     7.616
  58.780         50.00	     7.746
  58.800         43.33	     7.211
  58.820         37.50	     6.708
  58.840         38.33	     6.782
  58.860         31.67	     6.164
  58.880         41.67	     7.071
  58.900         35.00	     6.481
  58.920         39.17	     6.856
  58.940         33.33	     6.325
  58.960         44.17	     7.280
  58.980         45.00	     7.348
  59.000         34.17	     6.403
  59.020         34.17	     6.403
  59.040         32.50	     6.245
  59.060         40.83	     7.000
  59.080         53.33	     8.000
  59.100         43.33	     7.211
  59.120         50.00	     7.746
  59.140         55.00	     8.124
  59.160         38.33	     6.782
  59.180         41.67	     7.071
  59.200         46.67	     7.483
  59.220         44.17	     7.280
  59.240         48.33	     7.616
  59.260         53.33	     8.000
  59.280         51.67	     7.874
  59.300         66.67	     8.944
  59.320         50.83	     7.810
  59.340         47.50	     7.550
  59.360         48.33	     7.616
  59.380         48.33	     7.616
  59.400         40.00	     6.928
  59.420         42.50	     7.141
  59.440         48.33	     7.616
  59.460         49.17	     7.681
  59.480         38.33	     6.782
  59.500         37.50	     6.708
  59.520         40.00	     6.928
  59.540         24.17	     5.385
  59.560         31.67	     6.164
  59.580         40.00	     6.928
  59.600         45.83	     7.416
  59.620         36.67	     6.633
  59.640         35.83	     6.557
  59.660         32.50	     6.245
  59.680         32.50	     6.245
  59.700         30.00	     6.000
  59.720         45.00	     7.348
  59.740         40.00	     6.928
  59.760         40.83	     7.000
  59.780         45.00	     7.348
  59.800         39.17	     6.856
  59.820         38.33	     6.782
  59.840         37.50	     6.708
  59.860         43.33	     7.211
  59.880         35.83	     6.557
  59.900         55.83	     8.185
  59.920         50.83	     7.810
  59.940         69.17	     9.110
  59.960         85.00	    10.100
  59.980         97.50	    10.817
  60.000        145.00	    13.191
  60.020        169.17	    14.248
  60.040        235.00	    16.793
  60.060        207.50	    15.780
  60.080        202.50	    15.588
  60.100        159.17	    13.820
  60.120        110.00	    11.489
  60.140        125.83	    12.288
  60.160        124.17	    12.207
  60.180        150.00	    13.416
  60.200        171.67	    14.353
  60.220        156.67	    13.711
  60.240        150.00	    13.416
  60.260        121.67	    12.083
  60.280         80.83	     9.849
  60.300         75.00	     9.487
  60.320         64.17	     8.775
  60.340         60.83	     8.544
  60.360         54.17	     8.062
  60.380         45.00	     7.348
  60.400         54.17	     8.062
  60.420         44.17	     7.280
  60.440         48.33	     7.616
  60.460         45.83	     7.416
  60.480         51.67	     7.874
  60.500         40.83	     7.000
  60.520         36.67	     6.633
  60.540         39.17	     6.856
  60.560         46.67	     7.483
  60.580         47.50	     7.550
  60.600         46.67	     7.483
  60.620         38.33	     6.782
  60.640         30.83	     6.083
  60.660         55.83	     8.185
  60.680         34.17	     6.403
  60.700         25.00	     5.477
  60.720         35.83	     6.557
  60.740         42.50	     7.141
  60.760         41.67	     7.071
  60.780         33.33	     6.325
  60.800         45.83	     7.416
  60.820         52.50	     7.937
  60.840         47.50	     7.550
  60.860         40.00	     6.928
  60.880         41.67	     7.071
  60.900         44.17	     7.280
  60.920         50.00	     7.746
  60.940         36.67	     6.633
  60.960         49.17	     7.681
  60.980         42.50	     7.141
  61.000         47.50	     7.550
  61.020         49.17	     7.681
  61.040         51.67	     7.874
  61.060         44.17	     7.280
  61.080         45.00	     7.348
  61.100         45.00	     7.348
  61.120         38.33	     6.782
  61.140         54.17	     8.062
  61.160         39.17	     6.856
  61.180         43.33	     7.211
  61.200         43.33	     7.211
  61.220         48.33	     7.616
  61.240         33.33	     6.325
  61.260         40.00	     6.928
  61.280         31.67	     6.164
  61.300         43.33	     7.211
  61.320         32.50	     6.245
  61.340         53.33	     8.000
  61.360         50.00	     7.746
  61.380         53.33	     8.000
  61.400         62.50	     8.660
  61.420         62.50	     8.660
  61.440         49.17	     7.681
  61.460         56.67	     8.246
  61.480         44.17	     7.280
  61.500         50.83	     7.810
  61.520         60.83	     8.544
  61.540         53.33	     8.000
  61.560         69.17	     9.110
  61.580         70.00	     9.165
  61.600         65.00	     8.832
  61.620         55.83	     8.185
  61.640         64.17	     8.775
  61.660         52.50	     7.937
  61.680         68.33	     9.055
  61.700         65.00	     8.832
  61.720         58.33	     8.367
  61.740         48.33	     7.616
  61.760         54.17	     8.062
  61.780         54.17	     8.062
  61.800         64.17	     8.775
  61.820         70.00	     9.165
  61.840         70.00	     9.165
  61.860         71.67	     9.274
  61.880         52.50	     7.937
  61.900         43.33	     7.211
  61.920         47.50	     7.550
  61.940         54.17	     8.062
  61.960         32.50	     6.245
  61.980         50.83	     7.810
  62.000         52.50	     7.937
  62.020         58.33	     8.367
  62.040         57.50	     8.307
  62.060         28.33	     5.831
  62.080         46.67	     7.483
  62.100         50.83	     7.810
  62.120         24.17	     5.385
  62.140         31.67	     6.164
  62.160         50.00	     7.746
  62.180         40.83	     7.000
  62.200         30.00	     6.000
  62.220         34.17	     6.403
  62.240         33.33	     6.325
  62.260         35.83	     6.557
  62.280         19.17	     4.796
  62.300         39.17	     6.856
  62.320         29.17	     5.916
  62.340         39.17	     6.856
  62.360         30.83	     6.083
  62.380         25.83	     5.568
  62.400         22.50	     5.196
  62.420         32.50	     6.245
  62.440         32.50	     6.245
  62.460         30.00	     6.000
  62.480         23.33	     5.292
  62.500         32.50	     6.245
  62.520         26.67	     5.657
  62.540         30.83	     6.083
  62.560         30.00	     6.000
  62.580         30.00	     6.000
  62.600         25.83	     5.568
  62.620         23.33	     5.292
  62.640         34.17	     6.403
  62.660         34.17	     6.403
  62.680         35.00	     6.481
  62.700         32.50	     6.245
  62.720         31.67	     6.164
  62.740         30.00	     6.000
  62.760         38.33	     6.782
  62.780         37.50	     6.708
  62.800         38.33	     6.782
  62.820         50.00	     7.746
  62.840         42.50	     7.141
  62.860         30.83	     6.083
  62.880         32.50	     6.245
  62.900         29.17	     5.916
  62.920         32.50	     6.245
  62.940         36.67	     6.633
  62.960         33.33	     6.325
  62.980         38.33	     6.782
  63.000         29.17	     5.916
  63.020         25.83	     5.568
  63.040         25.83	     5.568
  63.060         34.17	     6.403
  63.080         23.33	     5.292
  63.100         34.17	     6.403
  63.120         26.67	     5.657
  63.140         29.17	     5.916
  63.160         37.50	     6.708
  63.180         28.33	     5.831
  63.200         29.17	     5.916
  63.220         30.00	     6.000
  63.240         25.83	     5.568
  63.260         31.67	     6.164
  63.280         33.33	     6.325
  63.300         29.17	     5.916
  63.320         33.33	     6.325
  63.340         39.17	     6.856
  63.360         35.83	     6.557
  63.380         25.83	     5.568
  63.400         33.33	     6.325
  63.420         37.50	     6.708
  63.440         30.83	     6.083
  63.460         28.33	     5.831
  63.480         39.17	     6.856
  63.500         25.83	     5.568
  63.520         33.33	     6.325
  63.540         27.50	     5.745
  63.560         41.67	     7.071
  63.580         43.33	     7.211
  63.600         50.83	     7.810
  63.620         56.67	     8.246
  63.640         66.67	     8.944
  63.660         46.67	     7.483
  63.680         50.00	     7.746
  63.700         36.67	     6.633
  63.720         34.17	     6.403
  63.740         21.67	     5.099
  63.760         30.83	     6.083
  63.780         41.67	     7.071
  63.800         50.00	     7.746
  63.820         45.83	     7.416
  63.840         50.00	     7.746
  63.860         33.33	     6.325
  63.880         35.00	     6.481
  63.900         30.00	     6.000
  63.920         37.50	     6.708
  63.940         45.83	     7.416
  63.960         35.00	     6.481
  63.980         35.83	     6.557
  64.000         30.83	     6.083
  64.020         42.50	     7.141
  64.040         40.83	     7.000
  64.060         49.17	     7.681
  64.080         40.00	     6.928
  64.100         64.17	     8.775
  64.120         74.17	     9.434
  64.140         47.50	     7.550
  64.160         57.50	     8.307
  64.180         31.67	     6.164
  64.200         45.00	     7.348
  64.220         38.33	     6.782
  64.240         49.17	     7.681
  64.260         50.83	     7.810
  64.280         43.33	     7.211
  64.300         57.50	     8.307
  64.320         70.00	     9.165
  64.340         46.67	     7.483
  64.360         50.83	     7.810
  64.380         42.50	     7.141
  64.400         40.00	     6.928
  64.420         43.33	     7.211
  64.440         26.67	     5.657
  64.460         32.50	     6.245
  64.480         35.00	     6.481
  64.500         30.00	     6.000
  64.520         33.33	     6.325
  64.540         28.33	     5.831
  64.560         31.67	     6.164
  64.580         26.67	     5.657
  64.600         27.50	     5.745
  64.620         31.67	     6.164
  64.640         45.83	     7.416
  64.660         36.67	     6.633
  64.680         42.50	     7.141
  64.700         30.83	     6.083
  64.720         25.00	     5.477
  64.740         35.83	     6.557
  64.760         31.67	     6.164
  64.780         30.00	     6.000
  64.800         40.00	     6.928
  64.820         39.17	     6.856
  64.840         40.00	     6.928
  64.860         37.50	     6.708
  64.880         39.17	     6.856
  64.900         52.50	     7.937
  64.920         40.00	     6.928
  64.940         42.50	     7.141
  64.960         40.00	     6.928
  64.980         44.17	     7.280
  65.000         37.50	     6.708
