
Filename:
	C:\Program Files\Thermo Electron\WinXRD\Datafiles\F_HERMAN\FIEN\10_2_AUG_RT.raw

File Created:
	February 22, 2019 - 02:46 PM

Specimen Id:
	9.1 AUGUST 0 BG

Specimen Name:
	

Specimen Description:
	

Comment:
Scan Type: 2Theta Scan
Start Angle: 1 deg.
Stop Angle: 65 deg.
Num Points: 3201
Step Size: 0.02 deg.
Scan Rate: 1.000000
Scan Mode: Continuous
Wavelength: 1.540562
\Kalpha1: 1.540562	\Kalpha2: 1.544390	\Kbeta: 1.392218

Optics:
		Detector:
			 Type: Fixed Slits
		Tube: 
			 Type: Fixed Slits


Datas:
 Pos [deg]       Rate [CPS]      ESD [-]

Range 1 ---> Iteration 1
   1.000        881.67	    32.527
   1.020        762.50	    30.249
   1.040        635.83	    27.622
   1.060        686.67	    28.705
   1.080        553.33	    25.768
   1.100        433.33	    22.804
   1.120        528.33	    25.179
   1.140        430.00	    22.716
   1.160        470.83	    23.770
   1.180        515.83	    24.880
   1.200        429.17	    22.694
   1.220        389.17	    21.610
   1.240        403.33	    22.000
   1.260        410.00	    22.181
   1.280        480.83	    24.021
   1.300        638.33	    27.677
   1.320        707.50	    29.138
   1.340        755.00	    30.100
   1.360       1135.83	    36.919
   1.380       1322.50	    39.837
   1.400       1395.00	    40.915
   1.420       1455.83	    41.797
   1.440       1302.50	    39.535
   1.460       1354.17	    40.311
   1.480       1272.50	    39.077
   1.500       1280.00	    39.192
   1.520       1148.33	    37.121
   1.540       1232.50	    38.458
   1.560       1160.83	    37.323
   1.580       1105.83	    36.428
   1.600       1049.17	    35.482
   1.620       1056.67	    35.609
   1.640        951.67	    33.793
   1.660        980.00	    34.293
   1.680        857.50	    32.078
   1.700        804.17	    31.064
   1.720        740.83	    29.816
   1.740        752.50	    30.050
   1.760        738.33	    29.766
   1.780        703.33	    29.052
   1.800        587.50	    26.552
   1.820        641.67	    27.749
   1.840        600.00	    26.833
   1.860        582.50	    26.439
   1.880        525.00	    25.100
   1.900        532.50	    25.278
   1.920        527.50	    25.159
   1.940        525.00	    25.100
   1.960        493.33	    24.331
   1.980        503.33	    24.576
   2.000        537.50	    25.397
   2.020        468.33	    23.707
   2.040        510.00	    24.739
   2.060        472.50	    23.812
   2.080        482.50	    24.062
   2.100        460.00	    23.495
   2.120        442.50	    23.043
   2.140        440.83	    23.000
   2.160        440.83	    23.000
   2.180        395.83	    21.794
   2.200        427.50	    22.650
   2.220        403.33	    22.000
   2.240        438.33	    22.935
   2.260        413.33	    22.271
   2.280        383.33	    21.448
   2.300        390.00	    21.633
   2.320        363.33	    20.881
   2.340        385.00	    21.494
   2.360        370.00	    21.071
   2.380        356.67	    20.688
   2.400        360.00	    20.785
   2.420        385.00	    21.494
   2.440        306.67	    19.183
   2.460        346.67	    20.396
   2.480        327.50	    19.824
   2.500        376.67	    21.260
   2.520        330.00	    19.900
   2.540        326.67	    19.799
   2.560        303.33	    19.079
   2.580        317.50	    19.519
   2.600        333.33	    20.000
   2.620        335.83	    20.075
   2.640        343.33	    20.298
   2.660        300.00	    18.974
   2.680        328.33	    19.849
   2.700        305.83	    19.157
   2.720        294.17	    18.788
   2.740        318.33	    19.545
   2.760        303.33	    19.079
   2.780        293.33	    18.762
   2.800        288.33	    18.601
   2.820        300.00	    18.974
   2.840        295.00	    18.815
   2.860        310.83	    19.313
   2.880        285.00	    18.493
   2.900        283.33	    18.439
   2.920        275.00	    18.166
   2.940        270.00	    18.000
   2.960        250.83	    17.349
   2.980        266.67	    17.889
   3.000        266.67	    17.889
   3.020        279.17	    18.303
   3.040        255.83	    17.521
   3.060        260.83	    17.692
   3.080        248.33	    17.263
   3.100        271.67	    18.055
   3.120        268.33	    17.944
   3.140        272.50	    18.083
   3.160        240.00	    16.971
   3.180        260.83	    17.692
   3.200        247.50	    17.234
   3.220        250.00	    17.321
   3.240        271.67	    18.055
   3.260        250.83	    17.349
   3.280        237.50	    16.882
   3.300        243.33	    17.088
   3.320        242.50	    17.059
   3.340        211.67	    15.937
   3.360        261.67	    17.720
   3.380        225.00	    16.432
   3.400        255.83	    17.521
   3.420        240.00	    16.971
   3.440        223.33	    16.371
   3.460        230.00	    16.613
   3.480        215.83	    16.093
   3.500        234.17	    16.763
   3.520        217.50	    16.155
   3.540        218.33	    16.186
   3.560        220.00	    16.248
   3.580        218.33	    16.186
   3.600        229.17	    16.583
   3.620        217.50	    16.155
   3.640        207.50	    15.780
   3.660        202.50	    15.588
   3.680        195.83	    15.330
   3.700        254.17	    17.464
   3.720        223.33	    16.371
   3.740        173.33	    14.422
   3.760        230.00	    16.613
   3.780        197.50	    15.395
   3.800        199.17	    15.460
   3.820        201.67	    15.556
   3.840        212.50	    15.969
   3.860        176.67	    14.560
   3.880        187.50	    15.000
   3.900        215.83	    16.093
   3.920        191.67	    15.166
   3.940        205.00	    15.684
   3.960        196.67	    15.362
   3.980        195.83	    15.330
   4.000        188.33	    15.033
   4.020        200.00	    15.492
   4.040        191.67	    15.166
   4.060        205.00	    15.684
   4.080        185.00	    14.900
   4.100        185.00	    14.900
   4.120        182.50	    14.799
   4.140        170.83	    14.318
   4.160        166.67	    14.142
   4.180        183.33	    14.832
   4.200        199.17	    15.460
   4.220        166.67	    14.142
   4.240        190.83	    15.133
   4.260        191.67	    15.166
   4.280        188.33	    15.033
   4.300        194.17	    15.264
   4.320        163.33	    14.000
   4.340        171.67	    14.353
   4.360        164.17	    14.036
   4.380        177.50	    14.595
   4.400        178.33	    14.629
   4.420        168.33	    14.213
   4.440        172.50	    14.387
   4.460        174.17	    14.457
   4.480        172.50	    14.387
   4.500        164.17	    14.036
   4.520        157.50	    13.748
   4.540        160.83	    13.892
   4.560        155.83	    13.675
   4.580        159.17	    13.820
   4.600        150.00	    13.416
   4.620        162.50	    13.964
   4.640        157.50	    13.748
   4.660        169.17	    14.248
   4.680        146.67	    13.266
   4.700        140.83	    13.000
   4.720        152.50	    13.528
   4.740        147.50	    13.304
   4.760        175.83	    14.526
   4.780        154.17	    13.601
   4.800        153.33	    13.565
   4.820        148.33	    13.342
   4.840        140.83	    13.000
   4.860        180.83	    14.731
   4.880        161.67	    13.928
   4.900        166.67	    14.142
   4.920        165.83	    14.107
   4.940        170.00	    14.283
   4.960        151.67	    13.491
   4.980        132.50	    12.610
   5.000        135.00	    12.728
   5.020        162.50	    13.964
   5.040        146.67	    13.266
   5.060        163.33	    14.000
   5.080        153.33	    13.565
   5.100        140.83	    13.000
   5.120        150.83	    13.454
   5.140        145.00	    13.191
   5.160        137.50	    12.845
   5.180        153.33	    13.565
   5.200        130.83	    12.530
   5.220        143.33	    13.115
   5.240        141.67	    13.038
   5.260        138.33	    12.884
   5.280        150.83	    13.454
   5.300        149.17	    13.379
   5.320        149.17	    13.379
   5.340        138.33	    12.884
   5.360        162.50	    13.964
   5.380        134.17	    12.689
   5.400        155.83	    13.675
   5.420        148.33	    13.342
   5.440        158.33	    13.784
   5.460        161.67	    13.928
   5.480        140.83	    13.000
   5.500        149.17	    13.379
   5.520        134.17	    12.689
   5.540        155.83	    13.675
   5.560        132.50	    12.610
   5.580        147.50	    13.304
   5.600        144.17	    13.153
   5.620        162.50	    13.964
   5.640        157.50	    13.748
   5.660        117.50	    11.874
   5.680        142.50	    13.077
   5.700        140.83	    13.000
   5.720        145.00	    13.191
   5.740        178.33	    14.629
   5.760        150.00	    13.416
   5.780        148.33	    13.342
   5.800        161.67	    13.928
   5.820        170.83	    14.318
   5.840        165.00	    14.071
   5.860        159.17	    13.820
   5.880        172.50	    14.387
   5.900        196.67	    15.362
   5.920        227.50	    16.523
   5.940        219.17	    16.217
   5.960        232.50	    16.703
   5.980        280.00	    18.330
   6.000        310.83	    19.313
   6.020        402.50	    21.977
   6.040        453.33	    23.324
   6.060        537.50	    25.397
   6.080        615.83	    27.185
   6.100        631.67	    27.532
   6.120        635.00	    27.604
   6.140        563.33	    26.000
   6.160        490.00	    24.249
   6.180        466.67	    23.664
   6.200        358.33	    20.736
   6.220        312.50	    19.365
   6.240        235.00	    16.793
   6.260        208.33	    15.811
   6.280        190.00	    15.100
   6.300        167.50	    14.177
   6.320        161.67	    13.928
   6.340        152.50	    13.528
   6.360        153.33	    13.565
   6.380        145.00	    13.191
   6.400        141.67	    13.038
   6.420        145.00	    13.191
   6.440        138.33	    12.884
   6.460        138.33	    12.884
   6.480        165.83	    14.107
   6.500        128.33	    12.410
   6.520        140.83	    13.000
   6.540        131.67	    12.570
   6.560        143.33	    13.115
   6.580        130.83	    12.530
   6.600        121.67	    12.083
   6.620        139.17	    12.923
   6.640        125.83	    12.288
   6.660        143.33	    13.115
   6.680        141.67	    13.038
   6.700        120.83	    12.042
   6.720        143.33	    13.115
   6.740        120.00	    12.000
   6.760        126.67	    12.329
   6.780        137.50	    12.845
   6.800        124.17	    12.207
   6.820        124.17	    12.207
   6.840        115.83	    11.790
   6.860        136.67	    12.806
   6.880        107.50	    11.358
   6.900        100.00	    10.954
   6.920        106.67	    11.314
   6.940        125.83	    12.288
   6.960        110.83	    11.533
   6.980        132.50	    12.610
   7.000        111.67	    11.576
   7.020        123.33	    12.166
   7.040        130.00	    12.490
   7.060        121.67	    12.083
   7.080        116.67	    11.832
   7.100        120.00	    12.000
   7.120         96.67	    10.770
   7.140        115.00	    11.747
   7.160        106.67	    11.314
   7.180        111.67	    11.576
   7.200        115.00	    11.747
   7.220        135.83	    12.767
   7.240        104.17	    11.180
   7.260        125.00	    12.247
   7.280        102.50	    11.091
   7.300        121.67	    12.083
   7.320        112.50	    11.619
   7.340        127.50	    12.369
   7.360        117.50	    11.874
   7.380        117.50	    11.874
   7.400        102.50	    11.091
   7.420        124.17	    12.207
   7.440         96.67	    10.770
   7.460         92.50	    10.536
   7.480        113.33	    11.662
   7.500        122.50	    12.124
   7.520        105.83	    11.269
   7.540         91.67	    10.488
   7.560        105.00	    11.225
   7.580        104.17	    11.180
   7.600        122.50	    12.124
   7.620        107.50	    11.358
   7.640        103.33	    11.136
   7.660         94.17	    10.630
   7.680        110.00	    11.489
   7.700         96.67	    10.770
   7.720        110.83	    11.533
   7.740        108.33	    11.402
   7.760         97.50	    10.817
   7.780         95.00	    10.677
   7.800        114.17	    11.705
   7.820         99.17	    10.909
   7.840         98.33	    10.863
   7.860        113.33	    11.662
   7.880         99.17	    10.909
   7.900        104.17	    11.180
   7.920        115.00	    11.747
   7.940        105.00	    11.225
   7.960        130.00	    12.490
   7.980        109.17	    11.446
   8.000        129.17	    12.450
   8.020        109.17	    11.446
   8.040        109.17	    11.446
   8.060        110.00	    11.489
   8.080         87.50	    10.247
   8.100        114.17	    11.705
   8.120        101.67	    11.045
   8.140        116.67	    11.832
   8.160        110.83	    11.533
   8.180        116.67	    11.832
   8.200         99.17	    10.909
   8.220        105.00	    11.225
   8.240        100.00	    10.954
   8.260        104.17	    11.180
   8.280        108.33	    11.402
   8.300        105.83	    11.269
   8.320        110.00	    11.489
   8.340        110.00	    11.489
   8.360         97.50	    10.817
   8.380        125.83	    12.288
   8.400        110.00	    11.489
   8.420        117.50	    11.874
   8.440        111.67	    11.576
   8.460        110.83	    11.533
   8.480        148.33	    13.342
   8.500        120.00	    12.000
   8.520        138.33	    12.884
   8.540        130.83	    12.530
   8.560        136.67	    12.806
   8.580        145.83	    13.229
   8.600        166.67	    14.142
   8.620        155.00	    13.638
   8.640        180.83	    14.731
   8.660        192.50	    15.199
   8.680        253.33	    17.436
   8.700        254.17	    17.464
   8.720        295.83	    18.841
   8.740        311.67	    19.339
   8.760        385.00	    21.494
   8.780        456.67	    23.409
   8.800        578.33	    26.344
   8.820        845.00	    31.843
   8.840        981.67	    34.322
   8.860        910.00	    33.045
   8.880        641.67	    27.749
   8.900        362.50	    20.857
   8.920        190.83	    15.133
   8.940        141.67	    13.038
   8.960        147.50	    13.304
   8.980        125.83	    12.288
   9.000        130.00	    12.490
   9.020        140.00	    12.961
   9.040        119.17	    11.958
   9.060        123.33	    12.166
   9.080        120.83	    12.042
   9.100        144.17	    13.153
   9.120        160.83	    13.892
   9.140        180.00	    14.697
   9.160        180.83	    14.731
   9.180        125.00	    12.247
   9.200        105.83	    11.269
   9.220         96.67	    10.770
   9.240        131.67	    12.570
   9.260        115.83	    11.790
   9.280        120.83	    12.042
   9.300        110.83	    11.533
   9.320        143.33	    13.115
   9.340        135.00	    12.728
   9.360        173.33	    14.422
   9.380        245.83	    17.176
   9.400        295.83	    18.841
   9.420        312.50	    19.365
   9.440        238.33	    16.912
   9.460        158.33	    13.784
   9.480        100.83	    11.000
   9.500         97.50	    10.817
   9.520        110.00	    11.489
   9.540         91.67	    10.488
   9.560         91.67	    10.488
   9.580        106.67	    11.314
   9.600         76.67	     9.592
   9.620         72.50	     9.327
   9.640         89.17	    10.344
   9.660         78.33	     9.695
   9.680         85.83	    10.149
   9.700        104.17	    11.180
   9.720         73.33	     9.381
   9.740         88.33	    10.296
   9.760         70.00	     9.165
   9.780         93.33	    10.583
   9.800         84.17	    10.050
   9.820         67.50	     9.000
   9.840         63.33	     8.718
   9.860         90.00	    10.392
   9.880         85.83	    10.149
   9.900         97.50	    10.817
   9.920         83.33	    10.000
   9.940         89.17	    10.344
   9.960         85.83	    10.149
   9.980         84.17	    10.050
  10.000         80.00	     9.798
  10.020         80.00	     9.798
  10.040         70.83	     9.220
  10.060         90.00	    10.392
  10.080         80.83	     9.849
  10.100         76.67	     9.592
  10.120         55.83	     8.185
  10.140         66.67	     8.944
  10.160         69.17	     9.110
  10.180         80.00	     9.798
  10.200         86.67	    10.198
  10.220         75.83	     9.539
  10.240         91.67	    10.488
  10.260         86.67	    10.198
  10.280         74.17	     9.434
  10.300         62.50	     8.660
  10.320         71.67	     9.274
  10.340        104.17	    11.180
  10.360         73.33	     9.381
  10.380         91.67	    10.488
  10.400         86.67	    10.198
  10.420        107.50	    11.358
  10.440        130.83	    12.530
  10.460        108.33	    11.402
  10.480        164.17	    14.036
  10.500        186.67	    14.967
  10.520        267.50	    17.916
  10.540        228.33	    16.553
  10.560        182.50	    14.799
  10.580        105.83	    11.269
  10.600        103.33	    11.136
  10.620         84.17	    10.050
  10.640         84.17	    10.050
  10.660         99.17	    10.909
  10.680         86.67	    10.198
  10.700         58.33	     8.367
  10.720         81.67	     9.899
  10.740         78.33	     9.695
  10.760         85.83	    10.149
  10.780         80.00	     9.798
  10.800         83.33	    10.000
  10.820         75.83	     9.539
  10.840         79.17	     9.747
  10.860         95.00	    10.677
  10.880         92.50	    10.536
  10.900         82.50	     9.950
  10.920         70.00	     9.165
  10.940         92.50	    10.536
  10.960        105.83	    11.269
  10.980         91.67	    10.488
  11.000         78.33	     9.695
  11.020         72.50	     9.327
  11.040         70.00	     9.165
  11.060         84.17	    10.050
  11.080         85.83	    10.149
  11.100         80.00	     9.798
  11.120         80.83	     9.849
  11.140         65.83	     8.888
  11.160         87.50	    10.247
  11.180         80.00	     9.798
  11.200         73.33	     9.381
  11.220         82.50	     9.950
  11.240         99.17	    10.909
  11.260         88.33	    10.296
  11.280         65.83	     8.888
  11.300         70.83	     9.220
  11.320         85.83	    10.149
  11.340         80.00	     9.798
  11.360         70.00	     9.165
  11.380         60.00	     8.485
  11.400         66.67	     8.944
  11.420         79.17	     9.747
  11.440         78.33	     9.695
  11.460         78.33	     9.695
  11.480         96.67	    10.770
  11.500         80.00	     9.798
  11.520         87.50	    10.247
  11.540         71.67	     9.274
  11.560         84.17	    10.050
  11.580         79.17	     9.747
  11.600         94.17	    10.630
  11.620        100.00	    10.954
  11.640         85.00	    10.100
  11.660         82.50	     9.950
  11.680         90.83	    10.440
  11.700         73.33	     9.381
  11.720         94.17	    10.630
  11.740         86.67	    10.198
  11.760        110.00	    11.489
  11.780         99.17	    10.909
  11.800        101.67	    11.045
  11.820         98.33	    10.863
  11.840        115.00	    11.747
  11.860        110.00	    11.489
  11.880        116.67	    11.832
  11.900        123.33	    12.166
  11.920        130.83	    12.530
  11.940        140.00	    12.961
  11.960        144.17	    13.153
  11.980        200.00	    15.492
  12.000        225.00	    16.432
  12.020        230.00	    16.613
  12.040        345.00	    20.347
  12.060        431.67	    22.760
  12.080        666.67	    28.284
  12.100        884.17	    32.573
  12.120       1442.50	    41.605
  12.140       1925.00	    48.062
  12.160       1937.50	    48.218
  12.180       1550.00	    43.128
  12.200        940.83	    33.601
  12.220        578.33	    26.344
  12.240        526.67	    25.140
  12.260        590.00	    26.608
  12.280        721.67	    29.428
  12.300        817.50	    31.321
  12.320        689.17	    28.758
  12.340        600.83	    26.851
  12.360        570.83	    26.173
  12.380        565.83	    26.058
  12.400        570.83	    26.173
  12.420        608.33	    27.019
  12.440        691.67	    28.810
  12.460        613.33	    27.129
  12.480        540.83	    25.475
  12.500        338.33	    20.149
  12.520        220.00	    16.248
  12.540        165.83	    14.107
  12.560        117.50	    11.874
  12.580        113.33	    11.662
  12.600        134.17	    12.689
  12.620        129.17	    12.450
  12.640        117.50	    11.874
  12.660         91.67	    10.488
  12.680        102.50	    11.091
  12.700         85.00	    10.100
  12.720         85.83	    10.149
  12.740         90.00	    10.392
  12.760        114.17	    11.705
  12.780         80.00	     9.798
  12.800         80.00	     9.798
  12.820         75.00	     9.487
  12.840         84.17	    10.050
  12.860         89.17	    10.344
  12.880         60.00	     8.485
  12.900         66.67	     8.944
  12.920         94.17	    10.630
  12.940         65.83	     8.888
  12.960         85.00	    10.100
  12.980         79.17	     9.747
  13.000         70.83	     9.220
  13.020         76.67	     9.592
  13.040         78.33	     9.695
  13.060         73.33	     9.381
  13.080         80.83	     9.849
  13.100         94.17	    10.630
  13.120         60.00	     8.485
  13.140         95.00	    10.677
  13.160         78.33	     9.695
  13.180         84.17	    10.050
  13.200         90.83	    10.440
  13.220         81.67	     9.899
  13.240         67.50	     9.000
  13.260         82.50	     9.950
  13.280         91.67	    10.488
  13.300         82.50	     9.950
  13.320         88.33	    10.296
  13.340         81.67	     9.899
  13.360         84.17	    10.050
  13.380         83.33	    10.000
  13.400         86.67	    10.198
  13.420         72.50	     9.327
  13.440         94.17	    10.630
  13.460         87.50	    10.247
  13.480         73.33	     9.381
  13.500         81.67	     9.899
  13.520         90.83	    10.440
  13.540         85.83	    10.149
  13.560         75.00	     9.487
  13.580         80.83	     9.849
  13.600         83.33	    10.000
  13.620         96.67	    10.770
  13.640         86.67	    10.198
  13.660         91.67	    10.488
  13.680         69.17	     9.110
  13.700         69.17	     9.110
  13.720         70.00	     9.165
  13.740         63.33	     8.718
  13.760         85.00	    10.100
  13.780        100.00	    10.954
  13.800        104.17	    11.180
  13.820         98.33	    10.863
  13.840        106.67	    11.314
  13.860         93.33	    10.583
  13.880         81.67	     9.899
  13.900        102.50	    11.091
  13.920        102.50	    11.091
  13.940         85.83	    10.149
  13.960         83.33	    10.000
  13.980         61.67	     8.602
  14.000         75.83	     9.539
  14.020         65.00	     8.832
  14.040         79.17	     9.747
  14.060         88.33	    10.296
  14.080         70.00	     9.165
  14.100         80.00	     9.798
  14.120         56.67	     8.246
  14.140         62.50	     8.660
  14.160         73.33	     9.381
  14.180         58.33	     8.367
  14.200         54.17	     8.062
  14.220         57.50	     8.307
  14.240         72.50	     9.327
  14.260         55.00	     8.124
  14.280         58.33	     8.367
  14.300         55.00	     8.124
  14.320         51.67	     7.874
  14.340         60.00	     8.485
  14.360         50.00	     7.746
  14.380         50.83	     7.810
  14.400         63.33	     8.718
  14.420         56.67	     8.246
  14.440         66.67	     8.944
  14.460         53.33	     8.000
  14.480         61.67	     8.602
  14.500         62.50	     8.660
  14.520         69.17	     9.110
  14.540         85.83	    10.149
  14.560         52.50	     7.937
  14.580         60.83	     8.544
  14.600         55.83	     8.185
  14.620         50.00	     7.746
  14.640         66.67	     8.944
  14.660         62.50	     8.660
  14.680         64.17	     8.775
  14.700         55.83	     8.185
  14.720         58.33	     8.367
  14.740         55.83	     8.185
  14.760         45.00	     7.348
  14.780         53.33	     8.000
  14.800         64.17	     8.775
  14.820         52.50	     7.937
  14.840         67.50	     9.000
  14.860         60.83	     8.544
  14.880         62.50	     8.660
  14.900         63.33	     8.718
  14.920         67.50	     9.000
  14.940         62.50	     8.660
  14.960         72.50	     9.327
  14.980         62.50	     8.660
  15.000         58.33	     8.367
  15.020         55.00	     8.124
  15.040         59.17	     8.426
  15.060         53.33	     8.000
  15.080         65.83	     8.888
  15.100         55.83	     8.185
  15.120         45.83	     7.416
  15.140         45.83	     7.416
  15.160         45.83	     7.416
  15.180         50.00	     7.746
  15.200         53.33	     8.000
  15.220         47.50	     7.550
  15.240         62.50	     8.660
  15.260         53.33	     8.000
  15.280         47.50	     7.550
  15.300         64.17	     8.775
  15.320         54.17	     8.062
  15.340         49.17	     7.681
  15.360         66.67	     8.944
  15.380         65.00	     8.832
  15.400         55.00	     8.124
  15.420         50.00	     7.746
  15.440         57.50	     8.307
  15.460         56.67	     8.246
  15.480         47.50	     7.550
  15.500         58.33	     8.367
  15.520         61.67	     8.602
  15.540         56.67	     8.246
  15.560         45.00	     7.348
  15.580         55.83	     8.185
  15.600         48.33	     7.616
  15.620         56.67	     8.246
  15.640         56.67	     8.246
  15.660         60.00	     8.485
  15.680         46.67	     7.483
  15.700         66.67	     8.944
  15.720         57.50	     8.307
  15.740         41.67	     7.071
  15.760         57.50	     8.307
  15.780         61.67	     8.602
  15.800         57.50	     8.307
  15.820         43.33	     7.211
  15.840         40.83	     7.000
  15.860         55.00	     8.124
  15.880         51.67	     7.874
  15.900         45.83	     7.416
  15.920         60.00	     8.485
  15.940         63.33	     8.718
  15.960         58.33	     8.367
  15.980         50.83	     7.810
  16.000         45.83	     7.416
  16.020         44.17	     7.280
  16.040         69.17	     9.110
  16.060         45.00	     7.348
  16.080         53.33	     8.000
  16.100         51.67	     7.874
  16.120         53.33	     8.000
  16.140         49.17	     7.681
  16.160         57.50	     8.307
  16.180         49.17	     7.681
  16.200         43.33	     7.211
  16.220         46.67	     7.483
  16.240         60.83	     8.544
  16.260         55.83	     8.185
  16.280         48.33	     7.616
  16.300         52.50	     7.937
  16.320         51.67	     7.874
  16.340         54.17	     8.062
  16.360         52.50	     7.937
  16.380         51.67	     7.874
  16.400         44.17	     7.280
  16.420         52.50	     7.937
  16.440         64.17	     8.775
  16.460         54.17	     8.062
  16.480         43.33	     7.211
  16.500         50.83	     7.810
  16.520         55.00	     8.124
  16.540         47.50	     7.550
  16.560         45.00	     7.348
  16.580         50.83	     7.810
  16.600         47.50	     7.550
  16.620         46.67	     7.483
  16.640         50.83	     7.810
  16.660         51.67	     7.874
  16.680         63.33	     8.718
  16.700         52.50	     7.937
  16.720         41.67	     7.071
  16.740         60.83	     8.544
  16.760         48.33	     7.616
  16.780         66.67	     8.944
  16.800         64.17	     8.775
  16.820         55.00	     8.124
  16.840         47.50	     7.550
  16.860         57.50	     8.307
  16.880         52.50	     7.937
  16.900         50.00	     7.746
  16.920         51.67	     7.874
  16.940         56.67	     8.246
  16.960         45.00	     7.348
  16.980         53.33	     8.000
  17.000         49.17	     7.681
  17.020         45.83	     7.416
  17.040         42.50	     7.141
  17.060         46.67	     7.483
  17.080         67.50	     9.000
  17.100         53.33	     8.000
  17.120         55.83	     8.185
  17.140         46.67	     7.483
  17.160         55.83	     8.185
  17.180         65.00	     8.832
  17.200         43.33	     7.211
  17.220         54.17	     8.062
  17.240         50.83	     7.810
  17.260         60.83	     8.544
  17.280         60.83	     8.544
  17.300         62.50	     8.660
  17.320         73.33	     9.381
  17.340         57.50	     8.307
  17.360         78.33	     9.695
  17.380         88.33	    10.296
  17.400         83.33	    10.000
  17.420         80.83	     9.849
  17.440         67.50	     9.000
  17.460         49.17	     7.681
  17.480         56.67	     8.246
  17.500         54.17	     8.062
  17.520         65.83	     8.888
  17.540         51.67	     7.874
  17.560         61.67	     8.602
  17.580         57.50	     8.307
  17.600         70.00	     9.165
  17.620         72.50	     9.327
  17.640         73.33	     9.381
  17.660         80.83	     9.849
  17.680        115.00	    11.747
  17.700        121.67	    12.083
  17.720        160.00	    13.856
  17.740        264.17	    17.804
  17.760        306.67	    19.183
  17.780        430.83	    22.738
  17.800        428.33	    22.672
  17.820        380.00	    21.354
  17.840        293.33	    18.762
  17.860        193.33	    15.232
  17.880        129.17	    12.450
  17.900         87.50	    10.247
  17.920         86.67	    10.198
  17.940         81.67	     9.899
  17.960         77.50	     9.644
  17.980         91.67	    10.488
  18.000         69.17	     9.110
  18.020         65.83	     8.888
  18.040         71.67	     9.274
  18.060         66.67	     8.944
  18.080         68.33	     9.055
  18.100         60.83	     8.544
  18.120         58.33	     8.367
  18.140         66.67	     8.944
  18.160         48.33	     7.616
  18.180         55.00	     8.124
  18.200         70.00	     9.165
  18.220         64.17	     8.775
  18.240         53.33	     8.000
  18.260         75.83	     9.539
  18.280         64.17	     8.775
  18.300         61.67	     8.602
  18.320         85.00	    10.100
  18.340         79.17	     9.747
  18.360        100.00	    10.954
  18.380        139.17	    12.923
  18.400        119.17	    11.958
  18.420        128.33	    12.410
  18.440        173.33	    14.422
  18.460        205.83	    15.716
  18.480        274.17	    18.138
  18.500        373.33	    21.166
  18.520        342.50	    20.273
  18.540        362.50	    20.857
  18.560        345.83	    20.372
  18.580        282.50	    18.412
  18.600        230.83	    16.643
  18.620        234.17	    16.763
  18.640        255.00	    17.493
  18.660        260.83	    17.692
  18.680        294.17	    18.788
  18.700        305.83	    19.157
  18.720        331.67	    19.950
  18.740        330.83	    19.925
  18.760        283.33	    18.439
  18.780        245.83	    17.176
  18.800        199.17	    15.460
  18.820        152.50	    13.528
  18.840        105.00	    11.225
  18.860         84.17	    10.050
  18.880         96.67	    10.770
  18.900         96.67	    10.770
  18.920        105.83	    11.269
  18.940        110.00	    11.489
  18.960         85.83	    10.149
  18.980         90.83	    10.440
  19.000         70.83	     9.220
  19.020         68.33	     9.055
  19.040         54.17	     8.062
  19.060         61.67	     8.602
  19.080         58.33	     8.367
  19.100         81.67	     9.899
  19.120         61.67	     8.602
  19.140         65.00	     8.832
  19.160         75.83	     9.539
  19.180         79.17	     9.747
  19.200         80.83	     9.849
  19.220         61.67	     8.602
  19.240         84.17	    10.050
  19.260         63.33	     8.718
  19.280         74.17	     9.434
  19.300         76.67	     9.592
  19.320         78.33	     9.695
  19.340         70.00	     9.165
  19.360         66.67	     8.944
  19.380         85.83	    10.149
  19.400         70.00	     9.165
  19.420         74.17	     9.434
  19.440         71.67	     9.274
  19.460         70.00	     9.165
  19.480         62.50	     8.660
  19.500         77.50	     9.644
  19.520         61.67	     8.602
  19.540         56.67	     8.246
  19.560         76.67	     9.592
  19.580         68.33	     9.055
  19.600         65.00	     8.832
  19.620         56.67	     8.246
  19.640         74.17	     9.434
  19.660         79.17	     9.747
  19.680         77.50	     9.644
  19.700         75.00	     9.487
  19.720         77.50	     9.644
  19.740         71.67	     9.274
  19.760         69.17	     9.110
  19.780         73.33	     9.381
  19.800         78.33	     9.695
  19.820         85.00	    10.100
  19.840         76.67	     9.592
  19.860         80.00	     9.798
  19.880         76.67	     9.592
  19.900         74.17	     9.434
  19.920         79.17	     9.747
  19.940         64.17	     8.775
  19.960         75.00	     9.487
  19.980         61.67	     8.602
  20.000         66.67	     8.944
  20.020         65.83	     8.888
  20.040         56.67	     8.246
  20.060         69.17	     9.110
  20.080         77.50	     9.644
  20.100         52.50	     7.937
  20.120         73.33	     9.381
  20.140         60.00	     8.485
  20.160         63.33	     8.718
  20.180         72.50	     9.327
  20.200         63.33	     8.718
  20.220         57.50	     8.307
  20.240         55.83	     8.185
  20.260         54.17	     8.062
  20.280         58.33	     8.367
  20.300         43.33	     7.211
  20.320         58.33	     8.367
  20.340         54.17	     8.062
  20.360         74.17	     9.434
  20.380         57.50	     8.307
  20.400         60.00	     8.485
  20.420         55.00	     8.124
  20.440         67.50	     9.000
  20.460         54.17	     8.062
  20.480         50.83	     7.810
  20.500         64.17	     8.775
  20.520         60.00	     8.485
  20.540         51.67	     7.874
  20.560         75.00	     9.487
  20.580         60.83	     8.544
  20.600         67.50	     9.000
  20.620         67.50	     9.000
  20.640         69.17	     9.110
  20.660         72.50	     9.327
  20.680         70.00	     9.165
  20.700         81.67	     9.899
  20.720         91.67	    10.488
  20.740        145.83	    13.229
  20.760        164.17	    14.036
  20.780        234.17	    16.763
  20.800        330.00	    19.900
  20.820        334.17	    20.025
  20.840        274.17	    18.138
  20.860        238.33	    16.912
  20.880        175.83	    14.526
  20.900        115.00	    11.747
  20.920         85.00	    10.100
  20.940         95.00	    10.677
  20.960        103.33	    11.136
  20.980         78.33	     9.695
  21.000         82.50	     9.950
  21.020         80.00	     9.798
  21.040         60.83	     8.544
  21.060         71.67	     9.274
  21.080         63.33	     8.718
  21.100         65.83	     8.888
  21.120         52.50	     7.937
  21.140         59.17	     8.426
  21.160         55.83	     8.185
  21.180         62.50	     8.660
  21.200         62.50	     8.660
  21.220         63.33	     8.718
  21.240         54.17	     8.062
  21.260         38.33	     6.782
  21.280         48.33	     7.616
  21.300         55.00	     8.124
  21.320         66.67	     8.944
  21.340         57.50	     8.307
  21.360         50.83	     7.810
  21.380         63.33	     8.718
  21.400         54.17	     8.062
  21.420         53.33	     8.000
  21.440         51.67	     7.874
  21.460         75.83	     9.539
  21.480         50.00	     7.746
  21.500         59.17	     8.426
  21.520         56.67	     8.246
  21.540         48.33	     7.616
  21.560         57.50	     8.307
  21.580         50.00	     7.746
  21.600         48.33	     7.616
  21.620         65.00	     8.832
  21.640         54.17	     8.062
  21.660         57.50	     8.307
  21.680         61.67	     8.602
  21.700         60.83	     8.544
  21.720         50.83	     7.810
  21.740         55.83	     8.185
  21.760         72.50	     9.327
  21.780         55.00	     8.124
  21.800         64.17	     8.775
  21.820         54.17	     8.062
  21.840         54.17	     8.062
  21.860         64.17	     8.775
  21.880         79.17	     9.747
  21.900         62.50	     8.660
  21.920         80.83	     9.849
  21.940        101.67	    11.045
  21.960        120.83	    12.042
  21.980        145.83	    13.229
  22.000        143.33	    13.115
  22.020        158.33	    13.784
  22.040        127.50	    12.369
  22.060         95.83	    10.724
  22.080         83.33	    10.000
  22.100        110.00	    11.489
  22.120         75.00	     9.487
  22.140         76.67	     9.592
  22.160         75.00	     9.487
  22.180         68.33	     9.055
  22.200         58.33	     8.367
  22.220         60.83	     8.544
  22.240         57.50	     8.307
  22.260         55.00	     8.124
  22.280         55.83	     8.185
  22.300         64.17	     8.775
  22.320         47.50	     7.550
  22.340         68.33	     9.055
  22.360         56.67	     8.246
  22.380         55.83	     8.185
  22.400         72.50	     9.327
  22.420         68.33	     9.055
  22.440         60.83	     8.544
  22.460         60.83	     8.544
  22.480         67.50	     9.000
  22.500         73.33	     9.381
  22.520         58.33	     8.367
  22.540         48.33	     7.616
  22.560         52.50	     7.937
  22.580         54.17	     8.062
  22.600         59.17	     8.426
  22.620         49.17	     7.681
  22.640         45.83	     7.416
  22.660         51.67	     7.874
  22.680         43.33	     7.211
  22.700         53.33	     8.000
  22.720         69.17	     9.110
  22.740         75.00	     9.487
  22.760         70.83	     9.220
  22.780         75.83	     9.539
  22.800         75.00	     9.487
  22.820         80.00	     9.798
  22.840         84.17	    10.050
  22.860         95.00	    10.677
  22.880         85.00	    10.100
  22.900         70.00	     9.165
  22.920         70.83	     9.220
  22.940         85.83	    10.149
  22.960         72.50	     9.327
  22.980         60.83	     8.544
  23.000         66.67	     8.944
  23.020         85.83	    10.149
  23.040         89.17	    10.344
  23.060         70.00	     9.165
  23.080         56.67	     8.246
  23.100         55.83	     8.185
  23.120         60.00	     8.485
  23.140         45.83	     7.416
  23.160         57.50	     8.307
  23.180         64.17	     8.775
  23.200         48.33	     7.616
  23.220         42.50	     7.141
  23.240         52.50	     7.937
  23.260         47.50	     7.550
  23.280         49.17	     7.681
  23.300         57.50	     8.307
  23.320         50.83	     7.810
  23.340         45.83	     7.416
  23.360         63.33	     8.718
  23.380         59.17	     8.426
  23.400         61.67	     8.602
  23.420         65.83	     8.888
  23.440         79.17	     9.747
  23.460        116.67	    11.832
  23.480        124.17	    12.207
  23.500        138.33	    12.884
  23.520        132.50	    12.610
  23.540        136.67	    12.806
  23.560        117.50	    11.874
  23.580         95.00	    10.677
  23.600         93.33	    10.583
  23.620         78.33	     9.695
  23.640         85.83	    10.149
  23.660         76.67	     9.592
  23.680         79.17	     9.747
  23.700         75.00	     9.487
  23.720         85.00	    10.100
  23.740        110.83	    11.533
  23.760         99.17	    10.909
  23.780        110.83	    11.533
  23.800        113.33	    11.662
  23.820        105.00	    11.225
  23.840         90.83	    10.440
  23.860         97.50	    10.817
  23.880         81.67	     9.899
  23.900         80.00	     9.798
  23.920         79.17	     9.747
  23.940        103.33	    11.136
  23.960         76.67	     9.592
  23.980         94.17	    10.630
  24.000         86.67	    10.198
  24.020         76.67	     9.592
  24.040         70.83	     9.220
  24.060         69.17	     9.110
  24.080         78.33	     9.695
  24.100         74.17	     9.434
  24.120         81.67	     9.899
  24.140        122.50	    12.124
  24.160        110.83	    11.533
  24.180        111.67	    11.576
  24.200        126.67	    12.329
  24.220        168.33	    14.213
  24.240        181.67	    14.765
  24.260        154.17	    13.601
  24.280        139.17	    12.923
  24.300        149.17	    13.379
  24.320        128.33	    12.410
  24.340        121.67	    12.083
  24.360        129.17	    12.450
  24.380        141.67	    13.038
  24.400        145.00	    13.191
  24.420        191.67	    15.166
  24.440        218.33	    16.186
  24.460        286.67	    18.547
  24.480        445.83	    23.130
  24.500        636.67	    27.641
  24.520        826.67	    31.496
  24.540        847.50	    31.890
  24.560        989.17	    34.453
  24.580       1038.33	    35.299
  24.600        985.83	    34.395
  24.620        804.17	    31.064
  24.640        689.17	    28.758
  24.660        635.00	    27.604
  24.680        484.17	    24.104
  24.700        408.33	    22.136
  24.720        409.17	    22.159
  24.740        385.83	    21.517
  24.760        395.00	    21.772
  24.780        398.33	    21.863
  24.800        465.00	    23.622
  24.820        399.17	    21.886
  24.840        385.00	    21.494
  24.860        326.67	    19.799
  24.880        308.33	    19.235
  24.900        280.00	    18.330
  24.920        276.67	    18.221
  24.940        282.50	    18.412
  24.960        300.00	    18.974
  24.980        330.00	    19.900
  25.000        388.33	    21.587
  25.020        433.33	    22.804
  25.040        455.83	    23.388
  25.060        494.17	    24.352
  25.080        519.17	    24.960
  25.100        497.50	    24.434
  25.120        468.33	    23.707
  25.140        404.17	    22.023
  25.160        324.17	    19.723
  25.180        273.33	    18.111
  25.200        215.00	    16.062
  25.220        170.83	    14.318
  25.240        160.00	    13.856
  25.260        131.67	    12.570
  25.280        109.17	    11.446
  25.300        117.50	    11.874
  25.320        127.50	    12.369
  25.340        125.00	    12.247
  25.360        134.17	    12.689
  25.380        148.33	    13.342
  25.400        125.00	    12.247
  25.420        144.17	    13.153
  25.440        165.83	    14.107
  25.460        165.00	    14.071
  25.480        184.17	    14.866
  25.500        175.83	    14.526
  25.520        172.50	    14.387
  25.540        223.33	    16.371
  25.560        209.17	    15.843
  25.580        181.67	    14.765
  25.600        165.00	    14.071
  25.620        152.50	    13.528
  25.640        124.17	    12.207
  25.660        108.33	    11.402
  25.680         93.33	    10.583
  25.700         90.00	    10.392
  25.720         84.17	    10.050
  25.740         81.67	     9.899
  25.760         80.83	     9.849
  25.780         68.33	     9.055
  25.800         73.33	     9.381
  25.820         75.83	     9.539
  25.840         70.00	     9.165
  25.860         74.17	     9.434
  25.880         65.00	     8.832
  25.900         69.17	     9.110
  25.920         79.17	     9.747
  25.940         80.83	     9.849
  25.960         61.67	     8.602
  25.980         61.67	     8.602
  26.000         78.33	     9.695
  26.020         80.83	     9.849
  26.040         73.33	     9.381
  26.060         71.67	     9.274
  26.080         66.67	     8.944
  26.100         60.00	     8.485
  26.120         77.50	     9.644
  26.140         80.00	     9.798
  26.160         85.83	    10.149
  26.180         89.17	    10.344
  26.200         95.83	    10.724
  26.220         90.00	    10.392
  26.240        102.50	    11.091
  26.260        100.83	    11.000
  26.280        120.83	    12.042
  26.300        100.00	    10.954
  26.320        130.00	    12.490
  26.340        140.83	    13.000
  26.360        190.83	    15.133
  26.380        194.17	    15.264
  26.400        194.17	    15.264
  26.420        195.00	    15.297
  26.440        213.33	    16.000
  26.460        211.67	    15.937
  26.480        231.67	    16.673
  26.500        297.50	    18.894
  26.520        407.50	    22.113
  26.540        703.33	    29.052
  26.560       1184.17	    37.696
  26.580       1671.67	    44.788
  26.600       1664.17	    44.688
  26.620       1290.83	    39.357
  26.640       1072.50	    35.875
  26.660        969.17	    34.103
  26.680        739.17	    29.783
  26.700        455.00	    23.367
  26.720        379.17	    21.331
  26.740        405.83	    22.068
  26.760        450.83	    23.259
  26.780        615.00	    27.166
  26.800        775.83	    30.512
  26.820        883.33	    32.558
  26.840       1162.50	    37.350
  26.860       1236.67	    38.523
  26.880       1044.17	    35.398
  26.900        838.33	    31.718
  26.920        728.33	    29.563
  26.940        551.67	    25.729
  26.960        345.00	    20.347
  26.980        239.17	    16.941
  27.000        155.83	    13.675
  27.020        141.67	    13.038
  27.040        125.00	    12.247
  27.060        125.00	    12.247
  27.080        121.67	    12.083
  27.100        123.33	    12.166
  27.120         97.50	    10.817
  27.140         95.83	    10.724
  27.160         92.50	    10.536
  27.180        108.33	    11.402
  27.200         98.33	    10.863
  27.220        104.17	    11.180
  27.240         83.33	    10.000
  27.260         88.33	    10.296
  27.280         82.50	     9.950
  27.300         92.50	    10.536
  27.320         93.33	    10.583
  27.340         81.67	     9.899
  27.360        101.67	    11.045
  27.380        107.50	    11.358
  27.400        119.17	    11.958
  27.420        169.17	    14.248
  27.440        257.50	    17.578
  27.460        499.17	    24.474
  27.480        575.83	    26.287
  27.500        488.33	    24.207
  27.520        380.83	    21.378
  27.540        341.67	    20.248
  27.560        356.67	    20.688
  27.580        218.33	    16.186
  27.600        156.67	    13.711
  27.620        165.83	    14.107
  27.640        220.00	    16.248
  27.660        262.50	    17.748
  27.680        351.67	    20.543
  27.700        276.67	    18.221
  27.720        340.00	    20.199
  27.740        320.83	    19.621
  27.760        358.33	    20.736
  27.780        368.33	    21.024
  27.800        422.50	    22.517
  27.820        385.00	    21.494
  27.840        344.17	    20.322
  27.860        429.17	    22.694
  27.880        395.83	    21.794
  27.900        385.00	    21.494
  27.920        344.17	    20.322
  27.940        275.83	    18.193
  27.960        211.67	    15.937
  27.980        190.83	    15.133
  28.000        160.00	    13.856
  28.020        149.17	    13.379
  28.040        164.17	    14.036
  28.060        253.33	    17.436
  28.080        279.17	    18.303
  28.100        204.17	    15.652
  28.120        171.67	    14.353
  28.140        183.33	    14.832
  28.160        185.00	    14.900
  28.180        139.17	    12.923
  28.200         99.17	    10.909
  28.220        100.00	    10.954
  28.240        124.17	    12.207
  28.260        126.67	    12.329
  28.280        100.83	    11.000
  28.300        100.83	    11.000
  28.320         79.17	     9.747
  28.340         89.17	    10.344
  28.360         88.33	    10.296
  28.380         67.50	     9.000
  28.400         76.67	     9.592
  28.420         62.50	     8.660
  28.440         95.00	    10.677
  28.460         92.50	    10.536
  28.480        100.00	    10.954
  28.500        136.67	    12.806
  28.520        146.67	    13.266
  28.540        237.50	    16.882
  28.560        324.17	    19.723
  28.580        379.17	    21.331
  28.600        315.83	    19.468
  28.620        284.17	    18.466
  28.640        271.67	    18.055
  28.660        238.33	    16.912
  28.680        184.17	    14.866
  28.700        128.33	    12.410
  28.720        125.83	    12.288
  28.740        105.83	    11.269
  28.760         76.67	     9.592
  28.780         75.00	     9.487
  28.800         71.67	     9.274
  28.820         85.83	    10.149
  28.840         57.50	     8.307
  28.860         66.67	     8.944
  28.880         75.83	     9.539
  28.900         55.00	     8.124
  28.920         52.50	     7.937
  28.940         41.67	     7.071
  28.960         55.00	     8.124
  28.980         33.33	     6.325
  29.000         52.50	     7.937
  29.020         40.83	     7.000
  29.040         55.83	     8.185
  29.060         49.17	     7.681
  29.080         57.50	     8.307
  29.100         55.00	     8.124
  29.120         51.67	     7.874
  29.140         49.17	     7.681
  29.160         54.17	     8.062
  29.180         45.83	     7.416
  29.200         39.17	     6.856
  29.220         47.50	     7.550
  29.240         42.50	     7.141
  29.260         35.00	     6.481
  29.280         46.67	     7.483
  29.300         49.17	     7.681
  29.320         44.17	     7.280
  29.340         49.17	     7.681
  29.360         45.83	     7.416
  29.380         45.83	     7.416
  29.400         49.17	     7.681
  29.420         50.83	     7.810
  29.440         45.83	     7.416
  29.460         45.83	     7.416
  29.480         55.83	     8.185
  29.500         62.50	     8.660
  29.520         52.50	     7.937
  29.540         50.00	     7.746
  29.560         58.33	     8.367
  29.580         61.67	     8.602
  29.600         76.67	     9.592
  29.620         67.50	     9.000
  29.640         65.00	     8.832
  29.660         67.50	     9.000
  29.680         60.83	     8.544
  29.700         66.67	     8.944
  29.720         83.33	    10.000
  29.740        103.33	    11.136
  29.760        120.83	    12.042
  29.780        134.17	    12.689
  29.800        150.83	    13.454
  29.820        141.67	    13.038
  29.840        142.50	    13.077
  29.860        130.00	    12.490
  29.880        115.00	    11.747
  29.900        116.67	    11.832
  29.920         85.00	    10.100
  29.940         69.17	     9.110
  29.960         75.00	     9.487
  29.980         76.67	     9.592
  30.000         70.83	     9.220
  30.020         87.50	    10.247
  30.040         96.67	    10.770
  30.060         78.33	     9.695
  30.080         91.67	    10.488
  30.100         93.33	    10.583
  30.120        106.67	    11.314
  30.140        105.00	    11.225
  30.160        104.17	    11.180
  30.180        105.00	    11.225
  30.200        118.33	    11.916
  30.220        112.50	    11.619
  30.240        100.83	    11.000
  30.260         96.67	    10.770
  30.280         99.17	    10.909
  30.300         70.00	     9.165
  30.320         87.50	    10.247
  30.340         84.17	    10.050
  30.360         66.67	     8.944
  30.380         78.33	     9.695
  30.400         72.50	     9.327
  30.420         69.17	     9.110
  30.440         80.00	     9.798
  30.460         67.50	     9.000
  30.480         97.50	    10.817
  30.500        105.00	    11.225
  30.520        104.17	    11.180
  30.540         89.17	    10.344
  30.560         70.83	     9.220
  30.580         65.83	     8.888
  30.600         70.83	     9.220
  30.620         52.50	     7.937
  30.640         55.83	     8.185
  30.660         70.00	     9.165
  30.680         60.83	     8.544
  30.700         55.00	     8.124
  30.720         64.17	     8.775
  30.740         85.00	    10.100
  30.760         84.17	    10.050
  30.780         95.00	    10.677
  30.800         98.33	    10.863
  30.820        100.83	    11.000
  30.840        115.00	    11.747
  30.860        100.00	    10.954
  30.880        114.17	    11.705
  30.900        128.33	    12.410
  30.920        125.00	    12.247
  30.940         98.33	    10.863
  30.960        100.83	    11.000
  30.980         88.33	    10.296
  31.000        101.67	    11.045
  31.020         99.17	    10.909
  31.040         90.00	    10.392
  31.060         92.50	    10.536
  31.080        115.00	    11.747
  31.100        149.17	    13.379
  31.120        117.50	    11.874
  31.140        128.33	    12.410
  31.160        154.17	    13.601
  31.180        146.67	    13.266
  31.200        144.17	    13.153
  31.220        130.00	    12.490
  31.240        133.33	    12.649
  31.260        118.33	    11.916
  31.280        110.83	    11.533
  31.300         94.17	    10.630
  31.320        114.17	    11.705
  31.340         88.33	    10.296
  31.360         92.50	    10.536
  31.380        109.17	    11.446
  31.400        114.17	    11.705
  31.420        107.50	    11.358
  31.440        107.50	    11.358
  31.460        115.00	    11.747
  31.480        130.83	    12.530
  31.500        118.33	    11.916
  31.520        119.17	    11.958
  31.540        100.83	    11.000
  31.560        111.67	    11.576
  31.580        108.33	    11.402
  31.600         84.17	    10.050
  31.620         75.83	     9.539
  31.640         63.33	     8.718
  31.660         57.50	     8.307
  31.680         82.50	     9.950
  31.700         91.67	    10.488
  31.720         77.50	     9.644
  31.740         54.17	     8.062
  31.760         60.00	     8.485
  31.780         58.33	     8.367
  31.800         60.00	     8.485
  31.820         62.50	     8.660
  31.840         56.67	     8.246
  31.860         45.83	     7.416
  31.880         52.50	     7.937
  31.900         53.33	     8.000
  31.920         46.67	     7.483
  31.940         53.33	     8.000
  31.960         44.17	     7.280
  31.980         52.50	     7.937
  32.000         54.17	     8.062
  32.020         55.00	     8.124
  32.040         74.17	     9.434
  32.060         63.33	     8.718
  32.080         70.00	     9.165
  32.100         64.17	     8.775
  32.120         78.33	     9.695
  32.140         57.50	     8.307
  32.160         70.83	     9.220
  32.180         67.50	     9.000
  32.200         76.67	     9.592
  32.220         65.00	     8.832
  32.240         68.33	     9.055
  32.260         65.00	     8.832
  32.280         63.33	     8.718
  32.300         56.67	     8.246
  32.320         50.83	     7.810
  32.340         64.17	     8.775
  32.360         43.33	     7.211
  32.380         45.00	     7.348
  32.400         48.33	     7.616
  32.420         52.50	     7.937
  32.440         40.00	     6.928
  32.460         40.00	     6.928
  32.480         40.83	     7.000
  32.500         59.17	     8.426
  32.520         41.67	     7.071
  32.540         39.17	     6.856
  32.560         40.83	     7.000
  32.580         36.67	     6.633
  32.600         30.83	     6.083
  32.620         39.17	     6.856
  32.640         39.17	     6.856
  32.660         59.17	     8.426
  32.680         49.17	     7.681
  32.700         41.67	     7.071
  32.720         41.67	     7.071
  32.740         43.33	     7.211
  32.760         52.50	     7.937
  32.780         39.17	     6.856
  32.800         37.50	     6.708
  32.820         49.17	     7.681
  32.840         34.17	     6.403
  32.860         47.50	     7.550
  32.880         40.83	     7.000
  32.900         45.00	     7.348
  32.920         49.17	     7.681
  32.940         51.67	     7.874
  32.960         56.67	     8.246
  32.980         48.33	     7.616
  33.000         80.83	     9.849
  33.020         74.17	     9.434
  33.040        118.33	    11.916
  33.060        167.50	    14.177
  33.080        175.00	    14.491
  33.100         97.50	    10.817
  33.120         80.00	     9.798
  33.140        102.50	    11.091
  33.160        105.00	    11.225
  33.180         62.50	     8.660
  33.200         48.33	     7.616
  33.220         35.83	     6.557
  33.240         49.17	     7.681
  33.260         54.17	     8.062
  33.280         35.00	     6.481
  33.300         53.33	     8.000
  33.320         56.67	     8.246
  33.340         38.33	     6.782
  33.360         50.83	     7.810
  33.380         42.50	     7.141
  33.400         41.67	     7.071
  33.420         30.83	     6.083
  33.440         41.67	     7.071
  33.460         44.17	     7.280
  33.480         39.17	     6.856
  33.500         45.83	     7.416
  33.520         39.17	     6.856
  33.540         45.83	     7.416
  33.560         38.33	     6.782
  33.580         39.17	     6.856
  33.600         40.00	     6.928
  33.620         51.67	     7.874
  33.640         55.00	     8.124
  33.660         40.00	     6.928
  33.680         45.83	     7.416
  33.700         48.33	     7.616
  33.720         52.50	     7.937
  33.740         48.33	     7.616
  33.760         59.17	     8.426
  33.780         36.67	     6.633
  33.800         50.00	     7.746
  33.820         50.00	     7.746
  33.840         49.17	     7.681
  33.860         51.67	     7.874
  33.880         57.50	     8.307
  33.900         49.17	     7.681
  33.920         56.67	     8.246
  33.940         65.00	     8.832
  33.960         75.83	     9.539
  33.980         70.83	     9.220
  34.000         57.50	     8.307
  34.020         44.17	     7.280
  34.040         55.83	     8.185
  34.060         45.00	     7.348
  34.080         55.00	     8.124
  34.100         50.00	     7.746
  34.120         49.17	     7.681
  34.140         35.00	     6.481
  34.160         46.67	     7.483
  34.180         49.17	     7.681
  34.200         55.83	     8.185
  34.220         50.83	     7.810
  34.240         42.50	     7.141
  34.260         62.50	     8.660
  34.280         55.83	     8.185
  34.300         56.67	     8.246
  34.320         64.17	     8.775
  34.340         70.83	     9.220
  34.360         80.83	     9.849
  34.380         83.33	    10.000
  34.400         78.33	     9.695
  34.420         95.00	    10.677
  34.440         95.00	    10.677
  34.460        130.83	    12.530
  34.480        148.33	    13.342
  34.500        299.17	    18.947
  34.520        681.67	    28.601
  34.540       1273.33	    39.090
  34.560       1377.50	    40.657
  34.580        583.33	    26.458
  34.600        421.67	    22.494
  34.620        703.33	    29.052
  34.640        902.50	    32.909
  34.660        490.00	    24.249
  34.680        195.83	    15.330
  34.700        125.83	    12.288
  34.720        110.83	    11.533
  34.740         90.00	    10.392
  34.760         90.00	    10.392
  34.780         80.00	     9.798
  34.800        100.00	    10.954
  34.820         90.00	    10.392
  34.840        106.67	    11.314
  34.860        111.67	    11.576
  34.880        129.17	    12.450
  34.900        135.83	    12.767
  34.920        125.83	    12.288
  34.940        126.67	    12.329
  34.960        131.67	    12.570
  34.980        129.17	    12.450
  35.000        112.50	    11.619
  35.020         92.50	    10.536
  35.040        117.50	    11.874
  35.060        103.33	    11.136
  35.080        116.67	    11.832
  35.100         90.83	    10.440
  35.120        105.00	    11.225
  35.140        121.67	    12.083
  35.160         95.83	    10.724
  35.180        101.67	    11.045
  35.200         97.50	    10.817
  35.220        101.67	    11.045
  35.240        100.83	    11.000
  35.260         88.33	    10.296
  35.280        107.50	    11.358
  35.300         95.83	    10.724
  35.320        101.67	    11.045
  35.340        119.17	    11.958
  35.360        119.17	    11.958
  35.380        185.83	    14.933
  35.400        209.17	    15.843
  35.420        220.00	    16.248
  35.440        255.83	    17.521
  35.460        237.50	    16.882
  35.480        321.67	    19.647
  35.500        376.67	    21.260
  35.520        370.00	    21.071
  35.540        349.17	    20.469
  35.560        355.83	    20.664
  35.580        614.17	    27.148
  35.600       1033.33	    35.214
  35.620        550.83	    25.710
  35.640        264.17	    17.804
  35.660        258.33	    17.607
  35.680        409.17	    22.159
  35.700        445.00	    23.108
  35.720        188.33	    15.033
  35.740        122.50	    12.124
  35.760        116.67	    11.832
  35.780         95.00	    10.677
  35.800         85.83	    10.149
  35.820         87.50	    10.247
  35.840         67.50	     9.000
  35.860         71.67	     9.274
  35.880         70.83	     9.220
  35.900         70.00	     9.165
  35.920         54.17	     8.062
  35.940         91.67	    10.488
  35.960         93.33	    10.583
  35.980         91.67	    10.488
  36.000         95.00	    10.677
  36.020        108.33	    11.402
  36.040         95.00	    10.677
  36.060        128.33	    12.410
  36.080        115.00	    11.747
  36.100        130.83	    12.530
  36.120        114.17	    11.705
  36.140        100.83	    11.000
  36.160         95.83	    10.724
  36.180         79.17	     9.747
  36.200         70.00	     9.165
  36.220         62.50	     8.660
  36.240         60.83	     8.544
  36.260         64.17	     8.775
  36.280         57.50	     8.307
  36.300         58.33	     8.367
  36.320         54.17	     8.062
  36.340         70.83	     9.220
  36.360         76.67	     9.592
  36.380         78.33	     9.695
  36.400        104.17	    11.180
  36.420        130.83	    12.530
  36.440        173.33	    14.422
  36.460        229.17	    16.583
  36.480        285.00	    18.493
  36.500        307.50	    19.209
  36.520        299.17	    18.947
  36.540        225.00	    16.432
  36.560        194.17	    15.264
  36.580        221.67	    16.310
  36.600        230.83	    16.643
  36.620        233.33	    16.733
  36.640        200.00	    15.492
  36.660        266.67	    17.889
  36.680        335.83	    20.075
  36.700        362.50	    20.857
  36.720        332.50	    19.975
  36.740        265.83	    17.861
  36.760        215.83	    16.093
  36.780        209.17	    15.843
  36.800        197.50	    15.395
  36.820        170.00	    14.283
  36.840        113.33	    11.662
  36.860         84.17	    10.050
  36.880         80.00	     9.798
  36.900         59.17	     8.426
  36.920         60.00	     8.485
  36.940         67.50	     9.000
  36.960         71.67	     9.274
  36.980         65.00	     8.832
  37.000         62.50	     8.660
  37.020         70.83	     9.220
  37.040         73.33	     9.381
  37.060         83.33	    10.000
  37.080         90.83	    10.440
  37.100         95.83	    10.724
  37.120        102.50	    11.091
  37.140        104.17	    11.180
  37.160         85.83	    10.149
  37.180         96.67	    10.770
  37.200        106.67	    11.314
  37.220         90.83	    10.440
  37.240         75.83	     9.539
  37.260         69.17	     9.110
  37.280         55.83	     8.185
  37.300         68.33	     9.055
  37.320         69.17	     9.110
  37.340         72.50	     9.327
  37.360         57.50	     8.307
  37.380         83.33	    10.000
  37.400         65.00	     8.832
  37.420         75.83	     9.539
  37.440         78.33	     9.695
  37.460         83.33	    10.000
  37.480         71.67	     9.274
  37.500         72.50	     9.327
  37.520         77.50	     9.644
  37.540         85.83	    10.149
  37.560         78.33	     9.695
  37.580         66.67	     8.944
  37.600         72.50	     9.327
  37.620         74.17	     9.434
  37.640         88.33	    10.296
  37.660         79.17	     9.747
  37.680         66.67	     8.944
  37.700         80.00	     9.798
  37.720         69.17	     9.110
  37.740         74.17	     9.434
  37.760         65.00	     8.832
  37.780         69.17	     9.110
  37.800         63.33	     8.718
  37.820         60.00	     8.485
  37.840         54.17	     8.062
  37.860         42.50	     7.141
  37.880         49.17	     7.681
  37.900         40.83	     7.000
  37.920         40.00	     6.928
  37.940         35.00	     6.481
  37.960         35.83	     6.557
  37.980         45.83	     7.416
  38.000         38.33	     6.782
  38.020         35.83	     6.557
  38.040         29.17	     5.916
  38.060         36.67	     6.633
  38.080         40.00	     6.928
  38.100         47.50	     7.550
  38.120         44.17	     7.280
  38.140         44.17	     7.280
  38.160         30.00	     6.000
  38.180         37.50	     6.708
  38.200         45.00	     7.348
  38.220         38.33	     6.782
  38.240         41.67	     7.071
  38.260         38.33	     6.782
  38.280         45.00	     7.348
  38.300         43.33	     7.211
  38.320         34.17	     6.403
  38.340         43.33	     7.211
  38.360         40.83	     7.000
  38.380         40.00	     6.928
  38.400         44.17	     7.280
  38.420         45.00	     7.348
  38.440         53.33	     8.000
  38.460         57.50	     8.307
  38.480         34.17	     6.403
  38.500         43.33	     7.211
  38.520         39.17	     6.856
  38.540         42.50	     7.141
  38.560         33.33	     6.325
  38.580         42.50	     7.141
  38.600         50.83	     7.810
  38.620         35.83	     6.557
  38.640         43.33	     7.211
  38.660         42.50	     7.141
  38.680         36.67	     6.633
  38.700         44.17	     7.280
  38.720         40.83	     7.000
  38.740         35.83	     6.557
  38.760         51.67	     7.874
  38.780         39.17	     6.856
  38.800         48.33	     7.616
  38.820         39.17	     6.856
  38.840         37.50	     6.708
  38.860         42.50	     7.141
  38.880         25.83	     5.568
  38.900         41.67	     7.071
  38.920         39.17	     6.856
  38.940         32.50	     6.245
  38.960         41.67	     7.071
  38.980         40.83	     7.000
  39.000         45.00	     7.348
  39.020         41.67	     7.071
  39.040         30.00	     6.000
  39.060         48.33	     7.616
  39.080         46.67	     7.483
  39.100         40.00	     6.928
  39.120         42.50	     7.141
  39.140         40.83	     7.000
  39.160         45.83	     7.416
  39.180         35.83	     6.557
  39.200         45.83	     7.416
  39.220         45.83	     7.416
  39.240         36.67	     6.633
  39.260         47.50	     7.550
  39.280         32.50	     6.245
  39.300         40.00	     6.928
  39.320         49.17	     7.681
  39.340         58.33	     8.367
  39.360         61.67	     8.602
  39.380         83.33	    10.000
  39.400        107.50	    11.358
  39.420        105.00	    11.225
  39.440        100.83	    11.000
  39.460         81.67	     9.899
  39.480         64.17	     8.775
  39.500         77.50	     9.644
  39.520         96.67	    10.770
  39.540         79.17	     9.747
  39.560         62.50	     8.660
  39.580         68.33	     9.055
  39.600         55.00	     8.124
  39.620         65.83	     8.888
  39.640         59.17	     8.426
  39.660         57.50	     8.307
  39.680         56.67	     8.246
  39.700         55.83	     8.185
  39.720         54.17	     8.062
  39.740         44.17	     7.280
  39.760         56.67	     8.246
  39.780         59.17	     8.426
  39.800         55.00	     8.124
  39.820         51.67	     7.874
  39.840         55.83	     8.185
  39.860         45.83	     7.416
  39.880         50.83	     7.810
  39.900         50.83	     7.810
  39.920         45.00	     7.348
  39.940         42.50	     7.141
  39.960         45.00	     7.348
  39.980         55.00	     8.124
  40.000         57.50	     8.307
  40.020         58.33	     8.367
  40.040         50.00	     7.746
  40.060         48.33	     7.616
  40.080         53.33	     8.000
  40.100         48.33	     7.616
  40.120         54.17	     8.062
  40.140         49.17	     7.681
  40.160         50.83	     7.810
  40.180         63.33	     8.718
  40.200         75.00	     9.487
  40.220        105.83	    11.269
  40.240        159.17	    13.820
  40.260        215.00	    16.062
  40.280        152.50	    13.528
  40.300         93.33	    10.583
  40.320         80.00	     9.798
  40.340        104.17	    11.180
  40.360        138.33	    12.884
  40.380        120.00	    12.000
  40.400         72.50	     9.327
  40.420         52.50	     7.937
  40.440         52.50	     7.937
  40.460         61.67	     8.602
  40.480         56.67	     8.246
  40.500         52.50	     7.937
  40.520         49.17	     7.681
  40.540         44.17	     7.280
  40.560         36.67	     6.633
  40.580         49.17	     7.681
  40.600         51.67	     7.874
  40.620         46.67	     7.483
  40.640         56.67	     8.246
  40.660         62.50	     8.660
  40.680         40.83	     7.000
  40.700         53.33	     8.000
  40.720         52.50	     7.937
  40.740         55.00	     8.124
  40.760         51.67	     7.874
  40.780         56.67	     8.246
  40.800         47.50	     7.550
  40.820         48.33	     7.616
  40.840         50.00	     7.746
  40.860         65.00	     8.832
  40.880         54.17	     8.062
  40.900         52.50	     7.937
  40.920         64.17	     8.775
  40.940         50.83	     7.810
  40.960         60.00	     8.485
  40.980         70.00	     9.165
  41.000         60.83	     8.544
  41.020         58.33	     8.367
  41.040         52.50	     7.937
  41.060         58.33	     8.367
  41.080         48.33	     7.616
  41.100         49.17	     7.681
  41.120         55.83	     8.185
  41.140         43.33	     7.211
  41.160         41.67	     7.071
  41.180         48.33	     7.616
  41.200         54.17	     8.062
  41.220         41.67	     7.071
  41.240         48.33	     7.616
  41.260         45.00	     7.348
  41.280         39.17	     6.856
  41.300         47.50	     7.550
  41.320         51.67	     7.874
  41.340         42.50	     7.141
  41.360         45.00	     7.348
  41.380         50.00	     7.746
  41.400         44.17	     7.280
  41.420         49.17	     7.681
  41.440         43.33	     7.211
  41.460         44.17	     7.280
  41.480         50.83	     7.810
  41.500         50.00	     7.746
  41.520         52.50	     7.937
  41.540         70.00	     9.165
  41.560         74.17	     9.434
  41.580         97.50	    10.817
  41.600         95.83	    10.724
  41.620        111.67	    11.576
  41.640        104.17	    11.180
  41.660         95.83	    10.724
  41.680         88.33	    10.296
  41.700         98.33	    10.863
  41.720        117.50	    11.874
  41.740         84.17	    10.050
  41.760         90.00	    10.392
  41.780        106.67	    11.314
  41.800        105.83	    11.269
  41.820        101.67	    11.045
  41.840         83.33	    10.000
  41.860         93.33	    10.583
  41.880         99.17	    10.909
  41.900         84.17	    10.050
  41.920        105.83	    11.269
  41.940         74.17	     9.434
  41.960         91.67	    10.488
  41.980         74.17	     9.434
  42.000         73.33	     9.381
  42.020         71.67	     9.274
  42.040         67.50	     9.000
  42.060         70.00	     9.165
  42.080         64.17	     8.775
  42.100         43.33	     7.211
  42.120         53.33	     8.000
  42.140         42.50	     7.141
  42.160         58.33	     8.367
  42.180         48.33	     7.616
  42.200         50.00	     7.746
  42.220         65.00	     8.832
  42.240         60.00	     8.485
  42.260         60.00	     8.485
  42.280         63.33	     8.718
  42.300         64.17	     8.775
  42.320         65.00	     8.832
  42.340         92.50	    10.536
  42.360         93.33	    10.583
  42.380        116.67	    11.832
  42.400        125.00	    12.247
  42.420        120.83	    12.042
  42.440        122.50	    12.124
  42.460        102.50	    11.091
  42.480         90.83	    10.440
  42.500         94.17	    10.630
  42.520         79.17	     9.747
  42.540         84.17	    10.050
  42.560         60.00	     8.485
  42.580         53.33	     8.000
  42.600         59.17	     8.426
  42.620         45.83	     7.416
  42.640         49.17	     7.681
  42.660         53.33	     8.000
  42.680         46.67	     7.483
  42.700         46.67	     7.483
  42.720         42.50	     7.141
  42.740         47.50	     7.550
  42.760         42.50	     7.141
  42.780         53.33	     8.000
  42.800         48.33	     7.616
  42.820         50.83	     7.810
  42.840         46.67	     7.483
  42.860         56.67	     8.246
  42.880         46.67	     7.483
  42.900         41.67	     7.071
  42.920         44.17	     7.280
  42.940         50.00	     7.746
  42.960         53.33	     8.000
  42.980         32.50	     6.245
  43.000         39.17	     6.856
  43.020         35.00	     6.481
  43.040         43.33	     7.211
  43.060         28.33	     5.831
  43.080         43.33	     7.211
  43.100         34.17	     6.403
  43.120         36.67	     6.633
  43.140         46.67	     7.483
  43.160         42.50	     7.141
  43.180         57.50	     8.307
  43.200         28.33	     5.831
  43.220         34.17	     6.403
  43.240         36.67	     6.633
  43.260         40.00	     6.928
  43.280         39.17	     6.856
  43.300         40.00	     6.928
  43.320         44.17	     7.280
  43.340         41.67	     7.071
  43.360         35.83	     6.557
  43.380         45.00	     7.348
  43.400         28.33	     5.831
  43.420         31.67	     6.164
  43.440         40.83	     7.000
  43.460         35.00	     6.481
  43.480         56.67	     8.246
  43.500         53.33	     8.000
  43.520         55.00	     8.124
  43.540         59.17	     8.426
  43.560         83.33	    10.000
  43.580         92.50	    10.536
  43.600        109.17	    11.446
  43.620         98.33	    10.863
  43.640         93.33	    10.583
  43.660         83.33	    10.000
  43.680         68.33	     9.055
  43.700         67.50	     9.000
  43.720         62.50	     8.660
  43.740         65.00	     8.832
  43.760         64.17	     8.775
  43.780         40.83	     7.000
  43.800         45.00	     7.348
  43.820         37.50	     6.708
  43.840         44.17	     7.280
  43.860         40.00	     6.928
  43.880         37.50	     6.708
  43.900         50.00	     7.746
  43.920         43.33	     7.211
  43.940         54.17	     8.062
  43.960         34.17	     6.403
  43.980         45.83	     7.416
  44.000         48.33	     7.616
  44.020         49.17	     7.681
  44.040         36.67	     6.633
  44.060         41.67	     7.071
  44.080         43.33	     7.211
  44.100         38.33	     6.782
  44.120         46.67	     7.483
  44.140         56.67	     8.246
  44.160         55.83	     8.185
  44.180         40.83	     7.000
  44.200         55.83	     8.185
  44.220         38.33	     6.782
  44.240         57.50	     8.307
  44.260         52.50	     7.937
  44.280         55.83	     8.185
  44.300         53.33	     8.000
  44.320         55.00	     8.124
  44.340         51.67	     7.874
  44.360         45.00	     7.348
  44.380         50.83	     7.810
  44.400         48.33	     7.616
  44.420         47.50	     7.550
  44.440         51.67	     7.874
  44.460         37.50	     6.708
  44.480         34.17	     6.403
  44.500         50.00	     7.746
  44.520         55.00	     8.124
  44.540         60.83	     8.544
  44.560         50.00	     7.746
  44.580         40.00	     6.928
  44.600         44.17	     7.280
  44.620         45.00	     7.348
  44.640         39.17	     6.856
  44.660         59.17	     8.426
  44.680         48.33	     7.616
  44.700         50.00	     7.746
  44.720         52.50	     7.937
  44.740         48.33	     7.616
  44.760         55.00	     8.124
  44.780         43.33	     7.211
  44.800         53.33	     8.000
  44.820         59.17	     8.426
  44.840         56.67	     8.246
  44.860         66.67	     8.944
  44.880         68.33	     9.055
  44.900         78.33	     9.695
  44.920         64.17	     8.775
  44.940         65.00	     8.832
  44.960         68.33	     9.055
  44.980         66.67	     8.944
  45.000         72.50	     9.327
  45.020         75.00	     9.487
  45.040         78.33	     9.695
  45.060         83.33	    10.000
  45.080         77.50	     9.644
  45.100         65.00	     8.832
  45.120         55.00	     8.124
  45.140         62.50	     8.660
  45.160         60.00	     8.485
  45.180         74.17	     9.434
  45.200         58.33	     8.367
  45.220         65.83	     8.888
  45.240         75.00	     9.487
  45.260         64.17	     8.775
  45.280         65.83	     8.888
  45.300         59.17	     8.426
  45.320         73.33	     9.381
  45.340         76.67	     9.592
  45.360         98.33	    10.863
  45.380        102.50	    11.091
  45.400        125.83	    12.288
  45.420        152.50	    13.528
  45.440        185.83	    14.933
  45.460        206.67	    15.748
  45.480        249.17	    17.292
  45.500        239.17	    16.941
  45.520        295.83	    18.841
  45.540        379.17	    21.331
  45.560        400.00	    21.909
  45.580        426.67	    22.627
  45.600        403.33	    22.000
  45.620        325.83	    19.774
  45.640        296.67	    18.868
  45.660        250.00	    17.321
  45.680        241.67	    17.029
  45.700        250.83	    17.349
  45.720        265.00	    17.833
  45.740        205.83	    15.716
  45.760        168.33	    14.213
  45.780        104.17	    11.180
  45.800         80.00	     9.798
  45.820         75.83	     9.539
  45.840         80.00	     9.798
  45.860         80.83	     9.849
  45.880         80.00	     9.798
  45.900         58.33	     8.367
  45.920         59.17	     8.426
  45.940         46.67	     7.483
  45.960         57.50	     8.307
  45.980         47.50	     7.550
  46.000         50.83	     7.810
  46.020         56.67	     8.246
  46.040         50.00	     7.746
  46.060         45.00	     7.348
  46.080         43.33	     7.211
  46.100         37.50	     6.708
  46.120         40.83	     7.000
  46.140         36.67	     6.633
  46.160         44.17	     7.280
  46.180         34.17	     6.403
  46.200         30.00	     6.000
  46.220         40.00	     6.928
  46.240         30.00	     6.000
  46.260         31.67	     6.164
  46.280         38.33	     6.782
  46.300         32.50	     6.245
  46.320         45.83	     7.416
  46.340         26.67	     5.657
  46.360         49.17	     7.681
  46.380         25.83	     5.568
  46.400         38.33	     6.782
  46.420         35.83	     6.557
  46.440         30.83	     6.083
  46.460         45.00	     7.348
  46.480         31.67	     6.164
  46.500         27.50	     5.745
  46.520         36.67	     6.633
  46.540         30.00	     6.000
  46.560         34.17	     6.403
  46.580         33.33	     6.325
  46.600         34.17	     6.403
  46.620         35.00	     6.481
  46.640         35.00	     6.481
  46.660         29.17	     5.916
  46.680         31.67	     6.164
  46.700         27.50	     5.745
  46.720         37.50	     6.708
  46.740         42.50	     7.141
  46.760         32.50	     6.245
  46.780         34.17	     6.403
  46.800         38.33	     6.782
  46.820         33.33	     6.325
  46.840         33.33	     6.325
  46.860         40.00	     6.928
  46.880         28.33	     5.831
  46.900         37.50	     6.708
  46.920         35.83	     6.557
  46.940         37.50	     6.708
  46.960         38.33	     6.782
  46.980         28.33	     5.831
  47.000         42.50	     7.141
  47.020         40.00	     6.928
  47.040         46.67	     7.483
  47.060         40.83	     7.000
  47.080         37.50	     6.708
  47.100         55.00	     8.124
  47.120         68.33	     9.055
  47.140         60.00	     8.485
  47.160         54.17	     8.062
  47.180         46.67	     7.483
  47.200         60.00	     8.485
  47.220         48.33	     7.616
  47.240         34.17	     6.403
  47.260         46.67	     7.483
  47.280         38.33	     6.782
  47.300         32.50	     6.245
  47.320         41.67	     7.071
  47.340         29.17	     5.916
  47.360         36.67	     6.633
  47.380         32.50	     6.245
  47.400         39.17	     6.856
  47.420         26.67	     5.657
  47.440         30.00	     6.000
  47.460         33.33	     6.325
  47.480         40.00	     6.928
  47.500         30.00	     6.000
  47.520         32.50	     6.245
  47.540         34.17	     6.403
  47.560         35.83	     6.557
  47.580         29.17	     5.916
  47.600         37.50	     6.708
  47.620         27.50	     5.745
  47.640         25.83	     5.568
  47.660         47.50	     7.550
  47.680         35.00	     6.481
  47.700         26.67	     5.657
  47.720         41.67	     7.071
  47.740         30.83	     6.083
  47.760         38.33	     6.782
  47.780         43.33	     7.211
  47.800         30.83	     6.083
  47.820         40.83	     7.000
  47.840         34.17	     6.403
  47.860         52.50	     7.937
  47.880         31.67	     6.164
  47.900         70.00	     9.165
  47.920         41.67	     7.071
  47.940         43.33	     7.211
  47.960         50.83	     7.810
  47.980         45.83	     7.416
  48.000         45.00	     7.348
  48.020         55.00	     8.124
  48.040         45.83	     7.416
  48.060         48.33	     7.616
  48.080         54.17	     8.062
  48.100         43.33	     7.211
  48.120         48.33	     7.616
  48.140         50.83	     7.810
  48.160         42.50	     7.141
  48.180         40.83	     7.000
  48.200         47.50	     7.550
  48.220         56.67	     8.246
  48.240         59.17	     8.426
  48.260         39.17	     6.856
  48.280         50.83	     7.810
  48.300         45.00	     7.348
  48.320         52.50	     7.937
  48.340         39.17	     6.856
  48.360         40.83	     7.000
  48.380         48.33	     7.616
  48.400         45.00	     7.348
  48.420         45.83	     7.416
  48.440         44.17	     7.280
  48.460         35.83	     6.557
  48.480         36.67	     6.633
  48.500         45.83	     7.416
  48.520         40.00	     6.928
  48.540         45.83	     7.416
  48.560         49.17	     7.681
  48.580         57.50	     8.307
  48.600         61.67	     8.602
  48.620         63.33	     8.718
  48.640         50.83	     7.810
  48.660         45.83	     7.416
  48.680         42.50	     7.141
  48.700         51.67	     7.874
  48.720         42.50	     7.141
  48.740         47.50	     7.550
  48.760         33.33	     6.325
  48.780         35.00	     6.481
  48.800         34.17	     6.403
  48.820         38.33	     6.782
  48.840         52.50	     7.937
  48.860         35.83	     6.557
  48.880         32.50	     6.245
  48.900         31.67	     6.164
  48.920         30.83	     6.083
  48.940         39.17	     6.856
  48.960         40.83	     7.000
  48.980         35.00	     6.481
  49.000         30.83	     6.083
  49.020         35.00	     6.481
  49.040         30.83	     6.083
  49.060         27.50	     5.745
  49.080         35.83	     6.557
  49.100         40.00	     6.928
  49.120         36.67	     6.633
  49.140         35.00	     6.481
  49.160         46.67	     7.483
  49.180         40.00	     6.928
  49.200         42.50	     7.141
  49.220         30.00	     6.000
  49.240         35.83	     6.557
  49.260         35.00	     6.481
  49.280         36.67	     6.633
  49.300         45.83	     7.416
  49.320         31.67	     6.164
  49.340         44.17	     7.280
  49.360         43.33	     7.211
  49.380         43.33	     7.211
  49.400         37.50	     6.708
  49.420         35.83	     6.557
  49.440         40.00	     6.928
  49.460         44.17	     7.280
  49.480         56.67	     8.246
  49.500         44.17	     7.280
  49.520         58.33	     8.367
  49.540         64.17	     8.775
  49.560         60.83	     8.544
  49.580         53.33	     8.000
  49.600         58.33	     8.367
  49.620         46.67	     7.483
  49.640         56.67	     8.246
  49.660         75.83	     9.539
  49.680         56.67	     8.246
  49.700         78.33	     9.695
  49.720         88.33	    10.296
  49.740         75.83	     9.539
  49.760         74.17	     9.434
  49.780         80.00	     9.798
  49.800         67.50	     9.000
  49.820         65.83	     8.888
  49.840         73.33	     9.381
  49.860         78.33	     9.695
  49.880         80.00	     9.798
  49.900         93.33	    10.583
  49.920         82.50	     9.950
  49.940         89.17	    10.344
  49.960         68.33	     9.055
  49.980         77.50	     9.644
  50.000         74.17	     9.434
  50.020         85.83	    10.149
  50.040        135.83	    12.767
  50.060        187.50	    15.000
  50.080        236.67	    16.852
  50.100        315.83	    19.468
  50.120        240.00	    16.971
  50.140        180.00	    14.697
  50.160        134.17	    12.689
  50.180        124.17	    12.207
  50.200        132.50	    12.610
  50.220        191.67	    15.166
  50.240        191.67	    15.166
  50.260        182.50	    14.799
  50.280        117.50	    11.874
  50.300         90.83	    10.440
  50.320         76.67	     9.592
  50.340         71.67	     9.274
  50.360         63.33	     8.718
  50.380         67.50	     9.000
  50.400         73.33	     9.381
  50.420         57.50	     8.307
  50.440         51.67	     7.874
  50.460         55.00	     8.124
  50.480         58.33	     8.367
  50.500         67.50	     9.000
  50.520         99.17	    10.909
  50.540        101.67	    11.045
  50.560        124.17	    12.207
  50.580        215.00	    16.062
  50.600        193.33	    15.232
  50.620        129.17	    12.450
  50.640         89.17	    10.344
  50.660         74.17	     9.434
  50.680         91.67	    10.488
  50.700         99.17	    10.909
  50.720        135.00	    12.728
  50.740        122.50	    12.124
  50.760         72.50	     9.327
  50.780         60.00	     8.485
  50.800         51.67	     7.874
  50.820         47.50	     7.550
  50.840         44.17	     7.280
  50.860         42.50	     7.141
  50.880         37.50	     6.708
  50.900         28.33	     5.831
  50.920         43.33	     7.211
  50.940         47.50	     7.550
  50.960         43.33	     7.211
  50.980         43.33	     7.211
  51.000         43.33	     7.211
  51.020         58.33	     8.367
  51.040         58.33	     8.367
  51.060         58.33	     8.367
  51.080         65.00	     8.832
  51.100         70.83	     9.220
  51.120         76.67	     9.592
  51.140         89.17	    10.344
  51.160         70.83	     9.220
  51.180         50.83	     7.810
  51.200         72.50	     9.327
  51.220         71.67	     9.274
  51.240         70.00	     9.165
  51.260         85.00	    10.100
  51.280         78.33	     9.695
  51.300         79.17	     9.747
  51.320         55.00	     8.124
  51.340         63.33	     8.718
  51.360         49.17	     7.681
  51.380         48.33	     7.616
  51.400         49.17	     7.681
  51.420         54.17	     8.062
  51.440         40.83	     7.000
  51.460         49.17	     7.681
  51.480         37.50	     6.708
  51.500         31.67	     6.164
  51.520         38.33	     6.782
  51.540         30.83	     6.083
  51.560         31.67	     6.164
  51.580         42.50	     7.141
  51.600         37.50	     6.708
  51.620         35.00	     6.481
  51.640         38.33	     6.782
  51.660         37.50	     6.708
  51.680         26.67	     5.657
  51.700         35.83	     6.557
  51.720         43.33	     7.211
  51.740         36.67	     6.633
  51.760         43.33	     7.211
  51.780         26.67	     5.657
  51.800         27.50	     5.745
  51.820         27.50	     5.745
  51.840         40.00	     6.928
  51.860         35.00	     6.481
  51.880         45.83	     7.416
  51.900         35.00	     6.481
  51.920         31.67	     6.164
  51.940         38.33	     6.782
  51.960         36.67	     6.633
  51.980         30.83	     6.083
  52.000         40.83	     7.000
  52.020         40.83	     7.000
  52.040         30.83	     6.083
  52.060         45.00	     7.348
  52.080         51.67	     7.874
  52.100         40.00	     6.928
  52.120         59.17	     8.426
  52.140         60.83	     8.544
  52.160         44.17	     7.280
  52.180         44.17	     7.280
  52.200         50.00	     7.746
  52.220         50.83	     7.810
  52.240         45.00	     7.348
  52.260         50.00	     7.746
  52.280         55.00	     8.124
  52.300         45.00	     7.348
  52.320         40.00	     6.928
  52.340         45.00	     7.348
  52.360         41.67	     7.071
  52.380         50.83	     7.810
  52.400         55.83	     8.185
  52.420         56.67	     8.246
  52.440         60.83	     8.544
  52.460         52.50	     7.937
  52.480         65.00	     8.832
  52.500         55.00	     8.124
  52.520         66.67	     8.944
  52.540         61.67	     8.602
  52.560         60.00	     8.485
  52.580         55.00	     8.124
  52.600         51.67	     7.874
  52.620         45.83	     7.416
  52.640         52.50	     7.937
  52.660         35.00	     6.481
  52.680         54.17	     8.062
  52.700         36.67	     6.633
  52.720         47.50	     7.550
  52.740         41.67	     7.071
  52.760         34.17	     6.403
  52.780         38.33	     6.782
  52.800         26.67	     5.657
  52.820         35.83	     6.557
  52.840         42.50	     7.141
  52.860         45.00	     7.348
  52.880         51.67	     7.874
  52.900         45.83	     7.416
  52.920         41.67	     7.071
  52.940         32.50	     6.245
  52.960         35.00	     6.481
  52.980         43.33	     7.211
  53.000         40.83	     7.000
  53.020         35.83	     6.557
  53.040         32.50	     6.245
  53.060         35.83	     6.557
  53.080         36.67	     6.633
  53.100         42.50	     7.141
  53.120         31.67	     6.164
  53.140         36.67	     6.633
  53.160         43.33	     7.211
  53.180         42.50	     7.141
  53.200         43.33	     7.211
  53.220         37.50	     6.708
  53.240         30.83	     6.083
  53.260         34.17	     6.403
  53.280         44.17	     7.280
  53.300         36.67	     6.633
  53.320         36.67	     6.633
  53.340         36.67	     6.633
  53.360         50.83	     7.810
  53.380         50.00	     7.746
  53.400         43.33	     7.211
  53.420         45.83	     7.416
  53.440         46.67	     7.483
  53.460         47.50	     7.550
  53.480         47.50	     7.550
  53.500         31.67	     6.164
  53.520         33.33	     6.325
  53.540         31.67	     6.164
  53.560         40.83	     7.000
  53.580         36.67	     6.633
  53.600         30.83	     6.083
  53.620         32.50	     6.245
  53.640         40.83	     7.000
  53.660         41.67	     7.071
  53.680         54.17	     8.062
  53.700         43.33	     7.211
  53.720         38.33	     6.782
  53.740         39.17	     6.856
  53.760         41.67	     7.071
  53.780         32.50	     6.245
  53.800         38.33	     6.782
  53.820         38.33	     6.782
  53.840         45.00	     7.348
  53.860         39.17	     6.856
  53.880         35.00	     6.481
  53.900         40.83	     7.000
  53.920         38.33	     6.782
  53.940         41.67	     7.071
  53.960         31.67	     6.164
  53.980         35.00	     6.481
  54.000         33.33	     6.325
  54.020         44.17	     7.280
  54.040         24.17	     5.385
  54.060         31.67	     6.164
  54.080         36.67	     6.633
  54.100         36.67	     6.633
  54.120         30.83	     6.083
  54.140         36.67	     6.633
  54.160         36.67	     6.633
  54.180         34.17	     6.403
  54.200         53.33	     8.000
  54.220         34.17	     6.403
  54.240         42.50	     7.141
  54.260         50.83	     7.810
  54.280         52.50	     7.937
  54.300         49.17	     7.681
  54.320         75.83	     9.539
  54.340         78.33	     9.695
  54.360         60.83	     8.544
  54.380         37.50	     6.708
  54.400         42.50	     7.141
  54.420         45.83	     7.416
  54.440         48.33	     7.616
  54.460         68.33	     9.055
  54.480         56.67	     8.246
  54.500         60.00	     8.485
  54.520         57.50	     8.307
  54.540         55.83	     8.185
  54.560         45.83	     7.416
  54.580         44.17	     7.280
  54.600         36.67	     6.633
  54.620         48.33	     7.616
  54.640         46.67	     7.483
  54.660         31.67	     6.164
  54.680         48.33	     7.616
  54.700         41.67	     7.071
  54.720         45.83	     7.416
  54.740         50.83	     7.810
  54.760         61.67	     8.602
  54.780         70.83	     9.220
  54.800         76.67	     9.592
  54.820         97.50	    10.817
  54.840         93.33	    10.583
  54.860         73.33	     9.381
  54.880         64.17	     8.775
  54.900         60.83	     8.544
  54.920         60.00	     8.485
  54.940         73.33	     9.381
  54.960         78.33	     9.695
  54.980         72.50	     9.327
  55.000         46.67	     7.483
  55.020         52.50	     7.937
  55.040         45.83	     7.416
  55.060         50.00	     7.746
  55.080         51.67	     7.874
  55.100         40.83	     7.000
  55.120         37.50	     6.708
  55.140         45.83	     7.416
  55.160         35.83	     6.557
  55.180         45.83	     7.416
  55.200         50.83	     7.810
  55.220         44.17	     7.280
  55.240         61.67	     8.602
  55.260         54.17	     8.062
  55.280         67.50	     9.000
  55.300         57.50	     8.307
  55.320         62.50	     8.660
  55.340         56.67	     8.246
  55.360         39.17	     6.856
  55.380         52.50	     7.937
  55.400         65.00	     8.832
  55.420         53.33	     8.000
  55.440         60.00	     8.485
  55.460         55.00	     8.124
  55.480         45.83	     7.416
  55.500         47.50	     7.550
  55.520         44.17	     7.280
  55.540         30.83	     6.083
  55.560         45.00	     7.348
  55.580         55.00	     8.124
  55.600         46.67	     7.483
  55.620         48.33	     7.616
  55.640         47.50	     7.550
  55.660         35.00	     6.481
  55.680         52.50	     7.937
  55.700         45.83	     7.416
  55.720         44.17	     7.280
  55.740         53.33	     8.000
  55.760         51.67	     7.874
  55.780         45.00	     7.348
  55.800         50.00	     7.746
  55.820         45.00	     7.348
  55.840         54.17	     8.062
  55.860         53.33	     8.000
  55.880         50.00	     7.746
  55.900         47.50	     7.550
  55.920         55.00	     8.124
  55.940         41.67	     7.071
  55.960         44.17	     7.280
  55.980         51.67	     7.874
  56.000         39.17	     6.856
  56.020         34.17	     6.403
  56.040         37.50	     6.708
  56.060         49.17	     7.681
  56.080         40.00	     6.928
  56.100         44.17	     7.280
  56.120         40.83	     7.000
  56.140         43.33	     7.211
  56.160         35.00	     6.481
  56.180         41.67	     7.071
  56.200         41.67	     7.071
  56.220         35.00	     6.481
  56.240         31.67	     6.164
  56.260         44.17	     7.280
  56.280         35.83	     6.557
  56.300         33.33	     6.325
  56.320         37.50	     6.708
  56.340         34.17	     6.403
  56.360         30.00	     6.000
  56.380         28.33	     5.831
  56.400         39.17	     6.856
  56.420         33.33	     6.325
  56.440         34.17	     6.403
  56.460         31.67	     6.164
  56.480         37.50	     6.708
  56.500         39.17	     6.856
  56.520         35.83	     6.557
  56.540         47.50	     7.550
  56.560         35.83	     6.557
  56.580         35.00	     6.481
  56.600         36.67	     6.633
  56.620         40.83	     7.000
  56.640         39.17	     6.856
  56.660         32.50	     6.245
  56.680         47.50	     7.550
  56.700         53.33	     8.000
  56.720         44.17	     7.280
  56.740         36.67	     6.633
  56.760         38.33	     6.782
  56.780         28.33	     5.831
  56.800         45.83	     7.416
  56.820         39.17	     6.856
  56.840         48.33	     7.616
  56.860         43.33	     7.211
  56.880         57.50	     8.307
  56.900         50.00	     7.746
  56.920         50.83	     7.810
  56.940         47.50	     7.550
  56.960         40.00	     6.928
  56.980         36.67	     6.633
  57.000         41.67	     7.071
  57.020         45.00	     7.348
  57.040         37.50	     6.708
  57.060         26.67	     5.657
  57.080         33.33	     6.325
  57.100         44.17	     7.280
  57.120         47.50	     7.550
  57.140         30.00	     6.000
  57.160         36.67	     6.633
  57.180         42.50	     7.141
  57.200         41.67	     7.071
  57.220         50.83	     7.810
  57.240         35.00	     6.481
  57.260         28.33	     5.831
  57.280         30.83	     6.083
  57.300         51.67	     7.874
  57.320         41.67	     7.071
  57.340         40.83	     7.000
  57.360         40.00	     6.928
  57.380         35.83	     6.557
  57.400         33.33	     6.325
  57.420         31.67	     6.164
  57.440         35.83	     6.557
  57.460         39.17	     6.856
  57.480         35.83	     6.557
  57.500         35.00	     6.481
  57.520         30.83	     6.083
  57.540         37.50	     6.708
  57.560         36.67	     6.633
  57.580         42.50	     7.141
  57.600         39.17	     6.856
  57.620         36.67	     6.633
  57.640         37.50	     6.708
  57.660         54.17	     8.062
  57.680         55.00	     8.124
  57.700         40.83	     7.000
  57.720         44.17	     7.280
  57.740         45.83	     7.416
  57.760         43.33	     7.211
  57.780         42.50	     7.141
  57.800         52.50	     7.937
  57.820         49.17	     7.681
  57.840         35.00	     6.481
  57.860         33.33	     6.325
  57.880         45.00	     7.348
  57.900         26.67	     5.657
  57.920         50.00	     7.746
  57.940         46.67	     7.483
  57.960         40.83	     7.000
  57.980         45.83	     7.416
  58.000         46.67	     7.483
  58.020         44.17	     7.280
  58.040         50.00	     7.746
  58.060         50.83	     7.810
  58.080         48.33	     7.616
  58.100         44.17	     7.280
  58.120         35.00	     6.481
  58.140         44.17	     7.280
  58.160         48.33	     7.616
  58.180         42.50	     7.141
  58.200         40.00	     6.928
  58.220         46.67	     7.483
  58.240         48.33	     7.616
  58.260         43.33	     7.211
  58.280         38.33	     6.782
  58.300         45.00	     7.348
  58.320         35.83	     6.557
  58.340         35.83	     6.557
  58.360         46.67	     7.483
  58.380         53.33	     8.000
  58.400         44.17	     7.280
  58.420         35.00	     6.481
  58.440         60.00	     8.485
  58.460         52.50	     7.937
  58.480         66.67	     8.944
  58.500         61.67	     8.602
  58.520         45.00	     7.348
  58.540         50.83	     7.810
  58.560         64.17	     8.775
  58.580         67.50	     9.000
  58.600         69.17	     9.110
  58.620         69.17	     9.110
  58.640         60.83	     8.544
  58.660         58.33	     8.367
  58.680         59.17	     8.426
  58.700         63.33	     8.718
  58.720         45.00	     7.348
  58.740         60.83	     8.544
  58.760         51.67	     7.874
  58.780         59.17	     8.426
  58.800         47.50	     7.550
  58.820         58.33	     8.367
  58.840         45.00	     7.348
  58.860         54.17	     8.062
  58.880         48.33	     7.616
  58.900         55.00	     8.124
  58.920         62.50	     8.660
  58.940         63.33	     8.718
  58.960         90.83	    10.440
  58.980         85.83	    10.149
  59.000         77.50	     9.644
  59.020         56.67	     8.246
  59.040         65.00	     8.832
  59.060         71.67	     9.274
  59.080         84.17	    10.050
  59.100         75.83	     9.539
  59.120         69.17	     9.110
  59.140         89.17	    10.344
  59.160         90.83	    10.440
  59.180         90.83	    10.440
  59.200         88.33	    10.296
  59.220         70.83	     9.220
  59.240         75.83	     9.539
  59.260         59.17	     8.426
  59.280         60.83	     8.544
  59.300         62.50	     8.660
  59.320         65.00	     8.832
  59.340         53.33	     8.000
  59.360         49.17	     7.681
  59.380         55.83	     8.185
  59.400         45.83	     7.416
  59.420         38.33	     6.782
  59.440         40.00	     6.928
  59.460         44.17	     7.280
  59.480         49.17	     7.681
  59.500         45.00	     7.348
  59.520         46.67	     7.483
  59.540         55.00	     8.124
  59.560         38.33	     6.782
  59.580         50.00	     7.746
  59.600         44.17	     7.280
  59.620         40.00	     6.928
  59.640         44.17	     7.280
  59.660         65.83	     8.888
  59.680         55.83	     8.185
  59.700         70.00	     9.165
  59.720         44.17	     7.280
  59.740         49.17	     7.681
  59.760         53.33	     8.000
  59.780         75.83	     9.539
  59.800         80.00	     9.798
  59.820         90.83	    10.440
  59.840        123.33	    12.166
  59.860        160.00	    13.856
  59.880        235.00	    16.793
  59.900        279.17	    18.303
  59.920        270.00	    18.000
  59.940        273.33	    18.111
  59.960        191.67	    15.166
  59.980        127.50	    12.369
  60.000        120.00	    12.000
  60.020        148.33	    13.342
  60.040        167.50	    14.177
  60.060        187.50	    15.000
  60.080        204.17	    15.652
  60.100        170.00	    14.283
  60.120        135.00	    12.728
  60.140         91.67	    10.488
  60.160         76.67	     9.592
  60.180         65.00	     8.832
  60.200         69.17	     9.110
  60.220         61.67	     8.602
  60.240         51.67	     7.874
  60.260         61.67	     8.602
  60.280         54.17	     8.062
  60.300         70.83	     9.220
  60.320         57.50	     8.307
  60.340         46.67	     7.483
  60.360         51.67	     7.874
  60.380         62.50	     8.660
  60.400         55.00	     8.124
  60.420         60.00	     8.485
  60.440         64.17	     8.775
  60.460         72.50	     9.327
  60.480         68.33	     9.055
  60.500         60.83	     8.544
  60.520         54.17	     8.062
  60.540         65.00	     8.832
  60.560         69.17	     9.110
  60.580         65.83	     8.888
  60.600         75.00	     9.487
  60.620         65.83	     8.888
  60.640         65.83	     8.888
  60.660         68.33	     9.055
  60.680         75.00	     9.487
  60.700         55.83	     8.185
  60.720         63.33	     8.718
  60.740         73.33	     9.381
  60.760         69.17	     9.110
  60.780         61.67	     8.602
  60.800         80.00	     9.798
  60.820         70.83	     9.220
  60.840         58.33	     8.367
  60.860         76.67	     9.592
  60.880         73.33	     9.381
  60.900         66.67	     8.944
  60.920         67.50	     9.000
  60.940         61.67	     8.602
  60.960         68.33	     9.055
  60.980         58.33	     8.367
  61.000         67.50	     9.000
  61.020         58.33	     8.367
  61.040         55.83	     8.185
  61.060         48.33	     7.616
  61.080         73.33	     9.381
  61.100         50.83	     7.810
  61.120         47.50	     7.550
  61.140         46.67	     7.483
  61.160         68.33	     9.055
  61.180         47.50	     7.550
  61.200         40.00	     6.928
  61.220         57.50	     8.307
  61.240         45.00	     7.348
  61.260         49.17	     7.681
  61.280         44.17	     7.280
  61.300         56.67	     8.246
  61.320         49.17	     7.681
  61.340         73.33	     9.381
  61.360         55.00	     8.124
  61.380         60.83	     8.544
  61.400         62.50	     8.660
  61.420         56.67	     8.246
  61.440         73.33	     9.381
  61.460         63.33	     8.718
  61.480         75.83	     9.539
  61.500         75.00	     9.487
  61.520         80.00	     9.798
  61.540         72.50	     9.327
  61.560         60.83	     8.544
  61.580         79.17	     9.747
  61.600         64.17	     8.775
  61.620         50.00	     7.746
  61.640         60.00	     8.485
  61.660         64.17	     8.775
  61.680         57.50	     8.307
  61.700         64.17	     8.775
  61.720         59.17	     8.426
  61.740         50.83	     7.810
  61.760         50.00	     7.746
  61.780         54.17	     8.062
  61.800         55.00	     8.124
  61.820         55.83	     8.185
  61.840         51.67	     7.874
  61.860         51.67	     7.874
  61.880         44.17	     7.280
  61.900         58.33	     8.367
  61.920         55.00	     8.124
  61.940         75.00	     9.487
  61.960         62.50	     8.660
  61.980         57.50	     8.307
  62.000         65.83	     8.888
  62.020         52.50	     7.937
  62.040         52.50	     7.937
  62.060         52.50	     7.937
  62.080         56.67	     8.246
  62.100         53.33	     8.000
  62.120         44.17	     7.280
  62.140         55.83	     8.185
  62.160         40.83	     7.000
  62.180         45.83	     7.416
  62.200         44.17	     7.280
  62.220         40.00	     6.928
  62.240         33.33	     6.325
  62.260         45.00	     7.348
  62.280         53.33	     8.000
  62.300         36.67	     6.633
  62.320         45.83	     7.416
  62.340         45.00	     7.348
  62.360         27.50	     5.745
  62.380         40.00	     6.928
  62.400         40.83	     7.000
  62.420         35.83	     6.557
  62.440         35.00	     6.481
  62.460         43.33	     7.211
  62.480         55.83	     8.185
  62.500         56.67	     8.246
  62.520         61.67	     8.602
  62.540         57.50	     8.307
  62.560         46.67	     7.483
  62.580         50.00	     7.746
  62.600         50.83	     7.810
  62.620         46.67	     7.483
  62.640         52.50	     7.937
  62.660         59.17	     8.426
  62.680         51.67	     7.874
  62.700         65.83	     8.888
  62.720         61.67	     8.602
  62.740         52.50	     7.937
  62.760         53.33	     8.000
  62.780         43.33	     7.211
  62.800         40.00	     6.928
  62.820         45.00	     7.348
  62.840         44.17	     7.280
  62.860         47.50	     7.550
  62.880         45.83	     7.416
  62.900         46.67	     7.483
  62.920         35.00	     6.481
  62.940         37.50	     6.708
  62.960         34.17	     6.403
  62.980         41.67	     7.071
  63.000         40.00	     6.928
  63.020         35.00	     6.481
  63.040         31.67	     6.164
  63.060         33.33	     6.325
  63.080         36.67	     6.633
  63.100         29.17	     5.916
  63.120         29.17	     5.916
  63.140         31.67	     6.164
  63.160         37.50	     6.708
  63.180         49.17	     7.681
  63.200         35.83	     6.557
  63.220         43.33	     7.211
  63.240         45.00	     7.348
  63.260         43.33	     7.211
  63.280         48.33	     7.616
  63.300         46.67	     7.483
  63.320         45.83	     7.416
  63.340         45.00	     7.348
  63.360         45.83	     7.416
  63.380         43.33	     7.211
  63.400         40.00	     6.928
  63.420         45.83	     7.416
  63.440         51.67	     7.874
  63.460         48.33	     7.616
  63.480         48.33	     7.616
  63.500         41.67	     7.071
  63.520         51.67	     7.874
  63.540         36.67	     6.633
  63.560         45.00	     7.348
  63.580         55.00	     8.124
  63.600         52.50	     7.937
  63.620         40.83	     7.000
  63.640         43.33	     7.211
  63.660         47.50	     7.550
  63.680         47.50	     7.550
  63.700         46.67	     7.483
  63.720         47.50	     7.550
  63.740         49.17	     7.681
  63.760         44.17	     7.280
  63.780         45.83	     7.416
  63.800         45.00	     7.348
  63.820         45.00	     7.348
  63.840         43.33	     7.211
  63.860         47.50	     7.550
  63.880         49.17	     7.681
  63.900         45.00	     7.348
  63.920         52.50	     7.937
  63.940         65.00	     8.832
  63.960         83.33	    10.000
  63.980        101.67	    11.045
  64.000        104.17	    11.180
  64.020         78.33	     9.695
  64.040         57.50	     8.307
  64.060         61.67	     8.602
  64.080         52.50	     7.937
  64.100         68.33	     9.055
  64.120         71.67	     9.274
  64.140         72.50	     9.327
  64.160         90.83	    10.440
  64.180         92.50	    10.536
  64.200         83.33	    10.000
  64.220         73.33	     9.381
  64.240         54.17	     8.062
  64.260         65.83	     8.888
  64.280         60.00	     8.485
  64.300         50.83	     7.810
  64.320         60.83	     8.544
  64.340         52.50	     7.937
  64.360         48.33	     7.616
  64.380         56.67	     8.246
  64.400         50.83	     7.810
  64.420         50.83	     7.810
  64.440         58.33	     8.367
  64.460         59.17	     8.426
  64.480         44.17	     7.280
  64.500         41.67	     7.071
  64.520         37.50	     6.708
  64.540         39.17	     6.856
  64.560         44.17	     7.280
  64.580         44.17	     7.280
  64.600         32.50	     6.245
  64.620         51.67	     7.874
  64.640         50.00	     7.746
  64.660         45.00	     7.348
  64.680         47.50	     7.550
  64.700         45.83	     7.416
  64.720         46.67	     7.483
  64.740         49.17	     7.681
  64.760         41.67	     7.071
  64.780         57.50	     8.307
  64.800         42.50	     7.141
  64.820         37.50	     6.708
  64.840         33.33	     6.325
  64.860         32.50	     6.245
  64.880         52.50	     7.937
  64.900         41.67	     7.071
  64.920         58.33	     8.367
  64.940         37.50	     6.708
  64.960         47.50	     7.550
  64.980         46.67	     7.483
  65.000         38.33	     6.782
