
Filename:
	C:\Program Files\Thermo Electron\WinXRD\Datafiles\F_HERMAN\FIEN\11_A_FT.raw

File Created:
	October 01, 2019 - 04:13 PM

Specimen Id:
	11A FT

Specimen Name:
	

Specimen Description:
	

Comment:
Scan Type: 2Theta Scan
Start Angle: 1 deg.
Stop Angle: 65 deg.
Num Points: 3201
Step Size: 0.02 deg.
Scan Rate: 1.000000
Scan Mode: Continuous
Wavelength: 1.540562
\Kalpha1: 1.540562	\Kalpha2: 1.544390	\Kbeta: 1.392218

Optics:
		Detector:
			 Type: Fixed Slits
		Tube: 
			 Type: Fixed Slits


Datas:
 Pos [deg]       Rate [CPS]      ESD [-]

Range 1 ---> Iteration 1
   1.000          0.00	     0.000
   1.020          0.00	     0.000
   1.040          0.00	     0.000
   1.060          0.00	     0.000
   1.080          0.00	     0.000
   1.100        174.17	    14.457
   1.120          0.00	     0.000
   1.140        548.33	    25.652
   1.160        680.83	    28.583
   1.180        319.17	    19.570
   1.200        232.50	    16.703
   1.220        188.33	    15.033
   1.240        296.67	    18.868
   1.260        305.00	    19.131
   1.280        305.00	    19.131
   1.300        340.00	    20.199
   1.320        306.67	    19.183
   1.340        333.33	    20.000
   1.360        274.17	    18.138
   1.380        430.00	    22.716
   1.400        533.33	    25.298
   1.420        740.83	    29.816
   1.440        819.17	    31.353
   1.460       1315.83	    39.737
   1.480       1999.17	    48.980
   1.500       2421.67	    53.907
   1.520       2520.83	    55.000
   1.540       2654.17	    56.436
   1.560       2339.17	    52.981
   1.580       2506.67	    54.845
   1.600       2345.00	    53.047
   1.620       2408.33	    53.759
   1.640       2284.17	    52.355
   1.660       2353.33	    53.141
   1.680       2227.50	    51.701
   1.700       2254.17	    52.010
   1.720       2069.17	    49.830
   1.740       2209.17	    51.488
   1.760       2011.67	    49.132
   1.780       2046.67	    49.558
   1.800       1840.00	    46.989
   1.820       1717.50	    45.398
   1.840       1559.17	    43.255
   1.860       1441.67	    41.593
   1.880       1205.83	    38.039
   1.900       1089.17	    36.152
   1.920        942.50	    33.630
   1.940        842.50	    31.796
   1.960        751.67	    30.033
   1.980        747.50	    29.950
   2.000        668.33	    28.320
   2.020        695.00	    28.879
   2.040        699.17	    28.965
   2.060        656.67	    28.071
   2.080        616.67	    27.203
   2.100        638.33	    27.677
   2.120        670.83	    28.373
   2.140        655.83	    28.054
   2.160        590.83	    26.627
   2.180        593.33	    26.683
   2.200        608.33	    27.019
   2.220        582.50	    26.439
   2.240        577.50	    26.325
   2.260        577.50	    26.325
   2.280        542.50	    25.515
   2.300        568.33	    26.115
   2.320        528.33	    25.179
   2.340        563.33	    26.000
   2.360        539.17	    25.436
   2.380        519.17	    24.960
   2.400        525.00	    25.100
   2.420        535.00	    25.338
   2.440        504.17	    24.597
   2.460        480.83	    24.021
   2.480        455.00	    23.367
   2.500        480.00	    24.000
   2.520        518.33	    24.940
   2.540        480.83	    24.021
   2.560        465.83	    23.643
   2.580        482.50	    24.062
   2.600        471.67	    23.791
   2.620        470.83	    23.770
   2.640        475.00	    23.875
   2.660        486.67	    24.166
   2.680        432.50	    22.782
   2.700        434.17	    22.825
   2.720        447.50	    23.173
   2.740        441.67	    23.022
   2.760        393.33	    21.726
   2.780        445.83	    23.130
   2.800        413.33	    22.271
   2.820        402.50	    21.977
   2.840        400.83	    21.932
   2.860        386.67	    21.541
   2.880        434.17	    22.825
   2.900        392.50	    21.703
   2.920        430.83	    22.738
   2.940        412.50	    22.249
   2.960        407.50	    22.113
   2.980        366.67	    20.976
   3.000        382.50	    21.424
   3.020        363.33	    20.881
   3.040        418.33	    22.405
   3.060        384.17	    21.471
   3.080        380.83	    21.378
   3.100        362.50	    20.857
   3.120        377.50	    21.284
   3.140        367.50	    21.000
   3.160        370.83	    21.095
   3.180        365.00	    20.928
   3.200        341.67	    20.248
   3.220        353.33	    20.591
   3.240        353.33	    20.591
   3.260        342.50	    20.273
   3.280        355.00	    20.640
   3.300        344.17	    20.322
   3.320        328.33	    19.849
   3.340        337.50	    20.125
   3.360        290.83	    18.682
   3.380        348.33	    20.445
   3.400        326.67	    19.799
   3.420        351.67	    20.543
   3.440        310.00	    19.287
   3.460        306.67	    19.183
   3.480        308.33	    19.235
   3.500        296.67	    18.868
   3.520        304.17	    19.105
   3.540        300.83	    19.000
   3.560        333.33	    20.000
   3.580        324.17	    19.723
   3.600        287.50	    18.574
   3.620        314.17	    19.416
   3.640        299.17	    18.947
   3.660        328.33	    19.849
   3.680        305.83	    19.157
   3.700        302.50	    19.053
   3.720        292.50	    18.735
   3.740        315.83	    19.468
   3.760        305.00	    19.131
   3.780        286.67	    18.547
   3.800        295.83	    18.841
   3.820        305.83	    19.157
   3.840        275.00	    18.166
   3.860        255.83	    17.521
   3.880        271.67	    18.055
   3.900        267.50	    17.916
   3.920        277.50	    18.248
   3.940        299.17	    18.947
   3.960        255.00	    17.493
   3.980        320.00	    19.596
   4.000        298.33	    18.921
   4.020        275.00	    18.166
   4.040        241.67	    17.029
   4.060        251.67	    17.378
   4.080        235.83	    16.823
   4.100        246.67	    17.205
   4.120        279.17	    18.303
   4.140        278.33	    18.276
   4.160        257.50	    17.578
   4.180        263.33	    17.776
   4.200        266.67	    17.889
   4.220        255.00	    17.493
   4.240        227.50	    16.523
   4.260        228.33	    16.553
   4.280        262.50	    17.748
   4.300        267.50	    17.916
   4.320        253.33	    17.436
   4.340        235.00	    16.793
   4.360        300.00	    18.974
   4.380        242.50	    17.059
   4.400        225.83	    16.462
   4.420        232.50	    16.703
   4.440        216.67	    16.125
   4.460        241.67	    17.029
   4.480        238.33	    16.912
   4.500        212.50	    15.969
   4.520        250.00	    17.321
   4.540        228.33	    16.553
   4.560        242.50	    17.059
   4.580        217.50	    16.155
   4.600        236.67	    16.852
   4.620        205.83	    15.716
   4.640        220.00	    16.248
   4.660        225.00	    16.432
   4.680        246.67	    17.205
   4.700        202.50	    15.588
   4.720        224.17	    16.401
   4.740        212.50	    15.969
   4.760        226.67	    16.492
   4.780        206.67	    15.748
   4.800        205.00	    15.684
   4.820        203.33	    15.620
   4.840        243.33	    17.088
   4.860        199.17	    15.460
   4.880        195.83	    15.330
   4.900        230.83	    16.643
   4.920        200.83	    15.524
   4.940        213.33	    16.000
   4.960        198.33	    15.427
   4.980        206.67	    15.748
   5.000        185.00	    14.900
   5.020        219.17	    16.217
   5.040        195.83	    15.330
   5.060        230.00	    16.613
   5.080        210.00	    15.875
   5.100        208.33	    15.811
   5.120        190.83	    15.133
   5.140        208.33	    15.811
   5.160        185.83	    14.933
   5.180        200.00	    15.492
   5.200        184.17	    14.866
   5.220        197.50	    15.395
   5.240        193.33	    15.232
   5.260        216.67	    16.125
   5.280        187.50	    15.000
   5.300        210.83	    15.906
   5.320        193.33	    15.232
   5.340        180.00	    14.697
   5.360        178.33	    14.629
   5.380        181.67	    14.765
   5.400        197.50	    15.395
   5.420        196.67	    15.362
   5.440        209.17	    15.843
   5.460        187.50	    15.000
   5.480        190.83	    15.133
   5.500        223.33	    16.371
   5.520        194.17	    15.264
   5.540        197.50	    15.395
   5.560        212.50	    15.969
   5.580        222.50	    16.340
   5.600        215.83	    16.093
   5.620        224.17	    16.401
   5.640        296.67	    18.868
   5.660        261.67	    17.720
   5.680        303.33	    19.079
   5.700        332.50	    19.975
   5.720        304.17	    19.105
   5.740        345.83	    20.372
   5.760        351.67	    20.543
   5.780        289.17	    18.628
   5.800        248.33	    17.263
   5.820        235.00	    16.793
   5.840        240.00	    16.971
   5.860        232.50	    16.703
   5.880        212.50	    15.969
   5.900        229.17	    16.583
   5.920        247.50	    17.234
   5.940        227.50	    16.523
   5.960        215.83	    16.093
   5.980        231.67	    16.673
   6.000        210.00	    15.875
   6.020        235.00	    16.793
   6.040        220.00	    16.248
   6.060        200.83	    15.524
   6.080        190.83	    15.133
   6.100        190.83	    15.133
   6.120        180.00	    14.697
   6.140        165.83	    14.107
   6.160        191.67	    15.166
   6.180        180.00	    14.697
   6.200        173.33	    14.422
   6.220        190.00	    15.100
   6.240        162.50	    13.964
   6.260        176.67	    14.560
   6.280        170.00	    14.283
   6.300        194.17	    15.264
   6.320        234.17	    16.763
   6.340        220.83	    16.279
   6.360        212.50	    15.969
   6.380        221.67	    16.310
   6.400        176.67	    14.560
   6.420        196.67	    15.362
   6.440        197.50	    15.395
   6.460        213.33	    16.000
   6.480        168.33	    14.213
   6.500        171.67	    14.353
   6.520        131.67	    12.570
   6.540        160.83	    13.892
   6.560        156.67	    13.711
   6.580        145.83	    13.229
   6.600        157.50	    13.748
   6.620        147.50	    13.304
   6.640        141.67	    13.038
   6.660        159.17	    13.820
   6.680        165.00	    14.071
   6.700        158.33	    13.784
   6.720        156.67	    13.711
   6.740        150.00	    13.416
   6.760        126.67	    12.329
   6.780        114.17	    11.705
   6.800        134.17	    12.689
   6.820        150.00	    13.416
   6.840        156.67	    13.711
   6.860        137.50	    12.845
   6.880        169.17	    14.248
   6.900        142.50	    13.077
   6.920        134.17	    12.689
   6.940        145.83	    13.229
   6.960        135.83	    12.767
   6.980        138.33	    12.884
   7.000        157.50	    13.748
   7.020        148.33	    13.342
   7.040        135.83	    12.767
   7.060        138.33	    12.884
   7.080        140.83	    13.000
   7.100        145.83	    13.229
   7.120        142.50	    13.077
   7.140        143.33	    13.115
   7.160        140.00	    12.961
   7.180        146.67	    13.266
   7.200        130.83	    12.530
   7.220        127.50	    12.369
   7.240        132.50	    12.610
   7.260        143.33	    13.115
   7.280        148.33	    13.342
   7.300        138.33	    12.884
   7.320        150.83	    13.454
   7.340        125.00	    12.247
   7.360        125.83	    12.288
   7.380        125.83	    12.288
   7.400        132.50	    12.610
   7.420        115.00	    11.747
   7.440        112.50	    11.619
   7.460        139.17	    12.923
   7.480        115.00	    11.747
   7.500        137.50	    12.845
   7.520        132.50	    12.610
   7.540        115.83	    11.790
   7.560        117.50	    11.874
   7.580        123.33	    12.166
   7.600        125.83	    12.288
   7.620        139.17	    12.923
   7.640        119.17	    11.958
   7.660        132.50	    12.610
   7.680        116.67	    11.832
   7.700        116.67	    11.832
   7.720        110.00	    11.489
   7.740        115.00	    11.747
   7.760         96.67	    10.770
   7.780        132.50	    12.610
   7.800        130.00	    12.490
   7.820        108.33	    11.402
   7.840        125.00	    12.247
   7.860        128.33	    12.410
   7.880        110.83	    11.533
   7.900        140.00	    12.961
   7.920        129.17	    12.450
   7.940        125.83	    12.288
   7.960        125.00	    12.247
   7.980        115.00	    11.747
   8.000        137.50	    12.845
   8.020        135.83	    12.767
   8.040        137.50	    12.845
   8.060        117.50	    11.874
   8.080        142.50	    13.077
   8.100        107.50	    11.358
   8.120        114.17	    11.705
   8.140        130.00	    12.490
   8.160        124.17	    12.207
   8.180        119.17	    11.958
   8.200        125.83	    12.288
   8.220        115.00	    11.747
   8.240        136.67	    12.806
   8.260        128.33	    12.410
   8.280        127.50	    12.369
   8.300        136.67	    12.806
   8.320        147.50	    13.304
   8.340        124.17	    12.207
   8.360        144.17	    13.153
   8.380        124.17	    12.207
   8.400        158.33	    13.784
   8.420        166.67	    14.142
   8.440        155.00	    13.638
   8.460        177.50	    14.595
   8.480        192.50	    15.199
   8.500        223.33	    16.371
   8.520        283.33	    18.439
   8.540        347.50	    20.421
   8.560        281.67	    18.385
   8.580        264.17	    17.804
   8.600        309.17	    19.261
   8.620        319.17	    19.570
   8.640        318.33	    19.545
   8.660        273.33	    18.111
   8.680        242.50	    17.059
   8.700        265.83	    17.861
   8.720        210.00	    15.875
   8.740        179.17	    14.663
   8.760        149.17	    13.379
   8.780        140.83	    13.000
   8.800        126.67	    12.329
   8.820        136.67	    12.806
   8.840        150.00	    13.416
   8.860        149.17	    13.379
   8.880        173.33	    14.422
   8.900        172.50	    14.387
   8.920        171.67	    14.353
   8.940        209.17	    15.843
   8.960        204.17	    15.652
   8.980        243.33	    17.088
   9.000        265.83	    17.861
   9.020        258.33	    17.607
   9.040        389.17	    21.610
   9.060        470.00	    23.749
   9.080        448.33	    23.195
   9.100        268.33	    17.944
   9.120        191.67	    15.166
   9.140        136.67	    12.806
   9.160        114.17	    11.705
   9.180        109.17	    11.446
   9.200        112.50	    11.619
   9.220        118.33	    11.916
   9.240        134.17	    12.689
   9.260        109.17	    11.446
   9.280        122.50	    12.124
   9.300        136.67	    12.806
   9.320        157.50	    13.748
   9.340        163.33	    14.000
   9.360        242.50	    17.059
   9.380        219.17	    16.217
   9.400        206.67	    15.748
   9.420        120.83	    12.042
   9.440         96.67	    10.770
   9.460        107.50	    11.358
   9.480         85.83	    10.149
   9.500        119.17	    11.958
   9.520        103.33	    11.136
   9.540         86.67	    10.198
   9.560         95.00	    10.677
   9.580         94.17	    10.630
   9.600         92.50	    10.536
   9.620         97.50	    10.817
   9.640         91.67	    10.488
   9.660        103.33	    11.136
   9.680         85.83	    10.149
   9.700         88.33	    10.296
   9.720         77.50	     9.644
   9.740         75.00	     9.487
   9.760         78.33	     9.695
   9.780         88.33	    10.296
   9.800        100.83	    11.000
   9.820         68.33	     9.055
   9.840         82.50	     9.950
   9.860         83.33	    10.000
   9.880         99.17	    10.909
   9.900         98.33	    10.863
   9.920         74.17	     9.434
   9.940         91.67	    10.488
   9.960         74.17	     9.434
   9.980        102.50	    11.091
  10.000         89.17	    10.344
  10.020         92.50	    10.536
  10.040         93.33	    10.583
  10.060         77.50	     9.644
  10.080         90.83	    10.440
  10.100         93.33	    10.583
  10.120         74.17	     9.434
  10.140         89.17	    10.344
  10.160         81.67	     9.899
  10.180         85.83	    10.149
  10.200         84.17	    10.050
  10.220         90.00	    10.392
  10.240        100.00	    10.954
  10.260         95.83	    10.724
  10.280         92.50	    10.536
  10.300         87.50	    10.247
  10.320         94.17	    10.630
  10.340        101.67	    11.045
  10.360         75.83	     9.539
  10.380         80.00	     9.798
  10.400         73.33	     9.381
  10.420         89.17	    10.344
  10.440         95.83	    10.724
  10.460         73.33	     9.381
  10.480         86.67	    10.198
  10.500         80.83	     9.849
  10.520         80.00	     9.798
  10.540         85.83	    10.149
  10.560         81.67	     9.899
  10.580         95.83	    10.724
  10.600        105.83	    11.269
  10.620        130.00	    12.490
  10.640        131.67	    12.570
  10.660        153.33	    13.565
  10.680        145.83	    13.229
  10.700        124.17	    12.207
  10.720         78.33	     9.695
  10.740         88.33	    10.296
  10.760         97.50	    10.817
  10.780         82.50	     9.950
  10.800         69.17	     9.110
  10.820         72.50	     9.327
  10.840         87.50	    10.247
  10.860         80.00	     9.798
  10.880         65.00	     8.832
  10.900         67.50	     9.000
  10.920         90.83	    10.440
  10.940         62.50	     8.660
  10.960         62.50	     8.660
  10.980         74.17	     9.434
  11.000         74.17	     9.434
  11.020         79.17	     9.747
  11.040         73.33	     9.381
  11.060         66.67	     8.944
  11.080         60.00	     8.485
  11.100         62.50	     8.660
  11.120         64.17	     8.775
  11.140         61.67	     8.602
  11.160         69.17	     9.110
  11.180         56.67	     8.246
  11.200         66.67	     8.944
  11.220         66.67	     8.944
  11.240         77.50	     9.644
  11.260         62.50	     8.660
  11.280         66.67	     8.944
  11.300         70.83	     9.220
  11.320         66.67	     8.944
  11.340         80.83	     9.849
  11.360         75.83	     9.539
  11.380         67.50	     9.000
  11.400         69.17	     9.110
  11.420         64.17	     8.775
  11.440         60.83	     8.544
  11.460         70.83	     9.220
  11.480         50.00	     7.746
  11.500         72.50	     9.327
  11.520         62.50	     8.660
  11.540         66.67	     8.944
  11.560         79.17	     9.747
  11.580         71.67	     9.274
  11.600         76.67	     9.592
  11.620         62.50	     8.660
  11.640         68.33	     9.055
  11.660         72.50	     9.327
  11.680         86.67	    10.198
  11.700         89.17	    10.344
  11.720         70.00	     9.165
  11.740         54.17	     8.062
  11.760         61.67	     8.602
  11.780         75.83	     9.539
  11.800         61.67	     8.602
  11.820         71.67	     9.274
  11.840         74.17	     9.434
  11.860         70.00	     9.165
  11.880         71.67	     9.274
  11.900         91.67	    10.488
  11.920         90.83	    10.440
  11.940        106.67	    11.314
  11.960        101.67	    11.045
  11.980        109.17	    11.446
  12.000        115.00	    11.747
  12.020        110.00	    11.489
  12.040        101.67	    11.045
  12.060        101.67	    11.045
  12.080        103.33	    11.136
  12.100        115.83	    11.790
  12.120        114.17	    11.705
  12.140        125.83	    12.288
  12.160        128.33	    12.410
  12.180        146.67	    13.266
  12.200        184.17	    14.866
  12.220        248.33	    17.263
  12.240        309.17	    19.261
  12.260        323.33	    19.698
  12.280        315.83	    19.468
  12.300        314.17	    19.416
  12.320        333.33	    20.000
  12.340        343.33	    20.298
  12.360        360.00	    20.785
  12.380        350.00	    20.494
  12.400        341.67	    20.248
  12.420        335.83	    20.075
  12.440        290.00	    18.655
  12.460        240.00	    16.971
  12.480        195.00	    15.297
  12.500        197.50	    15.395
  12.520        205.00	    15.684
  12.540        231.67	    16.673
  12.560        218.33	    16.186
  12.580        226.67	    16.492
  12.600        221.67	    16.310
  12.620        194.17	    15.264
  12.640        173.33	    14.422
  12.660        184.17	    14.866
  12.680        206.67	    15.748
  12.700        206.67	    15.748
  12.720        162.50	    13.964
  12.740        125.83	    12.288
  12.760         96.67	    10.770
  12.780         80.00	     9.798
  12.800         75.00	     9.487
  12.820         75.00	     9.487
  12.840         58.33	     8.367
  12.860         84.17	    10.050
  12.880         79.17	     9.747
  12.900         69.17	     9.110
  12.920         72.50	     9.327
  12.940         64.17	     8.775
  12.960         68.33	     9.055
  12.980         60.00	     8.485
  13.000         55.83	     8.185
  13.020         66.67	     8.944
  13.040         62.50	     8.660
  13.060         62.50	     8.660
  13.080         57.50	     8.307
  13.100         55.00	     8.124
  13.120         70.00	     9.165
  13.140         53.33	     8.000
  13.160         64.17	     8.775
  13.180         62.50	     8.660
  13.200         62.50	     8.660
  13.220         75.83	     9.539
  13.240         53.33	     8.000
  13.260         69.17	     9.110
  13.280         48.33	     7.616
  13.300         70.83	     9.220
  13.320         57.50	     8.307
  13.340         64.17	     8.775
  13.360         55.00	     8.124
  13.380         58.33	     8.367
  13.400         60.00	     8.485
  13.420         66.67	     8.944
  13.440         57.50	     8.307
  13.460         69.17	     9.110
  13.480         65.83	     8.888
  13.500         60.83	     8.544
  13.520         68.33	     9.055
  13.540         77.50	     9.644
  13.560         55.00	     8.124
  13.580         57.50	     8.307
  13.600         50.83	     7.810
  13.620         57.50	     8.307
  13.640         62.50	     8.660
  13.660         57.50	     8.307
  13.680         57.50	     8.307
  13.700         70.83	     9.220
  13.720         78.33	     9.695
  13.740         71.67	     9.274
  13.760         66.67	     8.944
  13.780         77.50	     9.644
  13.800         80.83	     9.849
  13.820         87.50	    10.247
  13.840         92.50	    10.536
  13.860        127.50	    12.369
  13.880        142.50	    13.077
  13.900        126.67	    12.329
  13.920         93.33	    10.583
  13.940         70.83	     9.220
  13.960         77.50	     9.644
  13.980         77.50	     9.644
  14.000         90.00	    10.392
  14.020        106.67	    11.314
  14.040         90.00	    10.392
  14.060        110.83	    11.533
  14.080        113.33	    11.662
  14.100        120.83	    12.042
  14.120        136.67	    12.806
  14.140        121.67	    12.083
  14.160         96.67	    10.770
  14.180         82.50	     9.950
  14.200         85.83	    10.149
  14.220         70.83	     9.220
  14.240         59.17	     8.426
  14.260         46.67	     7.483
  14.280         48.33	     7.616
  14.300         44.17	     7.280
  14.320         54.17	     8.062
  14.340         54.17	     8.062
  14.360         55.83	     8.185
  14.380         54.17	     8.062
  14.400         50.83	     7.810
  14.420         56.67	     8.246
  14.440         49.17	     7.681
  14.460         45.00	     7.348
  14.480         40.00	     6.928
  14.500         52.50	     7.937
  14.520         55.00	     8.124
  14.540         44.17	     7.280
  14.560         48.33	     7.616
  14.580         45.00	     7.348
  14.600         49.17	     7.681
  14.620         55.83	     8.185
  14.640         48.33	     7.616
  14.660         50.83	     7.810
  14.680         45.00	     7.348
  14.700         51.67	     7.874
  14.720         50.83	     7.810
  14.740         36.67	     6.633
  14.760         55.00	     8.124
  14.780         44.17	     7.280
  14.800         50.00	     7.746
  14.820         40.83	     7.000
  14.840         46.67	     7.483
  14.860         50.00	     7.746
  14.880         49.17	     7.681
  14.900         60.83	     8.544
  14.920         52.50	     7.937
  14.940         75.00	     9.487
  14.960         47.50	     7.550
  14.980         37.50	     6.708
  15.000         49.17	     7.681
  15.020         45.83	     7.416
  15.040         40.00	     6.928
  15.060         40.00	     6.928
  15.080         51.67	     7.874
  15.100         53.33	     8.000
  15.120         56.67	     8.246
  15.140         57.50	     8.307
  15.160         54.17	     8.062
  15.180         60.83	     8.544
  15.200         52.50	     7.937
  15.220         42.50	     7.141
  15.240         57.50	     8.307
  15.260         53.33	     8.000
  15.280         56.67	     8.246
  15.300         48.33	     7.616
  15.320         50.83	     7.810
  15.340         46.67	     7.483
  15.360         44.17	     7.280
  15.380         45.00	     7.348
  15.400         44.17	     7.280
  15.420         50.00	     7.746
  15.440         50.00	     7.746
  15.460         38.33	     6.782
  15.480         54.17	     8.062
  15.500         38.33	     6.782
  15.520         46.67	     7.483
  15.540         45.83	     7.416
  15.560         58.33	     8.367
  15.580         38.33	     6.782
  15.600         40.00	     6.928
  15.620         35.83	     6.557
  15.640         41.67	     7.071
  15.660         52.50	     7.937
  15.680         38.33	     6.782
  15.700         44.17	     7.280
  15.720         44.17	     7.280
  15.740         46.67	     7.483
  15.760         35.83	     6.557
  15.780         46.67	     7.483
  15.800         44.17	     7.280
  15.820         40.00	     6.928
  15.840         35.83	     6.557
  15.860         47.50	     7.550
  15.880         41.67	     7.071
  15.900         44.17	     7.280
  15.920         43.33	     7.211
  15.940         52.50	     7.937
  15.960         40.83	     7.000
  15.980         41.67	     7.071
  16.000         37.50	     6.708
  16.020         48.33	     7.616
  16.040         34.17	     6.403
  16.060         55.00	     8.124
  16.080         45.00	     7.348
  16.100         44.17	     7.280
  16.120         50.00	     7.746
  16.140         49.17	     7.681
  16.160         43.33	     7.211
  16.180         37.50	     6.708
  16.200         36.67	     6.633
  16.220         43.33	     7.211
  16.240         49.17	     7.681
  16.260         42.50	     7.141
  16.280         48.33	     7.616
  16.300         41.67	     7.071
  16.320         37.50	     6.708
  16.340         39.17	     6.856
  16.360         45.83	     7.416
  16.380         47.50	     7.550
  16.400         40.00	     6.928
  16.420         37.50	     6.708
  16.440         40.00	     6.928
  16.460         32.50	     6.245
  16.480         44.17	     7.280
  16.500         45.83	     7.416
  16.520         30.83	     6.083
  16.540         37.50	     6.708
  16.560         39.17	     6.856
  16.580         53.33	     8.000
  16.600         44.17	     7.280
  16.620         45.00	     7.348
  16.640         45.00	     7.348
  16.660         38.33	     6.782
  16.680         40.83	     7.000
  16.700         43.33	     7.211
  16.720         44.17	     7.280
  16.740         43.33	     7.211
  16.760         40.00	     6.928
  16.780         48.33	     7.616
  16.800         43.33	     7.211
  16.820         40.00	     6.928
  16.840         42.50	     7.141
  16.860         37.50	     6.708
  16.880         35.00	     6.481
  16.900         35.83	     6.557
  16.920         27.50	     5.745
  16.940         42.50	     7.141
  16.960         35.83	     6.557
  16.980         33.33	     6.325
  17.000         45.00	     7.348
  17.020         34.17	     6.403
  17.040         41.67	     7.071
  17.060         40.83	     7.000
  17.080         45.83	     7.416
  17.100         45.83	     7.416
  17.120         35.83	     6.557
  17.140         40.83	     7.000
  17.160         44.17	     7.280
  17.180         43.33	     7.211
  17.200         35.83	     6.557
  17.220         42.50	     7.141
  17.240         40.83	     7.000
  17.260         41.67	     7.071
  17.280         54.17	     8.062
  17.300         45.83	     7.416
  17.320         40.83	     7.000
  17.340         43.33	     7.211
  17.360         63.33	     8.718
  17.380         51.67	     7.874
  17.400         49.17	     7.681
  17.420         45.83	     7.416
  17.440         41.67	     7.071
  17.460         28.33	     5.831
  17.480         43.33	     7.211
  17.500         45.00	     7.348
  17.520         41.67	     7.071
  17.540         47.50	     7.550
  17.560         36.67	     6.633
  17.580         30.00	     6.000
  17.600         45.00	     7.348
  17.620         45.83	     7.416
  17.640         46.67	     7.483
  17.660         48.33	     7.616
  17.680         49.17	     7.681
  17.700         40.83	     7.000
  17.720         60.00	     8.485
  17.740         55.83	     8.185
  17.760         48.33	     7.616
  17.780         46.67	     7.483
  17.800         66.67	     8.944
  17.820         75.00	     9.487
  17.840         80.83	     9.849
  17.860         82.50	     9.950
  17.880        107.50	    11.358
  17.900        120.83	    12.042
  17.920        140.83	    13.000
  17.940        167.50	    14.177
  17.960        205.83	    15.716
  17.980        295.83	    18.841
  18.000        360.83	    20.809
  18.020        295.83	    18.841
  18.040        226.67	    16.492
  18.060        151.67	    13.491
  18.080         66.67	     8.944
  18.100         67.50	     9.000
  18.120         37.50	     6.708
  18.140         55.83	     8.185
  18.160         40.83	     7.000
  18.180         43.33	     7.211
  18.200         43.33	     7.211
  18.220         47.50	     7.550
  18.240         47.50	     7.550
  18.260         53.33	     8.000
  18.280         50.83	     7.810
  18.300         49.17	     7.681
  18.320         59.17	     8.426
  18.340         52.50	     7.937
  18.360         50.83	     7.810
  18.380         44.17	     7.280
  18.400         37.50	     6.708
  18.420         60.00	     8.485
  18.440         58.33	     8.367
  18.460         55.83	     8.185
  18.480         75.83	     9.539
  18.500         67.50	     9.000
  18.520         72.50	     9.327
  18.540        104.17	    11.180
  18.560        118.33	    11.916
  18.580        125.83	    12.288
  18.600        181.67	    14.765
  18.620        164.17	    14.036
  18.640        158.33	    13.784
  18.660        137.50	    12.845
  18.680        116.67	    11.832
  18.700        114.17	    11.705
  18.720        106.67	    11.314
  18.740         96.67	    10.770
  18.760         88.33	    10.296
  18.780         95.00	    10.677
  18.800        109.17	    11.446
  18.820         99.17	    10.909
  18.840        114.17	    11.705
  18.860        102.50	    11.091
  18.880         82.50	     9.950
  18.900         97.50	    10.817
  18.920         98.33	    10.863
  18.940        104.17	    11.180
  18.960        114.17	    11.705
  18.980         97.50	    10.817
  19.000        102.50	    11.091
  19.020         80.00	     9.798
  19.040         66.67	     8.944
  19.060         60.83	     8.544
  19.080         62.50	     8.660
  19.100         52.50	     7.937
  19.120         55.00	     8.124
  19.140         42.50	     7.141
  19.160         49.17	     7.681
  19.180         44.17	     7.280
  19.200         47.50	     7.550
  19.220         47.50	     7.550
  19.240         53.33	     8.000
  19.260         37.50	     6.708
  19.280         53.33	     8.000
  19.300         48.33	     7.616
  19.320         50.83	     7.810
  19.340         60.00	     8.485
  19.360         50.83	     7.810
  19.380         48.33	     7.616
  19.400         42.50	     7.141
  19.420         58.33	     8.367
  19.440         35.83	     6.557
  19.460         44.17	     7.280
  19.480         56.67	     8.246
  19.500         45.83	     7.416
  19.520         40.83	     7.000
  19.540         45.83	     7.416
  19.560         40.83	     7.000
  19.580         45.00	     7.348
  19.600         52.50	     7.937
  19.620         44.17	     7.280
  19.640         45.83	     7.416
  19.660         48.33	     7.616
  19.680         48.33	     7.616
  19.700         50.00	     7.746
  19.720         34.17	     6.403
  19.740         66.67	     8.944
  19.760         45.00	     7.348
  19.780         54.17	     8.062
  19.800         68.33	     9.055
  19.820         58.33	     8.367
  19.840         59.17	     8.426
  19.860         64.17	     8.775
  19.880         60.83	     8.544
  19.900         60.83	     8.544
  19.920         60.00	     8.485
  19.940         70.00	     9.165
  19.960         68.33	     9.055
  19.980         73.33	     9.381
  20.000         77.50	     9.644
  20.020         70.83	     9.220
  20.040         66.67	     8.944
  20.060         73.33	     9.381
  20.080         65.00	     8.832
  20.100         64.17	     8.775
  20.120         58.33	     8.367
  20.140         53.33	     8.000
  20.160         55.00	     8.124
  20.180         50.00	     7.746
  20.200         50.00	     7.746
  20.220         52.50	     7.937
  20.240         56.67	     8.246
  20.260         41.67	     7.071
  20.280         52.50	     7.937
  20.300         55.00	     8.124
  20.320         40.00	     6.928
  20.340         49.17	     7.681
  20.360         42.50	     7.141
  20.380         43.33	     7.211
  20.400         49.17	     7.681
  20.420         49.17	     7.681
  20.440         47.50	     7.550
  20.460         46.67	     7.483
  20.480         45.83	     7.416
  20.500         40.83	     7.000
  20.520         40.00	     6.928
  20.540         44.17	     7.280
  20.560         40.83	     7.000
  20.580         34.17	     6.403
  20.600         40.83	     7.000
  20.620         49.17	     7.681
  20.640         39.17	     6.856
  20.660         56.67	     8.246
  20.680         45.00	     7.348
  20.700         44.17	     7.280
  20.720         39.17	     6.856
  20.740         46.67	     7.483
  20.760         75.00	     9.487
  20.780         73.33	     9.381
  20.800         75.83	     9.539
  20.820         89.17	    10.344
  20.840        110.00	    11.489
  20.860        103.33	    11.136
  20.880        130.83	    12.530
  20.900        176.67	    14.560
  20.920        231.67	    16.673
  20.940        367.50	    21.000
  20.960        710.00	    29.189
  20.980       1255.00	    38.807
  21.000       1535.83	    42.930
  21.020       1455.00	    41.785
  21.040       1256.67	    38.833
  21.060        934.17	    33.481
  21.080        571.67	    26.192
  21.100        324.17	    19.723
  21.120        195.83	    15.330
  21.140        141.67	    13.038
  21.160        107.50	    11.358
  21.180         97.50	    10.817
  21.200         79.17	     9.747
  21.220         74.17	     9.434
  21.240         55.83	     8.185
  21.260         60.00	     8.485
  21.280         61.67	     8.602
  21.300         47.50	     7.550
  21.320         52.50	     7.937
  21.340         45.83	     7.416
  21.360         48.33	     7.616
  21.380         56.67	     8.246
  21.400         47.50	     7.550
  21.420         45.00	     7.348
  21.440         43.33	     7.211
  21.460         43.33	     7.211
  21.480         43.33	     7.211
  21.500         46.67	     7.483
  21.520         40.83	     7.000
  21.540         43.33	     7.211
  21.560         32.50	     6.245
  21.580         40.83	     7.000
  21.600         45.00	     7.348
  21.620         45.83	     7.416
  21.640         50.83	     7.810
  21.660         37.50	     6.708
  21.680         40.00	     6.928
  21.700         53.33	     8.000
  21.720         53.33	     8.000
  21.740         50.00	     7.746
  21.760         45.00	     7.348
  21.780         50.00	     7.746
  21.800         55.83	     8.185
  21.820         52.50	     7.937
  21.840         49.17	     7.681
  21.860         37.50	     6.708
  21.880         49.17	     7.681
  21.900         40.83	     7.000
  21.920         42.50	     7.141
  21.940         40.00	     6.928
  21.960         45.00	     7.348
  21.980         48.33	     7.616
  22.000         51.67	     7.874
  22.020         57.50	     8.307
  22.040         57.50	     8.307
  22.060         56.67	     8.246
  22.080         70.83	     9.220
  22.100         90.00	    10.392
  22.120        107.50	    11.358
  22.140        137.50	    12.845
  22.160        375.83	    21.237
  22.180        742.50	    29.850
  22.200        561.67	    25.962
  22.220        394.17	    21.749
  22.240        441.67	    23.022
  22.260        262.50	    17.748
  22.280        113.33	    11.662
  22.300         93.33	    10.583
  22.320         62.50	     8.660
  22.340         57.50	     8.307
  22.360         65.83	     8.888
  22.380         49.17	     7.681
  22.400         53.33	     8.000
  22.420         61.67	     8.602
  22.440         50.00	     7.746
  22.460         45.83	     7.416
  22.480         46.67	     7.483
  22.500         55.83	     8.185
  22.520         64.17	     8.775
  22.540         48.33	     7.616
  22.560         52.50	     7.937
  22.580         67.50	     9.000
  22.600         68.33	     9.055
  22.620         69.17	     9.110
  22.640         60.00	     8.485
  22.660         58.33	     8.367
  22.680         64.17	     8.775
  22.700         79.17	     9.747
  22.720         74.17	     9.434
  22.740         66.67	     8.944
  22.760         55.83	     8.185
  22.780         68.33	     9.055
  22.800         51.67	     7.874
  22.820         51.67	     7.874
  22.840         41.67	     7.071
  22.860         44.17	     7.280
  22.880         39.17	     6.856
  22.900         42.50	     7.141
  22.920         35.00	     6.481
  22.940         48.33	     7.616
  22.960         55.83	     8.185
  22.980         36.67	     6.633
  23.000         55.83	     8.185
  23.020         69.17	     9.110
  23.040         95.83	    10.724
  23.060        156.67	    13.711
  23.080        189.17	    15.067
  23.100         99.17	    10.909
  23.120        120.83	    12.042
  23.140        107.50	    11.358
  23.160        120.83	    12.042
  23.180        142.50	    13.077
  23.200        165.83	    14.107
  23.220        145.00	    13.191
  23.240        109.17	    11.446
  23.260        105.83	    11.269
  23.280         89.17	    10.344
  23.300         71.67	     9.274
  23.320         46.67	     7.483
  23.340         50.00	     7.746
  23.360         45.00	     7.348
  23.380         43.33	     7.211
  23.400         37.50	     6.708
  23.420         51.67	     7.874
  23.440         41.67	     7.071
  23.460         44.17	     7.280
  23.480         48.33	     7.616
  23.500         49.17	     7.681
  23.520         55.00	     8.124
  23.540         40.00	     6.928
  23.560         59.17	     8.426
  23.580         56.67	     8.246
  23.600         68.33	     9.055
  23.620         67.50	     9.000
  23.640         82.50	     9.950
  23.660         99.17	    10.909
  23.680        160.83	    13.892
  23.700        201.67	    15.556
  23.720        178.33	    14.629
  23.740        165.00	    14.071
  23.760        155.83	    13.675
  23.780        100.83	    11.000
  23.800         99.17	    10.909
  23.820         55.83	     8.185
  23.840         70.00	     9.165
  23.860         66.67	     8.944
  23.880         60.00	     8.485
  23.900         60.83	     8.544
  23.920         67.50	     9.000
  23.940         63.33	     8.718
  23.960         59.17	     8.426
  23.980         57.50	     8.307
  24.000         48.33	     7.616
  24.020         55.83	     8.185
  24.040         50.83	     7.810
  24.060         60.00	     8.485
  24.080         53.33	     8.000
  24.100         61.67	     8.602
  24.120         60.83	     8.544
  24.140         55.00	     8.124
  24.160         50.00	     7.746
  24.180         83.33	    10.000
  24.200         65.00	     8.832
  24.220         74.17	     9.434
  24.240         68.33	     9.055
  24.260         65.00	     8.832
  24.280         81.67	     9.899
  24.300         92.50	    10.536
  24.320         90.83	    10.440
  24.340        116.67	    11.832
  24.360        124.17	    12.207
  24.380        167.50	    14.177
  24.400        150.83	    13.454
  24.420        156.67	    13.711
  24.440        145.00	    13.191
  24.460        151.67	    13.491
  24.480        141.67	    13.038
  24.500        133.33	    12.649
  24.520        119.17	    11.958
  24.540        104.17	    11.180
  24.560         98.33	    10.863
  24.580         96.67	    10.770
  24.600        105.00	    11.225
  24.620        129.17	    12.450
  24.640        143.33	    13.115
  24.660        158.33	    13.784
  24.680        160.00	    13.856
  24.700        176.67	    14.560
  24.720        224.17	    16.401
  24.740        255.83	    17.521
  24.760        270.00	    18.000
  24.780        228.33	    16.553
  24.800        230.83	    16.643
  24.820        214.17	    16.031
  24.840        214.17	    16.031
  24.860        171.67	    14.353
  24.880        145.83	    13.229
  24.900        150.00	    13.416
  24.920        152.50	    13.528
  24.940        137.50	    12.845
  24.960        144.17	    13.153
  24.980        140.00	    12.961
  25.000        145.00	    13.191
  25.020        138.33	    12.884
  25.040        127.50	    12.369
  25.060        130.00	    12.490
  25.080        114.17	    11.705
  25.100        125.00	    12.247
  25.120        115.83	    11.790
  25.140        125.83	    12.288
  25.160         96.67	    10.770
  25.180        123.33	    12.166
  25.200        139.17	    12.923
  25.220        133.33	    12.649
  25.240        151.67	    13.491
  25.260        194.17	    15.264
  25.280        187.50	    15.000
  25.300        210.83	    15.906
  25.320        239.17	    16.941
  25.340        250.83	    17.349
  25.360        213.33	    16.000
  25.380        177.50	    14.595
  25.400        160.00	    13.856
  25.420        124.17	    12.207
  25.440        109.17	    11.446
  25.460         99.17	    10.909
  25.480        133.33	    12.649
  25.500        127.50	    12.369
  25.520         96.67	    10.770
  25.540        115.83	    11.790
  25.560        122.50	    12.124
  25.580        120.83	    12.042
  25.600        116.67	    11.832
  25.620        115.83	    11.790
  25.640        153.33	    13.565
  25.660        136.67	    12.806
  25.680        163.33	    14.000
  25.700        155.00	    13.638
  25.720        142.50	    13.077
  25.740        140.83	    13.000
  25.760        107.50	    11.358
  25.780        100.83	    11.000
  25.800        105.00	    11.225
  25.820         90.00	    10.392
  25.840         86.67	    10.198
  25.860         77.50	     9.644
  25.880        112.50	    11.619
  25.900         87.50	    10.247
  25.920         78.33	     9.695
  25.940         76.67	     9.592
  25.960         52.50	     7.937
  25.980         46.67	     7.483
  26.000         71.67	     9.274
  26.020         57.50	     8.307
  26.040         66.67	     8.944
  26.060         59.17	     8.426
  26.080         57.50	     8.307
  26.100         52.50	     7.937
  26.120         67.50	     9.000
  26.140         65.00	     8.832
  26.160         70.83	     9.220
  26.180         65.83	     8.888
  26.200         70.83	     9.220
  26.220         50.83	     7.810
  26.240         48.33	     7.616
  26.260         65.83	     8.888
  26.280         52.50	     7.937
  26.300         61.67	     8.602
  26.320         68.33	     9.055
  26.340         62.50	     8.660
  26.360         84.17	    10.050
  26.380         94.17	    10.630
  26.400         66.67	     8.944
  26.420         69.17	     9.110
  26.440         98.33	    10.863
  26.460         96.67	    10.770
  26.480        113.33	    11.662
  26.500        142.50	    13.077
  26.520        168.33	    14.213
  26.540        217.50	    16.155
  26.560        335.00	    20.050
  26.580        449.17	    23.216
  26.600        402.50	    21.977
  26.620        426.67	    22.627
  26.640        459.17	    23.473
  26.660        488.33	    24.207
  26.680        570.00	    26.153
  26.700        876.67	    32.435
  26.720       1523.33	    42.755
  26.740       2495.83	    54.727
  26.760       3886.67	    68.293
  26.780       4982.50	    77.324
  26.800       4902.50	    76.701
  26.820       4306.67	    71.889
  26.840       3794.17	    67.476
  26.860       3135.83	    61.343
  26.880       2198.33	    51.361
  26.900       1520.00	    42.708
  26.920        990.83	    34.482
  26.940        703.33	    29.052
  26.960        664.17	    28.231
  26.980        719.17	    29.377
  27.000        829.17	    31.544
  27.020       1115.83	    36.592
  27.040       1273.33	    39.090
  27.060       1172.50	    37.510
  27.080        739.17	    29.783
  27.100        690.00	    28.775
  27.120        578.33	    26.344
  27.140        380.00	    21.354
  27.160        211.67	    15.937
  27.180        140.83	    13.000
  27.200        110.00	    11.489
  27.220        120.83	    12.042
  27.240        102.50	    11.091
  27.260         79.17	     9.747
  27.280         99.17	    10.909
  27.300         82.50	     9.950
  27.320         80.83	     9.849
  27.340         80.83	     9.849
  27.360         61.67	     8.602
  27.380         68.33	     9.055
  27.400         81.67	     9.899
  27.420         80.83	     9.849
  27.440         75.83	     9.539
  27.460         70.83	     9.220
  27.480         86.67	    10.198
  27.500        100.00	    10.954
  27.520        130.00	    12.490
  27.540        202.50	    15.588
  27.560        265.00	    17.833
  27.580        285.00	    18.493
  27.600        295.00	    18.815
  27.620        266.67	    17.889
  27.640        288.33	    18.601
  27.660        370.00	    21.071
  27.680        490.00	    24.249
  27.700        452.50	    23.302
  27.720        335.00	    20.050
  27.740        270.00	    18.000
  27.760        323.33	    19.698
  27.780        283.33	    18.439
  27.800        205.83	    15.716
  27.820        165.83	    14.107
  27.840        182.50	    14.799
  27.860        188.33	    15.033
  27.880        254.17	    17.464
  27.900        317.50	    19.519
  27.920        408.33	    22.136
  27.940        515.00	    24.860
  27.960        570.83	    26.173
  27.980        584.17	    26.476
  28.000        556.67	    25.846
  28.020        440.00	    22.978
  28.040        472.50	    23.812
  28.060        434.17	    22.825
  28.080        373.33	    21.166
  28.100        374.17	    21.190
  28.120        343.33	    20.298
  28.140        345.83	    20.372
  28.160        325.00	    19.748
  28.180        481.67	    24.042
  28.200        690.00	    28.775
  28.220        626.67	    27.423
  28.240        530.00	    25.219
  28.260        709.17	    29.172
  28.280        619.17	    27.258
  28.300        435.83	    22.869
  28.320        384.17	    21.471
  28.340        360.00	    20.785
  28.360        284.17	    18.466
  28.380        221.67	    16.310
  28.400        196.67	    15.362
  28.420        222.50	    16.340
  28.440        190.83	    15.133
  28.460        205.00	    15.684
  28.480        162.50	    13.964
  28.500        145.00	    13.191
  28.520        150.83	    13.454
  28.540        105.83	    11.269
  28.560         87.50	    10.247
  28.580         64.17	     8.775
  28.600         72.50	     9.327
  28.620         62.50	     8.660
  28.640         65.83	     8.888
  28.660         70.00	     9.165
  28.680         70.83	     9.220
  28.700         89.17	    10.344
  28.720         95.00	    10.677
  28.740         74.17	     9.434
  28.760         69.17	     9.110
  28.780         70.00	     9.165
  28.800         80.00	     9.798
  28.820         80.83	     9.849
  28.840         66.67	     8.944
  28.860         63.33	     8.718
  28.880         68.33	     9.055
  28.900         50.83	     7.810
  28.920         69.17	     9.110
  28.940         60.00	     8.485
  28.960         64.17	     8.775
  28.980         54.17	     8.062
  29.000         43.33	     7.211
  29.020         51.67	     7.874
  29.040         55.83	     8.185
  29.060         46.67	     7.483
  29.080         47.50	     7.550
  29.100         46.67	     7.483
  29.120         40.00	     6.928
  29.140         48.33	     7.616
  29.160         51.67	     7.874
  29.180         48.33	     7.616
  29.200         40.83	     7.000
  29.220         39.17	     6.856
  29.240         37.50	     6.708
  29.260         40.83	     7.000
  29.280         38.33	     6.782
  29.300         42.50	     7.141
  29.320         41.67	     7.071
  29.340         36.67	     6.633
  29.360         43.33	     7.211
  29.380         41.67	     7.071
  29.400         51.67	     7.874
  29.420         43.33	     7.211
  29.440         29.17	     5.916
  29.460         50.00	     7.746
  29.480         41.67	     7.071
  29.500         54.17	     8.062
  29.520         52.50	     7.937
  29.540         69.17	     9.110
  29.560         87.50	    10.247
  29.580         94.17	    10.630
  29.600        105.83	    11.269
  29.620        110.83	    11.533
  29.640        114.17	    11.705
  29.660         92.50	    10.536
  29.680         80.00	     9.798
  29.700         77.50	     9.644
  29.720         55.00	     8.124
  29.740         45.83	     7.416
  29.760         35.00	     6.481
  29.780         35.00	     6.481
  29.800         50.83	     7.810
  29.820         36.67	     6.633
  29.840         49.17	     7.681
  29.860         70.83	     9.220
  29.880         70.00	     9.165
  29.900         89.17	    10.344
  29.920         70.00	     9.165
  29.940         62.50	     8.660
  29.960         69.17	     9.110
  29.980         82.50	     9.950
  30.000         88.33	    10.296
  30.020         61.67	     8.602
  30.040         87.50	    10.247
  30.060         75.83	     9.539
  30.080         91.67	    10.488
  30.100        102.50	    11.091
  30.120        104.17	    11.180
  30.140         95.00	    10.677
  30.160         88.33	    10.296
  30.180        105.83	    11.269
  30.200         94.17	    10.630
  30.220        115.83	    11.790
  30.240        146.67	    13.266
  30.260        187.50	    15.000
  30.280        275.00	    18.166
  30.300        365.00	    20.928
  30.320        355.83	    20.664
  30.340        358.33	    20.736
  30.360        345.83	    20.372
  30.380        300.83	    19.000
  30.400        249.17	    17.292
  30.420        179.17	    14.663
  30.440        141.67	    13.038
  30.460        101.67	    11.045
  30.480         72.50	     9.327
  30.500         85.00	    10.100
  30.520         80.00	     9.798
  30.540         67.50	     9.000
  30.560         70.83	     9.220
  30.580         65.00	     8.832
  30.600         86.67	    10.198
  30.620         64.17	     8.775
  30.640         60.00	     8.485
  30.660        117.50	    11.874
  30.680        103.33	    11.136
  30.700        100.83	    11.000
  30.720         95.83	    10.724
  30.740         86.67	    10.198
  30.760         79.17	     9.747
  30.780         56.67	     8.246
  30.800         47.50	     7.550
  30.820         55.00	     8.124
  30.840         43.33	     7.211
  30.860         42.50	     7.141
  30.880         49.17	     7.681
  30.900         60.83	     8.544
  30.920         55.00	     8.124
  30.940         76.67	     9.592
  30.960         57.50	     8.307
  30.980         69.17	     9.110
  31.000         83.33	    10.000
  31.020         79.17	     9.747
  31.040         55.00	     8.124
  31.060         57.50	     8.307
  31.080         62.50	     8.660
  31.100         60.00	     8.485
  31.120         57.50	     8.307
  31.140         54.17	     8.062
  31.160         51.67	     7.874
  31.180         47.50	     7.550
  31.200         50.83	     7.810
  31.220         50.00	     7.746
  31.240         57.50	     8.307
  31.260         69.17	     9.110
  31.280         70.83	     9.220
  31.300         82.50	     9.950
  31.320         82.50	     9.950
  31.340         97.50	    10.817
  31.360        135.00	    12.728
  31.380        166.67	    14.142
  31.400        185.00	    14.900
  31.420        145.83	    13.229
  31.440        118.33	    11.916
  31.460        135.00	    12.728
  31.480        137.50	    12.845
  31.500         74.17	     9.434
  31.520         87.50	    10.247
  31.540         60.00	     8.485
  31.560         66.67	     8.944
  31.580         54.17	     8.062
  31.600         68.33	     9.055
  31.620         58.33	     8.367
  31.640         57.50	     8.307
  31.660         75.83	     9.539
  31.680         59.17	     8.426
  31.700         62.50	     8.660
  31.720         76.67	     9.592
  31.740         65.83	     8.888
  31.760         68.33	     9.055
  31.780         60.83	     8.544
  31.800         55.83	     8.185
  31.820         61.67	     8.602
  31.840         55.83	     8.185
  31.860         52.50	     7.937
  31.880         40.83	     7.000
  31.900         31.67	     6.164
  31.920         43.33	     7.211
  31.940         29.17	     5.916
  31.960         44.17	     7.280
  31.980         40.83	     7.000
  32.000         37.50	     6.708
  32.020         32.50	     6.245
  32.040         42.50	     7.141
  32.060         43.33	     7.211
  32.080         40.00	     6.928
  32.100         53.33	     8.000
  32.120         38.33	     6.782
  32.140         49.17	     7.681
  32.160         45.00	     7.348
  32.180         49.17	     7.681
  32.200         36.67	     6.633
  32.220         46.67	     7.483
  32.240         45.00	     7.348
  32.260         58.33	     8.367
  32.280         58.33	     8.367
  32.300         41.67	     7.071
  32.320         29.17	     5.916
  32.340         35.00	     6.481
  32.360         42.50	     7.141
  32.380         50.00	     7.746
  32.400         50.83	     7.810
  32.420         42.50	     7.141
  32.440         53.33	     8.000
  32.460         63.33	     8.718
  32.480         91.67	    10.488
  32.500        104.17	    11.180
  32.520         65.83	     8.888
  32.540         65.00	     8.832
  32.560         63.33	     8.718
  32.580         62.50	     8.660
  32.600         55.00	     8.124
  32.620         47.50	     7.550
  32.640         34.17	     6.403
  32.660         28.33	     5.831
  32.680         38.33	     6.782
  32.700         27.50	     5.745
  32.720         16.67	     4.472
  32.740         24.17	     5.385
  32.760         30.00	     6.000
  32.780         25.00	     5.477
  32.800         22.50	     5.196
  32.820         29.17	     5.916
  32.840         29.17	     5.916
  32.860         26.67	     5.657
  32.880         21.67	     5.099
  32.900         28.33	     5.831
  32.920         32.50	     6.245
  32.940         21.67	     5.099
  32.960         22.50	     5.196
  32.980         37.50	     6.708
  33.000         33.33	     6.325
  33.020         19.17	     4.796
  33.040         29.17	     5.916
  33.060         32.50	     6.245
  33.080         24.17	     5.385
  33.100         25.00	     5.477
  33.120         24.17	     5.385
  33.140         25.83	     5.568
  33.160         20.83	     5.000
  33.180         31.67	     6.164
  33.200         30.00	     6.000
  33.220         29.17	     5.916
  33.240         36.67	     6.633
  33.260         35.00	     6.481
  33.280         30.00	     6.000
  33.300         30.00	     6.000
  33.320         26.67	     5.657
  33.340         34.17	     6.403
  33.360         24.17	     5.385
  33.380         28.33	     5.831
  33.400         23.33	     5.292
  33.420         24.17	     5.385
  33.440         22.50	     5.196
  33.460         30.00	     6.000
  33.480         25.00	     5.477
  33.500         33.33	     6.325
  33.520         36.67	     6.633
  33.540         35.83	     6.557
  33.560         23.33	     5.292
  33.580         35.83	     6.557
  33.600         26.67	     5.657
  33.620         36.67	     6.633
  33.640         23.33	     5.292
  33.660         29.17	     5.916
  33.680         25.83	     5.568
  33.700         25.83	     5.568
  33.720         39.17	     6.856
  33.740         31.67	     6.164
  33.760         40.00	     6.928
  33.780         32.50	     6.245
  33.800         38.33	     6.782
  33.820         32.50	     6.245
  33.840         47.50	     7.550
  33.860         22.50	     5.196
  33.880         31.67	     6.164
  33.900         33.33	     6.325
  33.920         28.33	     5.831
  33.940         31.67	     6.164
  33.960         40.00	     6.928
  33.980         41.67	     7.071
  34.000         30.83	     6.083
  34.020         25.00	     5.477
  34.040         40.83	     7.000
  34.060         42.50	     7.141
  34.080         45.83	     7.416
  34.100         32.50	     6.245
  34.120         42.50	     7.141
  34.140         42.50	     7.141
  34.160         42.50	     7.141
  34.180         41.67	     7.071
  34.200         37.50	     6.708
  34.220         33.33	     6.325
  34.240         28.33	     5.831
  34.260         40.83	     7.000
  34.280         41.67	     7.071
  34.300         35.83	     6.557
  34.320         25.00	     5.477
  34.340         29.17	     5.916
  34.360         34.17	     6.403
  34.380         37.50	     6.708
  34.400         37.50	     6.708
  34.420         28.33	     5.831
  34.440         28.33	     5.831
  34.460         39.17	     6.856
  34.480         30.83	     6.083
  34.500         30.00	     6.000
  34.520         37.50	     6.708
  34.540         34.17	     6.403
  34.560         51.67	     7.874
  34.580         36.67	     6.633
  34.600         43.33	     7.211
  34.620         52.50	     7.937
  34.640         52.50	     7.937
  34.660         45.00	     7.348
  34.680         48.33	     7.616
  34.700         64.17	     8.775
  34.720         59.17	     8.426
  34.740         51.67	     7.874
  34.760         50.00	     7.746
  34.780         62.50	     8.660
  34.800         58.33	     8.367
  34.820         61.67	     8.602
  34.840         62.50	     8.660
  34.860         51.67	     7.874
  34.880         65.83	     8.888
  34.900         55.00	     8.124
  34.920         44.17	     7.280
  34.940         60.83	     8.544
  34.960         75.00	     9.487
  34.980         71.67	     9.274
  35.000         75.00	     9.487
  35.020         72.50	     9.327
  35.040         84.17	    10.050
  35.060         83.33	    10.000
  35.080         72.50	     9.327
  35.100         93.33	    10.583
  35.120         99.17	    10.909
  35.140        110.00	    11.489
  35.160         80.83	     9.849
  35.180         93.33	    10.583
  35.200         89.17	    10.344
  35.220         99.17	    10.909
  35.240         89.17	    10.344
  35.260         90.00	    10.392
  35.280         83.33	    10.000
  35.300         73.33	     9.381
  35.320         65.00	     8.832
  35.340         55.00	     8.124
  35.360         59.17	     8.426
  35.380         63.33	     8.718
  35.400         56.67	     8.246
  35.420         39.17	     6.856
  35.440         46.67	     7.483
  35.460         43.33	     7.211
  35.480         41.67	     7.071
  35.500         55.83	     8.185
  35.520         55.00	     8.124
  35.540         59.17	     8.426
  35.560         68.33	     9.055
  35.580         93.33	    10.583
  35.600         73.33	     9.381
  35.620         93.33	    10.583
  35.640         97.50	    10.817
  35.660        119.17	    11.958
  35.680        147.50	    13.304
  35.700        130.00	    12.490
  35.720        128.33	    12.410
  35.740        143.33	    13.115
  35.760        140.00	    12.961
  35.780        140.00	    12.961
  35.800         90.00	    10.392
  35.820         87.50	    10.247
  35.840         90.00	    10.392
  35.860         81.67	     9.899
  35.880         71.67	     9.274
  35.900         59.17	     8.426
  35.920         67.50	     9.000
  35.940         65.00	     8.832
  35.960         60.00	     8.485
  35.980         61.67	     8.602
  36.000         70.83	     9.220
  36.020         65.00	     8.832
  36.040         77.50	     9.644
  36.060         58.33	     8.367
  36.080         67.50	     9.000
  36.100         71.67	     9.274
  36.120         66.67	     8.944
  36.140         80.00	     9.798
  36.160         88.33	    10.296
  36.180        120.00	    12.000
  36.200        105.83	    11.269
  36.220        112.50	    11.619
  36.240        125.00	    12.247
  36.260        155.00	    13.638
  36.280        130.00	    12.490
  36.300        111.67	    11.576
  36.320         75.83	     9.539
  36.340         73.33	     9.381
  36.360         94.17	    10.630
  36.380         69.17	     9.110
  36.400         56.67	     8.246
  36.420         45.00	     7.348
  36.440         51.67	     7.874
  36.460         44.17	     7.280
  36.480         46.67	     7.483
  36.500         51.67	     7.874
  36.520         58.33	     8.367
  36.540         65.00	     8.832
  36.560         61.67	     8.602
  36.580         74.17	     9.434
  36.600        118.33	    11.916
  36.620        166.67	    14.142
  36.640        238.33	    16.912
  36.660        373.33	    21.166
  36.680        505.00	    24.617
  36.700        485.83	    24.145
  36.720        347.50	    20.421
  36.740        274.17	    18.138
  36.760        265.00	    17.833
  36.780        300.00	    18.974
  36.800        270.83	    18.028
  36.820        172.50	    14.387
  36.840        135.00	    12.728
  36.860        124.17	    12.207
  36.880        145.83	    13.229
  36.900        119.17	    11.958
  36.920         74.17	     9.434
  36.940         64.17	     8.775
  36.960         76.67	     9.592
  36.980         85.83	    10.149
  37.000         59.17	     8.426
  37.020         47.50	     7.550
  37.040         50.00	     7.746
  37.060         43.33	     7.211
  37.080         33.33	     6.325
  37.100         46.67	     7.483
  37.120         35.00	     6.481
  37.140         50.83	     7.810
  37.160         42.50	     7.141
  37.180         41.67	     7.071
  37.200         42.50	     7.141
  37.220         38.33	     6.782
  37.240         43.33	     7.211
  37.260         42.50	     7.141
  37.280         49.17	     7.681
  37.300         40.00	     6.928
  37.320         33.33	     6.325
  37.340         45.00	     7.348
  37.360         55.00	     8.124
  37.380         36.67	     6.633
  37.400         43.33	     7.211
  37.420         40.00	     6.928
  37.440         45.00	     7.348
  37.460         47.50	     7.550
  37.480         50.00	     7.746
  37.500         53.33	     8.000
  37.520         45.83	     7.416
  37.540         52.50	     7.937
  37.560         42.50	     7.141
  37.580         50.83	     7.810
  37.600         45.83	     7.416
  37.620         45.00	     7.348
  37.640         41.67	     7.071
  37.660         53.33	     8.000
  37.680         54.17	     8.062
  37.700         62.50	     8.660
  37.720         53.33	     8.000
  37.740         40.83	     7.000
  37.760         58.33	     8.367
  37.780         57.50	     8.307
  37.800         69.17	     9.110
  37.820         61.67	     8.602
  37.840         71.67	     9.274
  37.860         63.33	     8.718
  37.880         61.67	     8.602
  37.900         64.17	     8.775
  37.920         80.00	     9.798
  37.940         62.50	     8.660
  37.960         67.50	     9.000
  37.980         43.33	     7.211
  38.000         43.33	     7.211
  38.020         46.67	     7.483
  38.040         35.00	     6.481
  38.060         32.50	     6.245
  38.080         38.33	     6.782
  38.100         36.67	     6.633
  38.120         24.17	     5.385
  38.140         26.67	     5.657
  38.160         26.67	     5.657
  38.180         26.67	     5.657
  38.200         25.83	     5.568
  38.220         33.33	     6.325
  38.240         24.17	     5.385
  38.260         21.67	     5.099
  38.280         36.67	     6.633
  38.300         25.00	     5.477
  38.320         18.33	     4.690
  38.340         37.50	     6.708
  38.360         22.50	     5.196
  38.380         26.67	     5.657
  38.400         18.33	     4.690
  38.420         34.17	     6.403
  38.440         32.50	     6.245
  38.460         33.33	     6.325
  38.480         20.00	     4.899
  38.500         23.33	     5.292
  38.520         20.83	     5.000
  38.540         30.00	     6.000
  38.560         28.33	     5.831
  38.580         30.83	     6.083
  38.600         31.67	     6.164
  38.620         25.00	     5.477
  38.640         31.67	     6.164
  38.660         26.67	     5.657
  38.680         25.00	     5.477
  38.700         38.33	     6.782
  38.720         31.67	     6.164
  38.740         20.83	     5.000
  38.760         35.83	     6.557
  38.780         31.67	     6.164
  38.800         35.00	     6.481
  38.820         30.83	     6.083
  38.840         41.67	     7.071
  38.860         30.00	     6.000
  38.880         26.67	     5.657
  38.900         33.33	     6.325
  38.920         31.67	     6.164
  38.940         40.83	     7.000
  38.960         38.33	     6.782
  38.980         26.67	     5.657
  39.000         37.50	     6.708
  39.020         31.67	     6.164
  39.040         33.33	     6.325
  39.060         40.83	     7.000
  39.080         28.33	     5.831
  39.100         28.33	     5.831
  39.120         25.00	     5.477
  39.140         27.50	     5.745
  39.160         20.83	     5.000
  39.180         21.67	     5.099
  39.200         38.33	     6.782
  39.220         30.00	     6.000
  39.240         36.67	     6.633
  39.260         30.83	     6.083
  39.280         35.00	     6.481
  39.300         38.33	     6.782
  39.320         25.83	     5.568
  39.340         31.67	     6.164
  39.360         31.67	     6.164
  39.380         38.33	     6.782
  39.400         41.67	     7.071
  39.420         40.00	     6.928
  39.440         56.67	     8.246
  39.460         43.33	     7.211
  39.480         50.00	     7.746
  39.500         46.67	     7.483
  39.520         65.00	     8.832
  39.540         95.00	    10.677
  39.560        146.67	    13.266
  39.580        221.67	    16.310
  39.600        362.50	    20.857
  39.620        531.67	    25.259
  39.640        505.83	    24.637
  39.660        349.17	    20.469
  39.680        222.50	    16.340
  39.700        281.67	    18.385
  39.720        312.50	    19.365
  39.740        253.33	    17.436
  39.760        179.17	    14.663
  39.780         90.83	    10.440
  39.800         76.67	     9.592
  39.820         62.50	     8.660
  39.840         67.50	     9.000
  39.860         50.83	     7.810
  39.880         31.67	     6.164
  39.900         40.83	     7.000
  39.920         53.33	     8.000
  39.940         45.00	     7.348
  39.960         56.67	     8.246
  39.980         51.67	     7.874
  40.000         35.00	     6.481
  40.020         45.00	     7.348
  40.040         57.50	     8.307
  40.060         48.33	     7.616
  40.080         58.33	     8.367
  40.100         87.50	    10.247
  40.120        111.67	    11.576
  40.140         87.50	    10.247
  40.160         60.83	     8.544
  40.180         59.17	     8.426
  40.200         81.67	     9.899
  40.220         84.17	    10.050
  40.240         61.67	     8.602
  40.260         48.33	     7.616
  40.280         43.33	     7.211
  40.300         53.33	     8.000
  40.320         59.17	     8.426
  40.340         63.33	     8.718
  40.360         62.50	     8.660
  40.380         77.50	     9.644
  40.400        104.17	    11.180
  40.420        123.33	    12.166
  40.440         88.33	    10.296
  40.460         90.83	    10.440
  40.480         83.33	    10.000
  40.500         94.17	    10.630
  40.520         79.17	     9.747
  40.540         67.50	     9.000
  40.560         74.17	     9.434
  40.580         56.67	     8.246
  40.600         48.33	     7.616
  40.620         46.67	     7.483
  40.640         45.00	     7.348
  40.660         35.83	     6.557
  40.680         37.50	     6.708
  40.700         25.00	     5.477
  40.720         29.17	     5.916
  40.740         37.50	     6.708
  40.760         30.00	     6.000
  40.780         28.33	     5.831
  40.800         37.50	     6.708
  40.820         28.33	     5.831
  40.840         30.00	     6.000
  40.860         41.67	     7.071
  40.880         34.17	     6.403
  40.900         37.50	     6.708
  40.920         28.33	     5.831
  40.940         35.83	     6.557
  40.960         41.67	     7.071
  40.980         46.67	     7.483
  41.000         49.17	     7.681
  41.020         57.50	     8.307
  41.040         64.17	     8.775
  41.060         75.83	     9.539
  41.080         95.83	    10.724
  41.100         95.00	    10.677
  41.120         95.83	    10.724
  41.140         65.83	     8.888
  41.160         68.33	     9.055
  41.180         85.83	    10.149
  41.200         75.00	     9.487
  41.220         60.00	     8.485
  41.240         55.83	     8.185
  41.260         40.00	     6.928
  41.280         51.67	     7.874
  41.300         36.67	     6.633
  41.320         50.00	     7.746
  41.340         50.00	     7.746
  41.360         55.00	     8.124
  41.380         50.00	     7.746
  41.400         50.00	     7.746
  41.420         40.00	     6.928
  41.440         38.33	     6.782
  41.460         43.33	     7.211
  41.480         39.17	     6.856
  41.500         44.17	     7.280
  41.520         33.33	     6.325
  41.540         50.83	     7.810
  41.560         39.17	     6.856
  41.580         32.50	     6.245
  41.600         31.67	     6.164
  41.620         37.50	     6.708
  41.640         40.00	     6.928
  41.660         36.67	     6.633
  41.680         44.17	     7.280
  41.700         39.17	     6.856
  41.720         53.33	     8.000
  41.740         70.00	     9.165
  41.760         77.50	     9.644
  41.780         66.67	     8.944
  41.800        105.00	    11.225
  41.820         90.83	    10.440
  41.840        123.33	    12.166
  41.860        120.83	    12.042
  41.880        141.67	    13.038
  41.900        185.83	    14.933
  41.920        185.83	    14.933
  41.940        196.67	    15.362
  41.960        151.67	    13.491
  41.980        131.67	    12.570
  42.000        115.83	    11.790
  42.020        124.17	    12.207
  42.040        114.17	    11.705
  42.060        121.67	    12.083
  42.080         89.17	    10.344
  42.100         92.50	    10.536
  42.120         83.33	    10.000
  42.140         82.50	     9.950
  42.160         60.00	     8.485
  42.180         59.17	     8.426
  42.200         64.17	     8.775
  42.220         59.17	     8.426
  42.240         61.67	     8.602
  42.260         54.17	     8.062
  42.280         43.33	     7.211
  42.300         59.17	     8.426
  42.320         38.33	     6.782
  42.340         48.33	     7.616
  42.360         60.00	     8.485
  42.380         59.17	     8.426
  42.400         48.33	     7.616
  42.420         54.17	     8.062
  42.440         77.50	     9.644
  42.460         86.67	    10.198
  42.480        101.67	    11.045
  42.500        140.00	    12.961
  42.520        216.67	    16.125
  42.540        282.50	    18.412
  42.560        330.83	    19.925
  42.580        399.17	    21.886
  42.600        479.17	    23.979
  42.620        339.17	    20.174
  42.640        248.33	    17.263
  42.660        230.83	    16.643
  42.680        261.67	    17.720
  42.700        316.67	    19.494
  42.720        294.17	    18.788
  42.740        204.17	    15.652
  42.760        145.00	    13.191
  42.780        115.00	    11.747
  42.800         97.50	    10.817
  42.820         86.67	    10.198
  42.840        101.67	    11.045
  42.860         78.33	     9.695
  42.880         66.67	     8.944
  42.900         60.00	     8.485
  42.920         38.33	     6.782
  42.940         43.33	     7.211
  42.960         49.17	     7.681
  42.980         53.33	     8.000
  43.000         54.17	     8.062
  43.020         40.83	     7.000
  43.040         40.83	     7.000
  43.060         41.67	     7.071
  43.080         49.17	     7.681
  43.100         47.50	     7.550
  43.120         65.00	     8.832
  43.140         39.17	     6.856
  43.160         42.50	     7.141
  43.180         40.00	     6.928
  43.200         47.50	     7.550
  43.220         50.00	     7.746
  43.240         38.33	     6.782
  43.260         31.67	     6.164
  43.280         40.83	     7.000
  43.300         39.17	     6.856
  43.320         43.33	     7.211
  43.340         80.00	     9.798
  43.360         69.17	     9.110
  43.380         46.67	     7.483
  43.400         51.67	     7.874
  43.420         44.17	     7.280
  43.440         46.67	     7.483
  43.460         53.33	     8.000
  43.480         46.67	     7.483
  43.500         45.83	     7.416
  43.520         47.50	     7.550
  43.540         30.83	     6.083
  43.560         37.50	     6.708
  43.580         37.50	     6.708
  43.600         33.33	     6.325
  43.620         34.17	     6.403
  43.640         39.17	     6.856
  43.660         35.83	     6.557
  43.680         31.67	     6.164
  43.700         43.33	     7.211
  43.720         30.83	     6.083
  43.740         25.83	     5.568
  43.760         46.67	     7.483
  43.780         41.67	     7.071
  43.800         42.50	     7.141
  43.820         35.00	     6.481
  43.840         40.00	     6.928
  43.860         27.50	     5.745
  43.880         38.33	     6.782
  43.900         47.50	     7.550
  43.920         65.83	     8.888
  43.940         42.50	     7.141
  43.960         43.33	     7.211
  43.980         35.00	     6.481
  44.000         37.50	     6.708
  44.020         35.83	     6.557
  44.040         39.17	     6.856
  44.060         19.17	     4.796
  44.080         34.17	     6.403
  44.100         26.67	     5.657
  44.120         29.17	     5.916
  44.140         30.00	     6.000
  44.160         25.00	     5.477
  44.180         32.50	     6.245
  44.200         23.33	     5.292
  44.220         40.00	     6.928
  44.240         27.50	     5.745
  44.260         35.00	     6.481
  44.280         21.67	     5.099
  44.300         30.83	     6.083
  44.320         35.83	     6.557
  44.340         47.50	     7.550
  44.360         42.50	     7.141
  44.380         34.17	     6.403
  44.400         32.50	     6.245
  44.420         29.17	     5.916
  44.440         25.83	     5.568
  44.460         38.33	     6.782
  44.480         35.00	     6.481
  44.500         37.50	     6.708
  44.520         38.33	     6.782
  44.540         45.83	     7.416
  44.560         60.83	     8.544
  44.580        105.83	    11.269
  44.600        161.67	    13.928
  44.620        122.50	    12.124
  44.640         94.17	    10.630
  44.660         61.67	     8.602
  44.680         87.50	    10.247
  44.700        115.83	    11.790
  44.720        120.83	    12.042
  44.740        114.17	    11.705
  44.760         85.83	    10.149
  44.780         69.17	     9.110
  44.800         72.50	     9.327
  44.820         65.83	     8.888
  44.840         60.83	     8.544
  44.860         71.67	     9.274
  44.880         71.67	     9.274
  44.900         81.67	     9.899
  44.920         68.33	     9.055
  44.940         70.83	     9.220
  44.960         93.33	    10.583
  44.980        111.67	    11.576
  45.000        132.50	    12.610
  45.020        260.00	    17.664
  45.040        476.67	    23.917
  45.060        880.83	    32.512
  45.080       1005.00	    34.728
  45.100        786.67	    30.725
  45.120        392.50	    21.703
  45.140        288.33	    18.601
  45.160        370.83	    21.095
  45.180        546.67	    25.612
  45.200        559.17	    25.904
  45.220        460.83	    23.516
  45.240        260.83	    17.692
  45.260        133.33	    12.649
  45.280        102.50	    11.091
  45.300         95.83	    10.724
  45.320         79.17	     9.747
  45.340         75.83	     9.539
  45.360         48.33	     7.616
  45.380         65.00	     8.832
  45.400         80.83	     9.849
  45.420         65.83	     8.888
  45.440         93.33	    10.583
  45.460         91.67	    10.488
  45.480         82.50	     9.950
  45.500        105.00	    11.225
  45.520        124.17	    12.207
  45.540        105.00	    11.225
  45.560        154.17	    13.601
  45.580        165.83	    14.107
  45.600        222.50	    16.340
  45.620        282.50	    18.412
  45.640        330.83	    19.925
  45.660        333.33	    20.000
  45.680        393.33	    21.726
  45.700        486.67	    24.166
  45.720        698.33	    28.948
  45.740        777.50	    30.545
  45.760        679.17	    28.548
  45.780        400.00	    21.909
  45.800        305.00	    19.131
  45.820        337.50	    20.125
  45.840        425.00	    22.583
  45.860        489.17	    24.228
  45.880        447.50	    23.173
  45.900        343.33	    20.298
  45.920        276.67	    18.221
  45.940        265.83	    17.861
  45.960        280.83	    18.358
  45.980        207.50	    15.780
  46.000        189.17	    15.067
  46.020        157.50	    13.748
  46.040        142.50	    13.077
  46.060        139.17	    12.923
  46.080        132.50	    12.610
  46.100        100.83	    11.000
  46.120         78.33	     9.695
  46.140         73.33	     9.381
  46.160         50.83	     7.810
  46.180         51.67	     7.874
  46.200         53.33	     8.000
  46.220         49.17	     7.681
  46.240         45.83	     7.416
  46.260         45.83	     7.416
  46.280         40.00	     6.928
  46.300         50.83	     7.810
  46.320         44.17	     7.280
  46.340         35.83	     6.557
  46.360         45.83	     7.416
  46.380         44.17	     7.280
  46.400         28.33	     5.831
  46.420         35.83	     6.557
  46.440         39.17	     6.856
  46.460         30.00	     6.000
  46.480         33.33	     6.325
  46.500         35.00	     6.481
  46.520         35.00	     6.481
  46.540         26.67	     5.657
  46.560         30.00	     6.000
  46.580         33.33	     6.325
  46.600         31.67	     6.164
  46.620         35.83	     6.557
  46.640         24.17	     5.385
  46.660         34.17	     6.403
  46.680         35.00	     6.481
  46.700         45.83	     7.416
  46.720         37.50	     6.708
  46.740         39.17	     6.856
  46.760         31.67	     6.164
  46.780         28.33	     5.831
  46.800         37.50	     6.708
  46.820         20.83	     5.000
  46.840         30.00	     6.000
  46.860         37.50	     6.708
  46.880         32.50	     6.245
  46.900         24.17	     5.385
  46.920         40.00	     6.928
  46.940         49.17	     7.681
  46.960         53.33	     8.000
  46.980         33.33	     6.325
  47.000         34.17	     6.403
  47.020         22.50	     5.196
  47.040         39.17	     6.856
  47.060         49.17	     7.681
  47.080         40.00	     6.928
  47.100         51.67	     7.874
  47.120         38.33	     6.782
  47.140         50.00	     7.746
  47.160         39.17	     6.856
  47.180         55.00	     8.124
  47.200         60.83	     8.544
  47.220         64.17	     8.775
  47.240         87.50	    10.247
  47.260         95.83	    10.724
  47.280        123.33	    12.166
  47.300        160.83	    13.892
  47.320        180.83	    14.731
  47.340        177.50	    14.595
  47.360        165.83	    14.107
  47.380        134.17	    12.689
  47.400        119.17	    11.958
  47.420         83.33	    10.000
  47.440        101.67	    11.045
  47.460         91.67	    10.488
  47.480         88.33	    10.296
  47.500         68.33	     9.055
  47.520         55.83	     8.185
  47.540         44.17	     7.280
  47.560         52.50	     7.937
  47.580         38.33	     6.782
  47.600         35.83	     6.557
  47.620         29.17	     5.916
  47.640         35.00	     6.481
  47.660         25.00	     5.477
  47.680         29.17	     5.916
  47.700         31.67	     6.164
  47.720         34.17	     6.403
  47.740         32.50	     6.245
  47.760         32.50	     6.245
  47.780         30.83	     6.083
  47.800         25.00	     5.477
  47.820         30.83	     6.083
  47.840         32.50	     6.245
  47.860         30.83	     6.083
  47.880         28.33	     5.831
  47.900         45.00	     7.348
  47.920         22.50	     5.196
  47.940         23.33	     5.292
  47.960         25.83	     5.568
  47.980         36.67	     6.633
  48.000         47.50	     7.550
  48.020         38.33	     6.782
  48.040         33.33	     6.325
  48.060         38.33	     6.782
  48.080         31.67	     6.164
  48.100         55.00	     8.124
  48.120         53.33	     8.000
  48.140         45.00	     7.348
  48.160         37.50	     6.708
  48.180         43.33	     7.211
  48.200         49.17	     7.681
  48.220         56.67	     8.246
  48.240         65.00	     8.832
  48.260         59.17	     8.426
  48.280         74.17	     9.434
  48.300         74.17	     9.434
  48.320         70.83	     9.220
  48.340         60.00	     8.485
  48.360         60.83	     8.544
  48.380         85.83	    10.149
  48.400        105.83	    11.269
  48.420        187.50	    15.000
  48.440        267.50	    17.916
  48.460        230.00	    16.613
  48.480        201.67	    15.556
  48.500        105.83	    11.269
  48.520         74.17	     9.434
  48.540         93.33	    10.583
  48.560        140.83	    13.000
  48.580        137.50	    12.845
  48.600        121.67	    12.083
  48.620         82.50	     9.950
  48.640         59.17	     8.426
  48.660         52.50	     7.937
  48.680         50.00	     7.746
  48.700         57.50	     8.307
  48.720         55.83	     8.185
  48.740         64.17	     8.775
  48.760         50.83	     7.810
  48.780         51.67	     7.874
  48.800         50.83	     7.810
  48.820         50.00	     7.746
  48.840         48.33	     7.616
  48.860         50.83	     7.810
  48.880         51.67	     7.874
  48.900         47.50	     7.550
  48.920         50.00	     7.746
  48.940         47.50	     7.550
  48.960         34.17	     6.403
  48.980         38.33	     6.782
  49.000         33.33	     6.325
  49.020         33.33	     6.325
  49.040         45.83	     7.416
  49.060         42.50	     7.141
  49.080         36.67	     6.633
  49.100         50.00	     7.746
  49.120         45.00	     7.348
  49.140         48.33	     7.616
  49.160         43.33	     7.211
  49.180         46.67	     7.483
  49.200         29.17	     5.916
  49.220         38.33	     6.782
  49.240         42.50	     7.141
  49.260         45.83	     7.416
  49.280         41.67	     7.071
  49.300         36.67	     6.633
  49.320         57.50	     8.307
  49.340         65.00	     8.832
  49.360         65.83	     8.888
  49.380         68.33	     9.055
  49.400         78.33	     9.695
  49.420        103.33	    11.136
  49.440         80.83	     9.849
  49.460         61.67	     8.602
  49.480         47.50	     7.550
  49.500         55.00	     8.124
  49.520         56.67	     8.246
  49.540         56.67	     8.246
  49.560         69.17	     9.110
  49.580         66.67	     8.944
  49.600         39.17	     6.856
  49.620         55.00	     8.124
  49.640         44.17	     7.280
  49.660         41.67	     7.071
  49.680         33.33	     6.325
  49.700         42.50	     7.141
  49.720         41.67	     7.071
  49.740         37.50	     6.708
  49.760         31.67	     6.164
  49.780         58.33	     8.367
  49.800         47.50	     7.550
  49.820         65.00	     8.832
  49.840         55.00	     8.124
  49.860         60.00	     8.485
  49.880         88.33	    10.296
  49.900         67.50	     9.000
  49.920         71.67	     9.274
  49.940         87.50	    10.247
  49.960         85.83	    10.149
  49.980         81.67	     9.899
  50.000         78.33	     9.695
  50.020         70.00	     9.165
  50.040         69.17	     9.110
  50.060         50.83	     7.810
  50.080         75.00	     9.487
  50.100         75.83	     9.539
  50.120         84.17	    10.050
  50.140         85.83	    10.149
  50.160        105.83	    11.269
  50.180        160.00	    13.856
  50.200        213.33	    16.000
  50.220        309.17	    19.261
  50.240        432.50	    22.782
  50.260        441.67	    23.022
  50.280        410.00	    22.181
  50.300        378.33	    21.307
  50.320        263.33	    17.776
  50.340        272.50	    18.083
  50.360        276.67	    18.221
  50.380        268.33	    17.944
  50.400        279.17	    18.303
  50.420        219.17	    16.217
  50.440        191.67	    15.166
  50.460        140.83	    13.000
  50.480        110.00	    11.489
  50.500         81.67	     9.899
  50.520         53.33	     8.000
  50.540         56.67	     8.246
  50.560         44.17	     7.280
  50.580         49.17	     7.681
  50.600         49.17	     7.681
  50.620         56.67	     8.246
  50.640         46.67	     7.483
  50.660         47.50	     7.550
  50.680         45.00	     7.348
  50.700         42.50	     7.141
  50.720         40.00	     6.928
  50.740         38.33	     6.782
  50.760         39.17	     6.856
  50.780         42.50	     7.141
  50.800         54.17	     8.062
  50.820         40.00	     6.928
  50.840         32.50	     6.245
  50.860         37.50	     6.708
  50.880         30.83	     6.083
  50.900         35.00	     6.481
  50.920         25.83	     5.568
  50.940         40.83	     7.000
  50.960         30.00	     6.000
  50.980         27.50	     5.745
  51.000         34.17	     6.403
  51.020         37.50	     6.708
  51.040         33.33	     6.325
  51.060         30.00	     6.000
  51.080         25.00	     5.477
  51.100         25.00	     5.477
  51.120         34.17	     6.403
  51.140         38.33	     6.782
  51.160         25.00	     5.477
  51.180         35.00	     6.481
  51.200         32.50	     6.245
  51.220         34.17	     6.403
  51.240         35.00	     6.481
  51.260         58.33	     8.367
  51.280         44.17	     7.280
  51.300         49.17	     7.681
  51.320         32.50	     6.245
  51.340         41.67	     7.071
  51.360         45.83	     7.416
  51.380         45.00	     7.348
  51.400         36.67	     6.633
  51.420         55.83	     8.185
  51.440         41.67	     7.071
  51.460         26.67	     5.657
  51.480         26.67	     5.657
  51.500         30.00	     6.000
  51.520         38.33	     6.782
  51.540         27.50	     5.745
  51.560         26.67	     5.657
  51.580         29.17	     5.916
  51.600         21.67	     5.099
  51.620         26.67	     5.657
  51.640         40.00	     6.928
  51.660         36.67	     6.633
  51.680         30.83	     6.083
  51.700         19.17	     4.796
  51.720         30.83	     6.083
  51.740         34.17	     6.403
  51.760         28.33	     5.831
  51.780         22.50	     5.196
  51.800         24.17	     5.385
  51.820         35.00	     6.481
  51.840         29.17	     5.916
  51.860         26.67	     5.657
  51.880         23.33	     5.292
  51.900         32.50	     6.245
  51.920         25.83	     5.568
  51.940         35.83	     6.557
  51.960         21.67	     5.099
  51.980         21.67	     5.099
  52.000         28.33	     5.831
  52.020         26.67	     5.657
  52.040         30.00	     6.000
  52.060         29.17	     5.916
  52.080         25.83	     5.568
  52.100         32.50	     6.245
  52.120         20.83	     5.000
  52.140         20.83	     5.000
  52.160         27.50	     5.745
  52.180         30.00	     6.000
  52.200         34.17	     6.403
  52.220         25.83	     5.568
  52.240         40.83	     7.000
  52.260         34.17	     6.403
  52.280         28.33	     5.831
  52.300         22.50	     5.196
  52.320         25.00	     5.477
  52.340         30.83	     6.083
  52.360         41.67	     7.071
  52.380         35.83	     6.557
  52.400         27.50	     5.745
  52.420         38.33	     6.782
  52.440         31.67	     6.164
  52.460         43.33	     7.211
  52.480         52.50	     7.937
  52.500         58.33	     8.367
  52.520         61.67	     8.602
  52.540         64.17	     8.775
  52.560         58.33	     8.367
  52.580         31.67	     6.164
  52.600         40.00	     6.928
  52.620         52.50	     7.937
  52.640         55.00	     8.124
  52.660         50.00	     7.746
  52.680         56.67	     8.246
  52.700         54.17	     8.062
  52.720         50.00	     7.746
  52.740         40.83	     7.000
  52.760         41.67	     7.071
  52.780         36.67	     6.633
  52.800         47.50	     7.550
  52.820         54.17	     8.062
  52.840         44.17	     7.280
  52.860         43.33	     7.211
  52.880         35.00	     6.481
  52.900         35.83	     6.557
  52.920         38.33	     6.782
  52.940         39.17	     6.856
  52.960         41.67	     7.071
  52.980         42.50	     7.141
  53.000         40.83	     7.000
  53.020         33.33	     6.325
  53.040         38.33	     6.782
  53.060         31.67	     6.164
  53.080         36.67	     6.633
  53.100         38.33	     6.782
  53.120         30.83	     6.083
  53.140         43.33	     7.211
  53.160         36.67	     6.633
  53.180         40.83	     7.000
  53.200         40.83	     7.000
  53.220         49.17	     7.681
  53.240         50.83	     7.810
  53.260         66.67	     8.944
  53.280         88.33	    10.296
  53.300         79.17	     9.747
  53.320         82.50	     9.950
  53.340         85.00	    10.100
  53.360         58.33	     8.367
  53.380         90.83	    10.440
  53.400         70.00	     9.165
  53.420         59.17	     8.426
  53.440         58.33	     8.367
  53.460         63.33	     8.718
  53.480         45.83	     7.416
  53.500         49.17	     7.681
  53.520         54.17	     8.062
  53.540         37.50	     6.708
  53.560         37.50	     6.708
  53.580         26.67	     5.657
  53.600         25.83	     5.568
  53.620         32.50	     6.245
  53.640         29.17	     5.916
  53.660         24.17	     5.385
  53.680         28.33	     5.831
  53.700         38.33	     6.782
  53.720         25.00	     5.477
  53.740         28.33	     5.831
  53.760         25.00	     5.477
  53.780         29.17	     5.916
  53.800         28.33	     5.831
  53.820         34.17	     6.403
  53.840         30.00	     6.000
  53.860         28.33	     5.831
  53.880         25.00	     5.477
  53.900         30.83	     6.083
  53.920         24.17	     5.385
  53.940         34.17	     6.403
  53.960         28.33	     5.831
  53.980         24.17	     5.385
  54.000         30.83	     6.083
  54.020         29.17	     5.916
  54.040         25.83	     5.568
  54.060         28.33	     5.831
  54.080         32.50	     6.245
  54.100         35.83	     6.557
  54.120         31.67	     6.164
  54.140         31.67	     6.164
  54.160         23.33	     5.292
  54.180         37.50	     6.708
  54.200         34.17	     6.403
  54.220         30.00	     6.000
  54.240         24.17	     5.385
  54.260         32.50	     6.245
  54.280         23.33	     5.292
  54.300         25.83	     5.568
  54.320         25.00	     5.477
  54.340         29.17	     5.916
  54.360         24.17	     5.385
  54.380         45.83	     7.416
  54.400         39.17	     6.856
  54.420         60.83	     8.544
  54.440         60.83	     8.544
  54.460         93.33	    10.583
  54.480         99.17	    10.909
  54.500         76.67	     9.592
  54.520         90.00	    10.392
  54.540         64.17	     8.775
  54.560         60.83	     8.544
  54.580         60.00	     8.485
  54.600         76.67	     9.592
  54.620         74.17	     9.434
  54.640         58.33	     8.367
  54.660         65.00	     8.832
  54.680         47.50	     7.550
  54.700         56.67	     8.246
  54.720         43.33	     7.211
  54.740         33.33	     6.325
  54.760         31.67	     6.164
  54.780         34.17	     6.403
  54.800         41.67	     7.071
  54.820         41.67	     7.071
  54.840         29.17	     5.916
  54.860         44.17	     7.280
  54.880         60.83	     8.544
  54.900         64.17	     8.775
  54.920         86.67	    10.198
  54.940        115.83	    11.790
  54.960        154.17	    13.601
  54.980        191.67	    15.166
  55.000        195.00	    15.297
  55.020        174.17	    14.457
  55.040        131.67	    12.570
  55.060        115.00	    11.747
  55.080         95.00	    10.677
  55.100        114.17	    11.705
  55.120        122.50	    12.124
  55.140        109.17	    11.446
  55.160        129.17	    12.450
  55.180        104.17	    11.180
  55.200         75.83	     9.539
  55.220         46.67	     7.483
  55.240         50.00	     7.746
  55.260         35.00	     6.481
  55.280         45.83	     7.416
  55.300         58.33	     8.367
  55.320         41.67	     7.071
  55.340         48.33	     7.616
  55.360         62.50	     8.660
  55.380         80.00	     9.798
  55.400         59.17	     8.426
  55.420         62.50	     8.660
  55.440         55.00	     8.124
  55.460         59.17	     8.426
  55.480         45.83	     7.416
  55.500         60.83	     8.544
  55.520         65.00	     8.832
  55.540         63.33	     8.718
  55.560         66.67	     8.944
  55.580         48.33	     7.616
  55.600         48.33	     7.616
  55.620         58.33	     8.367
  55.640         53.33	     8.000
  55.660         51.67	     7.874
  55.680         43.33	     7.211
  55.700         49.17	     7.681
  55.720         46.67	     7.483
  55.740         55.83	     8.185
  55.760         63.33	     8.718
  55.780         60.00	     8.485
  55.800         69.17	     9.110
  55.820         74.17	     9.434
  55.840         74.17	     9.434
  55.860         72.50	     9.327
  55.880         83.33	    10.000
  55.900         78.33	     9.695
  55.920         89.17	    10.344
  55.940        105.00	    11.225
  55.960         95.83	    10.724
  55.980        110.00	    11.489
  56.000        109.17	    11.446
  56.020        103.33	    11.136
  56.040         68.33	     9.055
  56.060         56.67	     8.246
  56.080         53.33	     8.000
  56.100         61.67	     8.602
  56.120         61.67	     8.602
  56.140         58.33	     8.367
  56.160         70.83	     9.220
  56.180         57.50	     8.307
  56.200         60.00	     8.485
  56.220         38.33	     6.782
  56.240         26.67	     5.657
  56.260         33.33	     6.325
  56.280         40.00	     6.928
  56.300         35.00	     6.481
  56.320         45.00	     7.348
  56.340         47.50	     7.550
  56.360         25.83	     5.568
  56.380         25.83	     5.568
  56.400         23.33	     5.292
  56.420         38.33	     6.782
  56.440         34.17	     6.403
  56.460         28.33	     5.831
  56.480         38.33	     6.782
  56.500         35.83	     6.557
  56.520         25.00	     5.477
  56.540         36.67	     6.633
  56.560         37.50	     6.708
  56.580         25.00	     5.477
  56.600         34.17	     6.403
  56.620         26.67	     5.657
  56.640         36.67	     6.633
  56.660         40.83	     7.000
  56.680         32.50	     6.245
  56.700         37.50	     6.708
  56.720         46.67	     7.483
  56.740         25.00	     5.477
  56.760         39.17	     6.856
  56.780         38.33	     6.782
  56.800         34.17	     6.403
  56.820         29.17	     5.916
  56.840         32.50	     6.245
  56.860         25.00	     5.477
  56.880         32.50	     6.245
  56.900         24.17	     5.385
  56.920         35.83	     6.557
  56.940         26.67	     5.657
  56.960         40.00	     6.928
  56.980         31.67	     6.164
  57.000         35.83	     6.557
  57.020         38.33	     6.782
  57.040         36.67	     6.633
  57.060         30.83	     6.083
  57.080         32.50	     6.245
  57.100         24.17	     5.385
  57.120         32.50	     6.245
  57.140         40.00	     6.928
  57.160         22.50	     5.196
  57.180         30.83	     6.083
  57.200         26.67	     5.657
  57.220         34.17	     6.403
  57.240         46.67	     7.483
  57.260         23.33	     5.292
  57.280         29.17	     5.916
  57.300         25.00	     5.477
  57.320         27.50	     5.745
  57.340         46.67	     7.483
  57.360         29.17	     5.916
  57.380         29.17	     5.916
  57.400         30.83	     6.083
  57.420         29.17	     5.916
  57.440         25.00	     5.477
  57.460         27.50	     5.745
  57.480         38.33	     6.782
  57.500         42.50	     7.141
  57.520         40.00	     6.928
  57.540         30.00	     6.000
  57.560         49.17	     7.681
  57.580         35.00	     6.481
  57.600         35.83	     6.557
  57.620         46.67	     7.483
  57.640         38.33	     6.782
  57.660         36.67	     6.633
  57.680         35.83	     6.557
  57.700         37.50	     6.708
  57.720         37.50	     6.708
  57.740         39.17	     6.856
  57.760         30.00	     6.000
  57.780         38.33	     6.782
  57.800         41.67	     7.071
  57.820         32.50	     6.245
  57.840         35.83	     6.557
  57.860         40.00	     6.928
  57.880         29.17	     5.916
  57.900         36.67	     6.633
  57.920         33.33	     6.325
  57.940         27.50	     5.745
  57.960         41.67	     7.071
  57.980         42.50	     7.141
  58.000         43.33	     7.211
  58.020         33.33	     6.325
  58.040         33.33	     6.325
  58.060         43.33	     7.211
  58.080         36.67	     6.633
  58.100         43.33	     7.211
  58.120         29.17	     5.916
  58.140         30.83	     6.083
  58.160         31.67	     6.164
  58.180         37.50	     6.708
  58.200         33.33	     6.325
  58.220         46.67	     7.483
  58.240         34.17	     6.403
  58.260         38.33	     6.782
  58.280         34.17	     6.403
  58.300         35.00	     6.481
  58.320         44.17	     7.280
  58.340         36.67	     6.633
  58.360         26.67	     5.657
  58.380         34.17	     6.403
  58.400         44.17	     7.280
  58.420         47.50	     7.550
  58.440         34.17	     6.403
  58.460         40.83	     7.000
  58.480         32.50	     6.245
  58.500         45.00	     7.348
  58.520         32.50	     6.245
  58.540         26.67	     5.657
  58.560         37.50	     6.708
  58.580         41.67	     7.071
  58.600         43.33	     7.211
  58.620         37.50	     6.708
  58.640         46.67	     7.483
  58.660         45.83	     7.416
  58.680         39.17	     6.856
  58.700         40.00	     6.928
  58.720         37.50	     6.708
  58.740         34.17	     6.403
  58.760         37.50	     6.708
  58.780         59.17	     8.426
  58.800         34.17	     6.403
  58.820         40.00	     6.928
  58.840         39.17	     6.856
  58.860         52.50	     7.937
  58.880         40.00	     6.928
  58.900         44.17	     7.280
  58.920         39.17	     6.856
  58.940         41.67	     7.071
  58.960         40.83	     7.000
  58.980         34.17	     6.403
  59.000         43.33	     7.211
  59.020         33.33	     6.325
  59.040         48.33	     7.616
  59.060         49.17	     7.681
  59.080         54.17	     8.062
  59.100         41.67	     7.071
  59.120         56.67	     8.246
  59.140         60.00	     8.485
  59.160         57.50	     8.307
  59.180         45.83	     7.416
  59.200         43.33	     7.211
  59.220         53.33	     8.000
  59.240         53.33	     8.000
  59.260         61.67	     8.602
  59.280         63.33	     8.718
  59.300         65.00	     8.832
  59.320         74.17	     9.434
  59.340         75.00	     9.487
  59.360         65.00	     8.832
  59.380         70.00	     9.165
  59.400         63.33	     8.718
  59.420         71.67	     9.274
  59.440         59.17	     8.426
  59.460         57.50	     8.307
  59.480         64.17	     8.775
  59.500         76.67	     9.592
  59.520         60.00	     8.485
  59.540         47.50	     7.550
  59.560         39.17	     6.856
  59.580         58.33	     8.367
  59.600         33.33	     6.325
  59.620         35.00	     6.481
  59.640         31.67	     6.164
  59.660         32.50	     6.245
  59.680         46.67	     7.483
  59.700         35.00	     6.481
  59.720         36.67	     6.633
  59.740         45.00	     7.348
  59.760         41.67	     7.071
  59.780         40.83	     7.000
  59.800         54.17	     8.062
  59.820         31.67	     6.164
  59.840         35.00	     6.481
  59.860         54.17	     8.062
  59.880         42.50	     7.141
  59.900         54.17	     8.062
  59.920         71.67	     9.274
  59.940         48.33	     7.616
  59.960         80.83	     9.849
  59.980        124.17	    12.207
  60.000        175.83	    14.526
  60.020        250.83	    17.349
  60.040        328.33	    19.849
  60.060        333.33	    20.000
  60.080        310.00	    19.287
  60.100        254.17	    17.464
  60.120        223.33	    16.371
  60.140        185.00	    14.900
  60.160        186.67	    14.967
  60.180        184.17	    14.866
  60.200        190.00	    15.100
  60.220        217.50	    16.155
  60.240        191.67	    15.166
  60.260        148.33	    13.342
  60.280        153.33	    13.565
  60.300        120.00	    12.000
  60.320         86.67	    10.198
  60.340         64.17	     8.775
  60.360         64.17	     8.775
  60.380         45.00	     7.348
  60.400         66.67	     8.944
  60.420         77.50	     9.644
  60.440         60.00	     8.485
  60.460         58.33	     8.367
  60.480         49.17	     7.681
  60.500         44.17	     7.280
  60.520         41.67	     7.071
  60.540         52.50	     7.937
  60.560         55.83	     8.185
  60.580         49.17	     7.681
  60.600         40.00	     6.928
  60.620         46.67	     7.483
  60.640         58.33	     8.367
  60.660         44.17	     7.280
  60.680         35.00	     6.481
  60.700         45.00	     7.348
  60.720         43.33	     7.211
  60.740         40.83	     7.000
  60.760         40.83	     7.000
  60.780         49.17	     7.681
  60.800         52.50	     7.937
  60.820         48.33	     7.616
  60.840         56.67	     8.246
  60.860         56.67	     8.246
  60.880         45.00	     7.348
  60.900         55.00	     8.124
  60.920         54.17	     8.062
  60.940         56.67	     8.246
  60.960         63.33	     8.718
  60.980         65.00	     8.832
  61.000         52.50	     7.937
  61.020         53.33	     8.000
  61.040         58.33	     8.367
  61.060         50.83	     7.810
  61.080         61.67	     8.602
  61.100         42.50	     7.141
  61.120         50.00	     7.746
  61.140         59.17	     8.426
  61.160         47.50	     7.550
  61.180         55.00	     8.124
  61.200         39.17	     6.856
  61.220         38.33	     6.782
  61.240         27.50	     5.745
  61.260         47.50	     7.550
  61.280         43.33	     7.211
  61.300         37.50	     6.708
  61.320         30.83	     6.083
  61.340         37.50	     6.708
  61.360         46.67	     7.483
  61.380         45.83	     7.416
  61.400         49.17	     7.681
  61.420         46.67	     7.483
  61.440         35.00	     6.481
  61.460         44.17	     7.280
  61.480         37.50	     6.708
  61.500         44.17	     7.280
  61.520         40.00	     6.928
  61.540         38.33	     6.782
  61.560         60.83	     8.544
  61.580         52.50	     7.937
  61.600         52.50	     7.937
  61.620         54.17	     8.062
  61.640         53.33	     8.000
  61.660         50.83	     7.810
  61.680         50.83	     7.810
  61.700         48.33	     7.616
  61.720         37.50	     6.708
  61.740         55.83	     8.185
  61.760         55.00	     8.124
  61.780         37.50	     6.708
  61.800         42.50	     7.141
  61.820         50.83	     7.810
  61.840         57.50	     8.307
  61.860         36.67	     6.633
  61.880         46.67	     7.483
  61.900         42.50	     7.141
  61.920         56.67	     8.246
  61.940         46.67	     7.483
  61.960         49.17	     7.681
  61.980         49.17	     7.681
  62.000         45.00	     7.348
  62.020         53.33	     8.000
  62.040         46.67	     7.483
  62.060         42.50	     7.141
  62.080         45.83	     7.416
  62.100         35.00	     6.481
  62.120         45.83	     7.416
  62.140         55.83	     8.185
  62.160         45.83	     7.416
  62.180         50.00	     7.746
  62.200         48.33	     7.616
  62.220         31.67	     6.164
  62.240         50.83	     7.810
  62.260         30.83	     6.083
  62.280         40.83	     7.000
  62.300         35.83	     6.557
  62.320         38.33	     6.782
  62.340         38.33	     6.782
  62.360         35.83	     6.557
  62.380         39.17	     6.856
  62.400         31.67	     6.164
  62.420         30.83	     6.083
  62.440         35.83	     6.557
  62.460         30.00	     6.000
  62.480         30.00	     6.000
  62.500         36.67	     6.633
  62.520         44.17	     7.280
  62.540         24.17	     5.385
  62.560         42.50	     7.141
  62.580         38.33	     6.782
  62.600         34.17	     6.403
  62.620         27.50	     5.745
  62.640         23.33	     5.292
  62.660         25.83	     5.568
  62.680         40.00	     6.928
  62.700         37.50	     6.708
  62.720         38.33	     6.782
  62.740         43.33	     7.211
  62.760         35.83	     6.557
  62.780         44.17	     7.280
  62.800         31.67	     6.164
  62.820         38.33	     6.782
  62.840         39.17	     6.856
  62.860         51.67	     7.874
  62.880         38.33	     6.782
  62.900         31.67	     6.164
  62.920         36.67	     6.633
  62.940         36.67	     6.633
  62.960         45.00	     7.348
  62.980         29.17	     5.916
  63.000         34.17	     6.403
  63.020         31.67	     6.164
  63.040         40.83	     7.000
  63.060         33.33	     6.325
  63.080         25.00	     5.477
  63.100         29.17	     5.916
  63.120         39.17	     6.856
  63.140         30.00	     6.000
  63.160         32.50	     6.245
  63.180         33.33	     6.325
  63.200         29.17	     5.916
  63.220         31.67	     6.164
  63.240         30.83	     6.083
  63.260         31.67	     6.164
  63.280         38.33	     6.782
  63.300         35.83	     6.557
  63.320         45.83	     7.416
  63.340         31.67	     6.164
  63.360         45.00	     7.348
  63.380         34.17	     6.403
  63.400         27.50	     5.745
  63.420         40.00	     6.928
  63.440         30.00	     6.000
  63.460         37.50	     6.708
  63.480         46.67	     7.483
  63.500         38.33	     6.782
  63.520         26.67	     5.657
  63.540         35.83	     6.557
  63.560         46.67	     7.483
  63.580         35.00	     6.481
  63.600         40.83	     7.000
  63.620         64.17	     8.775
  63.640         53.33	     8.000
  63.660         56.67	     8.246
  63.680         46.67	     7.483
  63.700         45.83	     7.416
  63.720         46.67	     7.483
  63.740         35.00	     6.481
  63.760         41.67	     7.071
  63.780         53.33	     8.000
  63.800         66.67	     8.944
  63.820         60.00	     8.485
  63.840         65.00	     8.832
  63.860         79.17	     9.747
  63.880         93.33	    10.583
  63.900         90.83	    10.440
  63.920         81.67	     9.899
  63.940         95.83	    10.724
  63.960         85.83	    10.149
  63.980         80.00	     9.798
  64.000         79.17	     9.747
  64.020         75.83	     9.539
  64.040         76.67	     9.592
  64.060         76.67	     9.592
  64.080         70.00	     9.165
  64.100         84.17	    10.050
  64.120         64.17	     8.775
  64.140         83.33	    10.000
  64.160         79.17	     9.747
  64.180         87.50	    10.247
  64.200         65.83	     8.888
  64.220         59.17	     8.426
  64.240         55.83	     8.185
  64.260         52.50	     7.937
  64.280         64.17	     8.775
  64.300         59.17	     8.426
  64.320         64.17	     8.775
  64.340         74.17	     9.434
  64.360         65.00	     8.832
  64.380         65.83	     8.888
  64.400         50.83	     7.810
  64.420         55.00	     8.124
  64.440         55.00	     8.124
  64.460         38.33	     6.782
  64.480         57.50	     8.307
  64.500         47.50	     7.550
  64.520         40.00	     6.928
  64.540         43.33	     7.211
  64.560         54.17	     8.062
  64.580         51.67	     7.874
  64.600         47.50	     7.550
  64.620         50.83	     7.810
  64.640         44.17	     7.280
  64.660         48.33	     7.616
  64.680         41.67	     7.071
  64.700         43.33	     7.211
  64.720         40.83	     7.000
  64.740         40.00	     6.928
  64.760         30.00	     6.000
  64.780         35.00	     6.481
  64.800         37.50	     6.708
  64.820         36.67	     6.633
  64.840         37.50	     6.708
  64.860         28.33	     5.831
  64.880         30.83	     6.083
  64.900         35.83	     6.557
  64.920         48.33	     7.616
  64.940         47.50	     7.550
  64.960         40.83	     7.000
  64.980         44.17	     7.280
  65.000         42.50	     7.141
