
Filename:
	C:\Program Files\Thermo Electron\WinXRD\Datafiles\F_HERMAN\FIEN\11_AUG_P_RT.raw

File Created:
	January 24, 2019 - 01:59 PM

Specimen Id:
	11 AUG P FT

Specimen Name:
	

Specimen Description:
	

Comment:
Scan Type: 2Theta Scan
Start Angle: 1 deg.
Stop Angle: 65 deg.
Num Points: 3201
Step Size: 0.02 deg.
Scan Rate: 1.000000
Scan Mode: Continuous
Wavelength: 1.540562
\Kalpha1: 1.540562	\Kalpha2: 1.544390	\Kbeta: 1.392218

Optics:
		Detector:
			 Type: Fixed Slits
		Tube: 
			 Type: Fixed Slits


Datas:
 Pos [deg]       Rate [CPS]      ESD [-]

Range 1 ---> Iteration 1
   1.000        870.00	    32.311
   1.020        886.67	    32.619
   1.040        673.33	    28.425
   1.060        625.00	    27.386
   1.080        563.33	    26.000
   1.100        512.50	    24.799
   1.120        440.83	    23.000
   1.140        390.83	    21.656
   1.160        471.67	    23.791
   1.180        432.50	    22.782
   1.200        396.67	    21.817
   1.220        407.50	    22.113
   1.240        419.17	    22.428
   1.260        427.50	    22.650
   1.280        530.83	    25.239
   1.300        614.17	    27.148
   1.320        618.33	    27.240
   1.340        893.33	    32.741
   1.360       1111.67	    36.524
   1.380       1227.50	    38.380
   1.400       1422.50	    41.316
   1.420       1327.50	    39.912
   1.440       1355.83	    40.336
   1.460       1341.67	    40.125
   1.480       1282.50	    39.230
   1.500       1231.67	    38.445
   1.520       1150.00	    37.148
   1.540       1195.83	    37.881
   1.560       1153.33	    37.202
   1.580       1029.17	    35.143
   1.600       1023.33	    35.043
   1.620       1014.17	    34.886
   1.640        982.50	    34.337
   1.660        910.83	    33.061
   1.680        919.17	    33.211
   1.700        839.17	    31.733
   1.720        774.17	    30.480
   1.740        651.67	    27.964
   1.760        675.00	    28.460
   1.780        620.83	    27.295
   1.800        565.00	    26.038
   1.820        557.50	    25.865
   1.840        564.17	    26.019
   1.860        526.67	    25.140
   1.880        518.33	    24.940
   1.900        510.83	    24.759
   1.920        510.83	    24.759
   1.940        522.50	    25.040
   1.960        472.50	    23.812
   1.980        450.00	    23.238
   2.000        482.50	    24.062
   2.020        461.67	    23.537
   2.040        436.67	    22.891
   2.060        435.00	    22.847
   2.080        450.00	    23.238
   2.100        444.17	    23.087
   2.120        457.50	    23.431
   2.140        419.17	    22.428
   2.160        380.00	    21.354
   2.180        402.50	    21.977
   2.200        410.00	    22.181
   2.220        381.67	    21.401
   2.240        408.33	    22.136
   2.260        374.17	    21.190
   2.280        378.33	    21.307
   2.300        384.17	    21.471
   2.320        356.67	    20.688
   2.340        359.17	    20.761
   2.360        367.50	    21.000
   2.380        333.33	    20.000
   2.400        360.00	    20.785
   2.420        361.67	    20.833
   2.440        345.83	    20.372
   2.460        308.33	    19.235
   2.480        323.33	    19.698
   2.500        325.00	    19.748
   2.520        313.33	    19.391
   2.540        330.00	    19.900
   2.560        332.50	    19.975
   2.580        317.50	    19.519
   2.600        305.83	    19.157
   2.620        308.33	    19.235
   2.640        295.00	    18.815
   2.660        323.33	    19.698
   2.680        291.67	    18.708
   2.700        303.33	    19.079
   2.720        288.33	    18.601
   2.740        290.83	    18.682
   2.760        274.17	    18.138
   2.780        306.67	    19.183
   2.800        300.00	    18.974
   2.820        280.00	    18.330
   2.840        302.50	    19.053
   2.860        254.17	    17.464
   2.880        262.50	    17.748
   2.900        292.50	    18.735
   2.920        275.83	    18.193
   2.940        281.67	    18.385
   2.960        255.83	    17.521
   2.980        258.33	    17.607
   3.000        259.17	    17.635
   3.020        246.67	    17.205
   3.040        256.67	    17.550
   3.060        277.50	    18.248
   3.080        244.17	    17.117
   3.100        230.00	    16.613
   3.120        279.17	    18.303
   3.140        251.67	    17.378
   3.160        224.17	    16.401
   3.180        237.50	    16.882
   3.200        235.83	    16.823
   3.220        215.83	    16.093
   3.240        232.50	    16.703
   3.260        240.83	    17.000
   3.280        242.50	    17.059
   3.300        210.83	    15.906
   3.320        220.83	    16.279
   3.340        227.50	    16.523
   3.360        203.33	    15.620
   3.380        240.83	    17.000
   3.400        200.83	    15.524
   3.420        217.50	    16.155
   3.440        203.33	    15.620
   3.460        249.17	    17.292
   3.480        230.00	    16.613
   3.500        228.33	    16.553
   3.520        215.00	    16.062
   3.540        193.33	    15.232
   3.560        225.00	    16.432
   3.580        211.67	    15.937
   3.600        210.00	    15.875
   3.620        209.17	    15.843
   3.640        208.33	    15.811
   3.660        192.50	    15.199
   3.680        165.00	    14.071
   3.700        214.17	    16.031
   3.720        180.00	    14.697
   3.740        200.00	    15.492
   3.760        219.17	    16.217
   3.780        218.33	    16.186
   3.800        222.50	    16.340
   3.820        201.67	    15.556
   3.840        173.33	    14.422
   3.860        181.67	    14.765
   3.880        189.17	    15.067
   3.900        198.33	    15.427
   3.920        185.83	    14.933
   3.940        191.67	    15.166
   3.960        200.00	    15.492
   3.980        191.67	    15.166
   4.000        190.83	    15.133
   4.020        186.67	    14.967
   4.040        182.50	    14.799
   4.060        215.00	    16.062
   4.080        182.50	    14.799
   4.100        190.83	    15.133
   4.120        182.50	    14.799
   4.140        180.00	    14.697
   4.160        197.50	    15.395
   4.180        165.00	    14.071
   4.200        181.67	    14.765
   4.220        200.83	    15.524
   4.240        178.33	    14.629
   4.260        183.33	    14.832
   4.280        160.83	    13.892
   4.300        158.33	    13.784
   4.320        165.00	    14.071
   4.340        180.00	    14.697
   4.360        143.33	    13.115
   4.380        163.33	    14.000
   4.400        151.67	    13.491
   4.420        172.50	    14.387
   4.440        165.00	    14.071
   4.460        135.83	    12.767
   4.480        168.33	    14.213
   4.500        172.50	    14.387
   4.520        165.00	    14.071
   4.540        168.33	    14.213
   4.560        155.83	    13.675
   4.580        160.00	    13.856
   4.600        165.00	    14.071
   4.620        173.33	    14.422
   4.640        139.17	    12.923
   4.660        165.00	    14.071
   4.680        170.83	    14.318
   4.700        153.33	    13.565
   4.720        170.00	    14.283
   4.740        155.83	    13.675
   4.760        153.33	    13.565
   4.780        163.33	    14.000
   4.800        164.17	    14.036
   4.820        140.83	    13.000
   4.840        140.83	    13.000
   4.860        146.67	    13.266
   4.880        141.67	    13.038
   4.900        155.83	    13.675
   4.920        159.17	    13.820
   4.940        155.00	    13.638
   4.960        157.50	    13.748
   4.980        150.00	    13.416
   5.000        135.83	    12.767
   5.020        129.17	    12.450
   5.040        142.50	    13.077
   5.060        143.33	    13.115
   5.080        140.83	    13.000
   5.100        147.50	    13.304
   5.120        158.33	    13.784
   5.140        140.00	    12.961
   5.160        129.17	    12.450
   5.180        105.83	    11.269
   5.200        130.00	    12.490
   5.220        150.83	    13.454
   5.240        130.83	    12.530
   5.260        145.83	    13.229
   5.280        135.83	    12.767
   5.300        134.17	    12.689
   5.320        136.67	    12.806
   5.340        134.17	    12.689
   5.360        137.50	    12.845
   5.380        161.67	    13.928
   5.400        137.50	    12.845
   5.420        145.83	    13.229
   5.440        143.33	    13.115
   5.460        115.00	    11.747
   5.480        126.67	    12.329
   5.500        145.00	    13.191
   5.520        146.67	    13.266
   5.540        134.17	    12.689
   5.560        131.67	    12.570
   5.580        133.33	    12.649
   5.600        159.17	    13.820
   5.620        126.67	    12.329
   5.640        139.17	    12.923
   5.660        140.83	    13.000
   5.680        133.33	    12.649
   5.700        136.67	    12.806
   5.720        138.33	    12.884
   5.740        131.67	    12.570
   5.760        120.00	    12.000
   5.780        133.33	    12.649
   5.800        125.83	    12.288
   5.820        136.67	    12.806
   5.840        131.67	    12.570
   5.860        143.33	    13.115
   5.880        150.83	    13.454
   5.900        135.83	    12.767
   5.920        165.83	    14.107
   5.940        157.50	    13.748
   5.960        127.50	    12.369
   5.980        141.67	    13.038
   6.000        153.33	    13.565
   6.020        165.83	    14.107
   6.040        190.83	    15.133
   6.060        191.67	    15.166
   6.080        210.83	    15.906
   6.100        268.33	    17.944
   6.120        305.83	    19.157
   6.140        325.00	    19.748
   6.160        360.00	    20.785
   6.180        395.00	    21.772
   6.200        398.33	    21.863
   6.220        370.83	    21.095
   6.240        314.17	    19.416
   6.260        264.17	    17.804
   6.280        190.83	    15.133
   6.300        165.83	    14.107
   6.320        160.00	    13.856
   6.340        165.00	    14.071
   6.360        165.83	    14.107
   6.380        155.83	    13.675
   6.400        139.17	    12.923
   6.420        150.00	    13.416
   6.440        161.67	    13.928
   6.460        135.83	    12.767
   6.480        121.67	    12.083
   6.500        129.17	    12.450
   6.520        138.33	    12.884
   6.540        125.83	    12.288
   6.560        144.17	    13.153
   6.580        149.17	    13.379
   6.600        131.67	    12.570
   6.620        127.50	    12.369
   6.640        118.33	    11.916
   6.660        129.17	    12.450
   6.680        131.67	    12.570
   6.700        130.00	    12.490
   6.720        111.67	    11.576
   6.740        124.17	    12.207
   6.760        109.17	    11.446
   6.780        120.00	    12.000
   6.800        120.83	    12.042
   6.820        110.00	    11.489
   6.840        115.00	    11.747
   6.860        130.00	    12.490
   6.880        108.33	    11.402
   6.900        110.00	    11.489
   6.920        117.50	    11.874
   6.940        119.17	    11.958
   6.960        119.17	    11.958
   6.980        112.50	    11.619
   7.000        125.00	    12.247
   7.020        125.83	    12.288
   7.040        108.33	    11.402
   7.060        118.33	    11.916
   7.080        130.00	    12.490
   7.100         91.67	    10.488
   7.120        124.17	    12.207
   7.140        121.67	    12.083
   7.160        105.83	    11.269
   7.180        110.83	    11.533
   7.200        121.67	    12.083
   7.220        111.67	    11.576
   7.240        114.17	    11.705
   7.260        118.33	    11.916
   7.280        107.50	    11.358
   7.300        117.50	    11.874
   7.320        110.00	    11.489
   7.340        115.83	    11.790
   7.360        116.67	    11.832
   7.380         97.50	    10.817
   7.400        101.67	    11.045
   7.420        112.50	    11.619
   7.440        125.83	    12.288
   7.460        108.33	    11.402
   7.480        108.33	    11.402
   7.500        100.83	    11.000
   7.520        107.50	    11.358
   7.540        118.33	    11.916
   7.560         86.67	    10.198
   7.580        123.33	    12.166
   7.600        106.67	    11.314
   7.620         95.00	    10.677
   7.640         91.67	    10.488
   7.660        111.67	    11.576
   7.680         98.33	    10.863
   7.700        100.83	    11.000
   7.720        109.17	    11.446
   7.740        107.50	    11.358
   7.760        102.50	    11.091
   7.780        109.17	    11.446
   7.800        110.83	    11.533
   7.820        100.83	    11.000
   7.840        107.50	    11.358
   7.860         89.17	    10.344
   7.880        101.67	    11.045
   7.900        101.67	    11.045
   7.920        120.00	    12.000
   7.940         92.50	    10.536
   7.960        104.17	    11.180
   7.980        105.83	    11.269
   8.000        120.00	    12.000
   8.020        108.33	    11.402
   8.040         90.00	    10.392
   8.060        100.00	    10.954
   8.080        100.00	    10.954
   8.100        100.00	    10.954
   8.120        100.83	    11.000
   8.140        105.83	    11.269
   8.160         92.50	    10.536
   8.180         94.17	    10.630
   8.200         97.50	    10.817
   8.220         87.50	    10.247
   8.240        101.67	    11.045
   8.260        110.00	    11.489
   8.280         85.00	    10.100
   8.300        117.50	    11.874
   8.320         95.00	    10.677
   8.340        120.83	    12.042
   8.360        120.00	    12.000
   8.380        112.50	    11.619
   8.400        105.83	    11.269
   8.420        106.67	    11.314
   8.440         91.67	    10.488
   8.460        115.83	    11.790
   8.480        120.00	    12.000
   8.500        117.50	    11.874
   8.520        123.33	    12.166
   8.540        120.83	    12.042
   8.560        120.00	    12.000
   8.580        124.17	    12.207
   8.600        158.33	    13.784
   8.620        153.33	    13.565
   8.640        152.50	    13.528
   8.660        178.33	    14.629
   8.680        185.83	    14.933
   8.700        255.83	    17.521
   8.720        319.17	    19.570
   8.740        393.33	    21.726
   8.760        373.33	    21.166
   8.780        411.67	    22.226
   8.800        525.83	    25.120
   8.820        620.83	    27.295
   8.840        710.00	    29.189
   8.860        915.00	    33.136
   8.880        917.50	    33.181
   8.900        643.33	    27.785
   8.920        365.83	    20.952
   8.940        213.33	    16.000
   8.960        153.33	    13.565
   8.980        137.50	    12.845
   9.000        103.33	    11.136
   9.020        110.83	    11.533
   9.040        113.33	    11.662
   9.060        113.33	    11.662
   9.080        117.50	    11.874
   9.100        117.50	    11.874
   9.120        110.83	    11.533
   9.140        131.67	    12.570
   9.160        142.50	    13.077
   9.180        161.67	    13.928
   9.200        162.50	    13.964
   9.220        100.83	    11.000
   9.240        111.67	    11.576
   9.260        110.83	    11.533
   9.280         96.67	    10.770
   9.300         87.50	    10.247
   9.320        102.50	    11.091
   9.340        111.67	    11.576
   9.360        106.67	    11.314
   9.380        114.17	    11.705
   9.400        110.83	    11.533
   9.420        113.33	    11.662
   9.440        139.17	    12.923
   9.460        116.67	    11.832
   9.480        100.00	    10.954
   9.500         92.50	    10.536
   9.520         85.83	    10.149
   9.540         85.83	    10.149
   9.560         85.00	    10.100
   9.580         79.17	     9.747
   9.600         86.67	    10.198
   9.620         72.50	     9.327
   9.640        102.50	    11.091
   9.660         83.33	    10.000
   9.680         96.67	    10.770
   9.700         94.17	    10.630
   9.720        107.50	    11.358
   9.740         92.50	    10.536
   9.760         98.33	    10.863
   9.780         76.67	     9.592
   9.800         95.83	    10.724
   9.820        101.67	    11.045
   9.840         85.83	    10.149
   9.860         85.00	    10.100
   9.880         69.17	     9.110
   9.900         87.50	    10.247
   9.920         89.17	    10.344
   9.940         72.50	     9.327
   9.960         80.00	     9.798
   9.980         88.33	    10.296
  10.000         70.83	     9.220
  10.020         79.17	     9.747
  10.040         76.67	     9.592
  10.060         77.50	     9.644
  10.080         79.17	     9.747
  10.100         79.17	     9.747
  10.120         87.50	    10.247
  10.140         83.33	    10.000
  10.160         86.67	    10.198
  10.180         76.67	     9.592
  10.200         81.67	     9.899
  10.220         94.17	    10.630
  10.240         73.33	     9.381
  10.260         80.83	     9.849
  10.280         77.50	     9.644
  10.300         72.50	     9.327
  10.320         75.00	     9.487
  10.340         80.83	     9.849
  10.360         97.50	    10.817
  10.380         84.17	    10.050
  10.400        115.83	    11.790
  10.420        135.00	    12.728
  10.440        136.67	    12.806
  10.460        190.00	    15.100
  10.480        251.67	    17.378
  10.500        279.17	    18.303
  10.520        236.67	    16.852
  10.540        160.00	    13.856
  10.560        135.00	    12.728
  10.580        115.83	    11.790
  10.600         92.50	    10.536
  10.620         88.33	    10.296
  10.640         88.33	    10.296
  10.660         80.83	     9.849
  10.680        107.50	    11.358
  10.700         75.83	     9.539
  10.720         76.67	     9.592
  10.740         70.83	     9.220
  10.760         87.50	    10.247
  10.780         80.83	     9.849
  10.800         78.33	     9.695
  10.820         65.00	     8.832
  10.840         87.50	    10.247
  10.860         69.17	     9.110
  10.880         88.33	    10.296
  10.900         80.00	     9.798
  10.920         77.50	     9.644
  10.940         73.33	     9.381
  10.960         87.50	    10.247
  10.980         94.17	    10.630
  11.000         66.67	     8.944
  11.020         82.50	     9.950
  11.040         73.33	     9.381
  11.060         75.00	     9.487
  11.080         78.33	     9.695
  11.100         81.67	     9.899
  11.120         69.17	     9.110
  11.140         86.67	    10.198
  11.160         83.33	    10.000
  11.180         75.00	     9.487
  11.200         70.00	     9.165
  11.220         64.17	     8.775
  11.240         80.00	     9.798
  11.260         90.00	    10.392
  11.280         71.67	     9.274
  11.300         65.00	     8.832
  11.320         79.17	     9.747
  11.340         70.83	     9.220
  11.360         79.17	     9.747
  11.380         71.67	     9.274
  11.400         78.33	     9.695
  11.420         83.33	    10.000
  11.440         71.67	     9.274
  11.460         60.83	     8.544
  11.480         85.00	    10.100
  11.500         80.00	     9.798
  11.520         81.67	     9.899
  11.540         84.17	    10.050
  11.560         70.00	     9.165
  11.580         71.67	     9.274
  11.600         80.00	     9.798
  11.620         75.83	     9.539
  11.640         78.33	     9.695
  11.660         80.00	     9.798
  11.680         72.50	     9.327
  11.700         75.83	     9.539
  11.720         75.00	     9.487
  11.740         72.50	     9.327
  11.760         75.00	     9.487
  11.780         75.83	     9.539
  11.800         71.67	     9.274
  11.820         60.83	     8.544
  11.840         73.33	     9.381
  11.860         70.83	     9.220
  11.880         72.50	     9.327
  11.900         69.17	     9.110
  11.920         79.17	     9.747
  11.940         85.83	    10.149
  11.960         93.33	    10.583
  11.980        102.50	    11.091
  12.000         94.17	    10.630
  12.020         98.33	    10.863
  12.040        102.50	    11.091
  12.060        141.67	    13.038
  12.080        161.67	    13.928
  12.100        204.17	    15.652
  12.120        223.33	    16.371
  12.140        307.50	    19.209
  12.160        359.17	    20.761
  12.180        411.67	    22.226
  12.200        365.83	    20.952
  12.220        232.50	    16.703
  12.240        170.00	    14.283
  12.260        148.33	    13.342
  12.280        155.83	    13.675
  12.300        180.83	    14.731
  12.320        175.00	    14.491
  12.340        189.17	    15.067
  12.360        178.33	    14.629
  12.380        192.50	    15.199
  12.400        204.17	    15.652
  12.420        203.33	    15.620
  12.440        306.67	    19.183
  12.460        330.00	    19.900
  12.480        341.67	    20.248
  12.500        355.83	    20.664
  12.520        265.83	    17.861
  12.540        183.33	    14.832
  12.560        133.33	    12.649
  12.580        100.00	    10.954
  12.600        100.00	    10.954
  12.620         92.50	    10.536
  12.640         93.33	    10.583
  12.660         78.33	     9.695
  12.680         82.50	     9.950
  12.700         69.17	     9.110
  12.720         70.00	     9.165
  12.740         79.17	     9.747
  12.760         75.00	     9.487
  12.780         69.17	     9.110
  12.800         74.17	     9.434
  12.820         65.83	     8.888
  12.840         75.00	     9.487
  12.860         60.83	     8.544
  12.880         71.67	     9.274
  12.900         60.83	     8.544
  12.920         66.67	     8.944
  12.940         60.83	     8.544
  12.960         80.83	     9.849
  12.980         75.00	     9.487
  13.000         80.00	     9.798
  13.020         90.00	    10.392
  13.040         71.67	     9.274
  13.060         55.00	     8.124
  13.080         65.83	     8.888
  13.100         73.33	     9.381
  13.120         70.83	     9.220
  13.140         72.50	     9.327
  13.160         94.17	    10.630
  13.180         63.33	     8.718
  13.200         75.00	     9.487
  13.220         62.50	     8.660
  13.240         82.50	     9.950
  13.260         71.67	     9.274
  13.280         69.17	     9.110
  13.300         80.00	     9.798
  13.320         75.83	     9.539
  13.340         70.00	     9.165
  13.360         63.33	     8.718
  13.380         60.83	     8.544
  13.400         67.50	     9.000
  13.420         80.00	     9.798
  13.440         80.00	     9.798
  13.460         60.83	     8.544
  13.480         88.33	    10.296
  13.500         74.17	     9.434
  13.520         77.50	     9.644
  13.540         69.17	     9.110
  13.560         85.00	    10.100
  13.580        103.33	    11.136
  13.600         88.33	    10.296
  13.620         90.00	    10.392
  13.640         85.00	    10.100
  13.660         90.00	    10.392
  13.680         61.67	     8.602
  13.700         71.67	     9.274
  13.720         74.17	     9.434
  13.740         83.33	    10.000
  13.760         85.83	    10.149
  13.780        100.00	    10.954
  13.800        130.83	    12.530
  13.820        160.00	    13.856
  13.840        165.83	    14.107
  13.860        126.67	    12.329
  13.880        118.33	    11.916
  13.900         86.67	    10.198
  13.920         64.17	     8.775
  13.940         62.50	     8.660
  13.960         68.33	     9.055
  13.980         70.83	     9.220
  14.000         83.33	    10.000
  14.020        116.67	    11.832
  14.040        100.83	    11.000
  14.060         96.67	    10.770
  14.080         86.67	    10.198
  14.100         64.17	     8.775
  14.120         61.67	     8.602
  14.140         65.00	     8.832
  14.160         55.83	     8.185
  14.180         75.00	     9.487
  14.200         71.67	     9.274
  14.220         65.83	     8.888
  14.240         65.00	     8.832
  14.260         63.33	     8.718
  14.280         67.50	     9.000
  14.300         73.33	     9.381
  14.320         67.50	     9.000
  14.340         58.33	     8.367
  14.360         51.67	     7.874
  14.380         51.67	     7.874
  14.400         55.00	     8.124
  14.420         50.00	     7.746
  14.440         75.00	     9.487
  14.460         56.67	     8.246
  14.480         70.83	     9.220
  14.500         54.17	     8.062
  14.520         74.17	     9.434
  14.540         66.67	     8.944
  14.560         45.00	     7.348
  14.580         54.17	     8.062
  14.600         60.00	     8.485
  14.620         70.00	     9.165
  14.640         65.83	     8.888
  14.660         62.50	     8.660
  14.680         72.50	     9.327
  14.700         50.00	     7.746
  14.720         70.00	     9.165
  14.740         57.50	     8.307
  14.760         63.33	     8.718
  14.780         74.17	     9.434
  14.800         54.17	     8.062
  14.820         68.33	     9.055
  14.840         53.33	     8.000
  14.860         58.33	     8.367
  14.880         68.33	     9.055
  14.900         71.67	     9.274
  14.920         67.50	     9.000
  14.940         72.50	     9.327
  14.960         70.00	     9.165
  14.980         82.50	     9.950
  15.000         66.67	     8.944
  15.020         68.33	     9.055
  15.040         64.17	     8.775
  15.060         71.67	     9.274
  15.080         68.33	     9.055
  15.100         78.33	     9.695
  15.120         49.17	     7.681
  15.140         65.83	     8.888
  15.160         56.67	     8.246
  15.180         50.83	     7.810
  15.200         64.17	     8.775
  15.220         64.17	     8.775
  15.240         70.00	     9.165
  15.260         55.83	     8.185
  15.280         61.67	     8.602
  15.300         61.67	     8.602
  15.320         53.33	     8.000
  15.340         60.83	     8.544
  15.360         67.50	     9.000
  15.380         65.00	     8.832
  15.400         50.83	     7.810
  15.420         58.33	     8.367
  15.440         60.00	     8.485
  15.460         57.50	     8.307
  15.480         67.50	     9.000
  15.500         59.17	     8.426
  15.520         63.33	     8.718
  15.540         60.00	     8.485
  15.560         58.33	     8.367
  15.580         63.33	     8.718
  15.600         58.33	     8.367
  15.620         59.17	     8.426
  15.640         57.50	     8.307
  15.660         69.17	     9.110
  15.680         64.17	     8.775
  15.700         65.83	     8.888
  15.720         66.67	     8.944
  15.740         65.00	     8.832
  15.760         58.33	     8.367
  15.780         50.00	     7.746
  15.800         56.67	     8.246
  15.820         75.00	     9.487
  15.840         59.17	     8.426
  15.860         66.67	     8.944
  15.880         66.67	     8.944
  15.900         69.17	     9.110
  15.920         50.83	     7.810
  15.940         42.50	     7.141
  15.960         60.00	     8.485
  15.980         56.67	     8.246
  16.000         50.00	     7.746
  16.020         65.00	     8.832
  16.040         66.67	     8.944
  16.060         55.83	     8.185
  16.080         70.00	     9.165
  16.100         50.83	     7.810
  16.120         49.17	     7.681
  16.140         50.83	     7.810
  16.160         69.17	     9.110
  16.180         55.83	     8.185
  16.200         68.33	     9.055
  16.220         53.33	     8.000
  16.240         54.17	     8.062
  16.260         56.67	     8.246
  16.280         60.00	     8.485
  16.300         59.17	     8.426
  16.320         54.17	     8.062
  16.340         55.00	     8.124
  16.360         60.00	     8.485
  16.380         57.50	     8.307
  16.400         59.17	     8.426
  16.420         54.17	     8.062
  16.440         55.00	     8.124
  16.460         52.50	     7.937
  16.480         49.17	     7.681
  16.500         49.17	     7.681
  16.520         47.50	     7.550
  16.540         56.67	     8.246
  16.560         54.17	     8.062
  16.580         60.83	     8.544
  16.600         54.17	     8.062
  16.620         55.83	     8.185
  16.640         60.83	     8.544
  16.660         48.33	     7.616
  16.680         65.00	     8.832
  16.700         57.50	     8.307
  16.720         48.33	     7.616
  16.740         53.33	     8.000
  16.760         60.83	     8.544
  16.780         55.83	     8.185
  16.800         55.00	     8.124
  16.820         50.83	     7.810
  16.840         55.00	     8.124
  16.860         60.00	     8.485
  16.880         39.17	     6.856
  16.900         55.00	     8.124
  16.920         48.33	     7.616
  16.940         63.33	     8.718
  16.960         55.83	     8.185
  16.980         58.33	     8.367
  17.000         65.83	     8.888
  17.020         54.17	     8.062
  17.040         61.67	     8.602
  17.060         50.83	     7.810
  17.080         65.00	     8.832
  17.100         46.67	     7.483
  17.120         55.00	     8.124
  17.140         51.67	     7.874
  17.160         55.83	     8.185
  17.180         60.83	     8.544
  17.200         59.17	     8.426
  17.220         47.50	     7.550
  17.240         52.50	     7.937
  17.260         64.17	     8.775
  17.280         60.83	     8.544
  17.300         59.17	     8.426
  17.320         70.83	     9.220
  17.340         57.50	     8.307
  17.360         57.50	     8.307
  17.380         57.50	     8.307
  17.400         70.00	     9.165
  17.420         54.17	     8.062
  17.440         46.67	     7.483
  17.460         50.00	     7.746
  17.480         62.50	     8.660
  17.500         61.67	     8.602
  17.520         60.00	     8.485
  17.540         58.33	     8.367
  17.560         80.00	     9.798
  17.580         80.83	     9.849
  17.600         68.33	     9.055
  17.620         69.17	     9.110
  17.640         85.83	    10.149
  17.660         73.33	     9.381
  17.680         92.50	    10.536
  17.700         83.33	    10.000
  17.720        155.00	    13.638
  17.740        207.50	    15.780
  17.760        270.00	    18.000
  17.780        314.17	    19.416
  17.800        387.50	    21.564
  17.820        342.50	    20.273
  17.840        349.17	    20.469
  17.860        229.17	    16.583
  17.880        157.50	    13.748
  17.900        105.00	    11.225
  17.920         85.00	    10.100
  17.940         78.33	     9.695
  17.960         54.17	     8.062
  17.980         55.00	     8.124
  18.000         75.00	     9.487
  18.020         66.67	     8.944
  18.040         75.00	     9.487
  18.060         53.33	     8.000
  18.080         57.50	     8.307
  18.100         63.33	     8.718
  18.120         65.83	     8.888
  18.140         62.50	     8.660
  18.160         52.50	     7.937
  18.180         62.50	     8.660
  18.200         64.17	     8.775
  18.220         72.50	     9.327
  18.240         45.83	     7.416
  18.260         70.00	     9.165
  18.280         67.50	     9.000
  18.300         65.00	     8.832
  18.320         60.83	     8.544
  18.340         65.00	     8.832
  18.360         62.50	     8.660
  18.380         85.83	    10.149
  18.400         74.17	     9.434
  18.420        120.83	    12.042
  18.440        118.33	    11.916
  18.460        105.00	    11.225
  18.480         98.33	    10.863
  18.500         91.67	    10.488
  18.520         95.83	    10.724
  18.540        100.83	    11.000
  18.560        104.17	    11.180
  18.580         78.33	     9.695
  18.600         85.83	    10.149
  18.620         85.83	    10.149
  18.640         70.00	     9.165
  18.660         90.00	    10.392
  18.680        105.83	    11.269
  18.700         95.83	    10.724
  18.720        116.67	    11.832
  18.740        120.00	    12.000
  18.760        168.33	    14.213
  18.780        157.50	    13.748
  18.800        147.50	    13.304
  18.820        133.33	    12.649
  18.840         98.33	    10.863
  18.860         88.33	    10.296
  18.880         62.50	     8.660
  18.900         68.33	     9.055
  18.920         62.50	     8.660
  18.940         78.33	     9.695
  18.960         58.33	     8.367
  18.980         67.50	     9.000
  19.000         51.67	     7.874
  19.020         63.33	     8.718
  19.040         65.83	     8.888
  19.060         60.83	     8.544
  19.080         44.17	     7.280
  19.100         60.00	     8.485
  19.120         55.00	     8.124
  19.140         63.33	     8.718
  19.160         63.33	     8.718
  19.180         58.33	     8.367
  19.200         76.67	     9.592
  19.220         63.33	     8.718
  19.240         69.17	     9.110
  19.260         50.83	     7.810
  19.280         60.83	     8.544
  19.300         52.50	     7.937
  19.320         62.50	     8.660
  19.340         50.83	     7.810
  19.360         65.83	     8.888
  19.380         51.67	     7.874
  19.400         51.67	     7.874
  19.420         68.33	     9.055
  19.440         58.33	     8.367
  19.460         59.17	     8.426
  19.480         57.50	     8.307
  19.500         60.83	     8.544
  19.520         62.50	     8.660
  19.540         58.33	     8.367
  19.560         71.67	     9.274
  19.580         65.00	     8.832
  19.600         70.83	     9.220
  19.620         74.17	     9.434
  19.640         85.00	    10.100
  19.660         82.50	     9.950
  19.680         75.00	     9.487
  19.700         75.83	     9.539
  19.720         70.83	     9.220
  19.740         73.33	     9.381
  19.760         70.00	     9.165
  19.780         95.00	    10.677
  19.800         88.33	    10.296
  19.820        104.17	    11.180
  19.840         86.67	    10.198
  19.860         84.17	    10.050
  19.880         77.50	     9.644
  19.900         78.33	     9.695
  19.920         76.67	     9.592
  19.940         72.50	     9.327
  19.960         68.33	     9.055
  19.980         65.83	     8.888
  20.000         57.50	     8.307
  20.020         70.00	     9.165
  20.040         79.17	     9.747
  20.060         56.67	     8.246
  20.080         79.17	     9.747
  20.100         65.83	     8.888
  20.120         63.33	     8.718
  20.140         56.67	     8.246
  20.160         51.67	     7.874
  20.180         60.00	     8.485
  20.200         45.83	     7.416
  20.220         55.83	     8.185
  20.240         55.00	     8.124
  20.260         46.67	     7.483
  20.280         52.50	     7.937
  20.300         60.83	     8.544
  20.320         60.83	     8.544
  20.340         55.83	     8.185
  20.360         66.67	     8.944
  20.380         55.00	     8.124
  20.400         45.00	     7.348
  20.420         54.17	     8.062
  20.440         54.17	     8.062
  20.460         55.00	     8.124
  20.480         54.17	     8.062
  20.500         48.33	     7.616
  20.520         58.33	     8.367
  20.540         55.83	     8.185
  20.560         62.50	     8.660
  20.580         70.83	     9.220
  20.600         59.17	     8.426
  20.620         75.00	     9.487
  20.640         78.33	     9.695
  20.660         80.00	     9.798
  20.680         65.00	     8.832
  20.700         85.00	    10.100
  20.720         88.33	    10.296
  20.740        116.67	    11.832
  20.760        240.83	    17.000
  20.780        422.50	    22.517
  20.800        600.00	    26.833
  20.820        662.50	    28.196
  20.840        680.83	    28.583
  20.860        629.17	    27.477
  20.880        359.17	    20.761
  20.900        290.83	    18.682
  20.920        193.33	    15.232
  20.940        124.17	    12.207
  20.960        102.50	    11.091
  20.980        105.00	    11.225
  21.000         96.67	    10.770
  21.020         80.83	     9.849
  21.040         90.00	    10.392
  21.060         97.50	    10.817
  21.080         91.67	    10.488
  21.100         76.67	     9.592
  21.120         60.83	     8.544
  21.140         58.33	     8.367
  21.160         58.33	     8.367
  21.180         53.33	     8.000
  21.200         50.83	     7.810
  21.220         50.83	     7.810
  21.240         48.33	     7.616
  21.260         58.33	     8.367
  21.280         71.67	     9.274
  21.300         45.83	     7.416
  21.320         56.67	     8.246
  21.340         57.50	     8.307
  21.360         50.00	     7.746
  21.380         52.50	     7.937
  21.400         72.50	     9.327
  21.420         45.00	     7.348
  21.440         53.33	     8.000
  21.460         51.67	     7.874
  21.480         61.67	     8.602
  21.500         68.33	     9.055
  21.520         55.00	     8.124
  21.540         53.33	     8.000
  21.560         58.33	     8.367
  21.580         58.33	     8.367
  21.600         52.50	     7.937
  21.620         55.83	     8.185
  21.640         62.50	     8.660
  21.660         68.33	     9.055
  21.680         55.83	     8.185
  21.700         54.17	     8.062
  21.720         56.67	     8.246
  21.740         53.33	     8.000
  21.760         50.00	     7.746
  21.780         49.17	     7.681
  21.800         52.50	     7.937
  21.820         51.67	     7.874
  21.840         41.67	     7.071
  21.860         55.00	     8.124
  21.880         60.00	     8.485
  21.900         56.67	     8.246
  21.920         69.17	     9.110
  21.940         73.33	     9.381
  21.960         87.50	    10.247
  21.980        132.50	    12.610
  22.000        162.50	    13.964
  22.020        185.00	    14.900
  22.040        177.50	    14.595
  22.060        185.83	    14.933
  22.080        117.50	    11.874
  22.100         98.33	    10.863
  22.120         87.50	    10.247
  22.140         72.50	     9.327
  22.160         63.33	     8.718
  22.180         82.50	     9.950
  22.200         47.50	     7.550
  22.220         64.17	     8.775
  22.240         62.50	     8.660
  22.260         68.33	     9.055
  22.280         52.50	     7.937
  22.300         52.50	     7.937
  22.320         62.50	     8.660
  22.340         55.83	     8.185
  22.360         70.83	     9.220
  22.380         55.00	     8.124
  22.400         66.67	     8.944
  22.420         70.00	     9.165
  22.440         70.83	     9.220
  22.460         78.33	     9.695
  22.480         80.83	     9.849
  22.500         72.50	     9.327
  22.520         62.50	     8.660
  22.540         66.67	     8.944
  22.560         70.00	     9.165
  22.580         57.50	     8.307
  22.600         59.17	     8.426
  22.620         64.17	     8.775
  22.640         60.83	     8.544
  22.660         44.17	     7.280
  22.680         67.50	     9.000
  22.700         45.00	     7.348
  22.720         56.67	     8.246
  22.740         51.67	     7.874
  22.760         60.83	     8.544
  22.780         71.67	     9.274
  22.800         68.33	     9.055
  22.820         79.17	     9.747
  22.840         85.00	    10.100
  22.860         74.17	     9.434
  22.880         80.00	     9.798
  22.900         88.33	    10.296
  22.920         83.33	    10.000
  22.940        110.00	    11.489
  22.960        126.67	    12.329
  22.980        125.00	    12.247
  23.000        198.33	    15.427
  23.020        189.17	    15.067
  23.040        141.67	    13.038
  23.060        140.00	    12.961
  23.080        118.33	    11.916
  23.100         77.50	     9.644
  23.120         64.17	     8.775
  23.140         58.33	     8.367
  23.160         70.00	     9.165
  23.180         62.50	     8.660
  23.200         62.50	     8.660
  23.220         51.67	     7.874
  23.240         59.17	     8.426
  23.260         64.17	     8.775
  23.280         60.00	     8.485
  23.300         67.50	     9.000
  23.320         85.83	    10.149
  23.340         68.33	     9.055
  23.360         52.50	     7.937
  23.380         70.00	     9.165
  23.400         57.50	     8.307
  23.420         74.17	     9.434
  23.440         92.50	    10.536
  23.460         95.83	    10.724
  23.480        135.00	    12.728
  23.500        247.50	    17.234
  23.520        229.17	    16.583
  23.540        213.33	    16.000
  23.560        198.33	    15.427
  23.580        167.50	    14.177
  23.600        106.67	    11.314
  23.620         99.17	    10.909
  23.640         83.33	    10.000
  23.660         75.83	     9.539
  23.680         88.33	    10.296
  23.700         65.83	     8.888
  23.720         58.33	     8.367
  23.740         77.50	     9.644
  23.760         82.50	     9.950
  23.780         74.17	     9.434
  23.800         68.33	     9.055
  23.820         80.00	     9.798
  23.840         81.67	     9.899
  23.860         77.50	     9.644
  23.880         80.00	     9.798
  23.900         56.67	     8.246
  23.920         90.83	    10.440
  23.940         76.67	     9.592
  23.960         75.83	     9.539
  23.980         74.17	     9.434
  24.000         85.83	    10.149
  24.020         85.00	    10.100
  24.040         72.50	     9.327
  24.060         76.67	     9.592
  24.080         84.17	    10.050
  24.100         80.83	     9.849
  24.120         90.00	    10.392
  24.140        116.67	    11.832
  24.160        110.00	    11.489
  24.180        110.00	    11.489
  24.200        121.67	    12.083
  24.220        124.17	    12.207
  24.240        120.83	    12.042
  24.260        170.83	    14.318
  24.280        190.00	    15.100
  24.300        161.67	    13.928
  24.320        144.17	    13.153
  24.340        100.00	    10.954
  24.360        122.50	    12.124
  24.380         96.67	    10.770
  24.400         81.67	     9.899
  24.420         90.00	    10.392
  24.440         85.83	    10.149
  24.460        101.67	    11.045
  24.480        117.50	    11.874
  24.500        130.83	    12.530
  24.520        145.83	    13.229
  24.540        164.17	    14.036
  24.560        181.67	    14.765
  24.580        156.67	    13.711
  24.600        200.83	    15.524
  24.620        200.00	    15.492
  24.640        169.17	    14.248
  24.660        184.17	    14.866
  24.680        147.50	    13.304
  24.700        134.17	    12.689
  24.720        112.50	    11.619
  24.740        106.67	    11.314
  24.760        109.17	    11.446
  24.780        103.33	    11.136
  24.800        100.83	    11.000
  24.820        111.67	    11.576
  24.840         98.33	    10.863
  24.860        125.00	    12.247
  24.880        106.67	    11.314
  24.900        112.50	    11.619
  24.920         95.83	    10.724
  24.940        115.00	    11.747
  24.960        100.83	    11.000
  24.980        108.33	    11.402
  25.000         90.00	    10.392
  25.020        100.00	    10.954
  25.040        133.33	    12.649
  25.060        160.83	    13.892
  25.080        205.83	    15.716
  25.100        215.00	    16.062
  25.120        260.83	    17.692
  25.140        273.33	    18.111
  25.160        268.33	    17.944
  25.180        226.67	    16.492
  25.200        184.17	    14.866
  25.220        146.67	    13.266
  25.240        130.83	    12.530
  25.260         94.17	    10.630
  25.280         99.17	    10.909
  25.300         90.00	    10.392
  25.320         88.33	    10.296
  25.340         97.50	    10.817
  25.360         96.67	    10.770
  25.380        107.50	    11.358
  25.400        108.33	    11.402
  25.420        111.67	    11.576
  25.440         91.67	    10.488
  25.460        117.50	    11.874
  25.480        125.00	    12.247
  25.500        133.33	    12.649
  25.520        135.83	    12.767
  25.540        115.00	    11.747
  25.560        104.17	    11.180
  25.580        105.00	    11.225
  25.600        117.50	    11.874
  25.620        116.67	    11.832
  25.640        107.50	    11.358
  25.660         95.83	    10.724
  25.680         90.83	    10.440
  25.700         72.50	     9.327
  25.720         76.67	     9.592
  25.740         73.33	     9.381
  25.760         70.00	     9.165
  25.780         70.83	     9.220
  25.800         71.67	     9.274
  25.820         62.50	     8.660
  25.840         64.17	     8.775
  25.860         56.67	     8.246
  25.880         53.33	     8.000
  25.900         55.00	     8.124
  25.920         50.00	     7.746
  25.940         59.17	     8.426
  25.960         61.67	     8.602
  25.980         56.67	     8.246
  26.000         55.00	     8.124
  26.020         67.50	     9.000
  26.040         60.83	     8.544
  26.060         57.50	     8.307
  26.080         50.83	     7.810
  26.100         61.67	     8.602
  26.120         65.00	     8.832
  26.140         79.17	     9.747
  26.160         58.33	     8.367
  26.180         59.17	     8.426
  26.200         66.67	     8.944
  26.220         59.17	     8.426
  26.240         76.67	     9.592
  26.260        102.50	    11.091
  26.280        106.67	    11.314
  26.300        134.17	    12.689
  26.320        122.50	    12.124
  26.340        115.00	    11.747
  26.360        155.83	    13.675
  26.380        145.83	    13.229
  26.400        147.50	    13.304
  26.420        167.50	    14.177
  26.440        193.33	    15.232
  26.460        220.83	    16.279
  26.480        280.83	    18.358
  26.500        332.50	    19.975
  26.520        431.67	    22.760
  26.540        500.83	    24.515
  26.560        730.00	    29.597
  26.580       1264.17	    38.949
  26.600       2049.17	    49.588
  26.620       2521.67	    55.009
  26.640       2107.50	    50.289
  26.660       1641.67	    44.385
  26.680       1443.33	    41.617
  26.700       1215.83	    38.197
  26.720        808.33	    31.145
  26.740        500.00	    24.495
  26.760        416.67	    22.361
  26.780        445.83	    23.130
  26.800        555.00	    25.807
  26.820        758.33	    30.166
  26.840        964.17	    34.015
  26.860        980.83	    34.307
  26.880        955.83	    33.867
  26.900        861.67	    32.156
  26.920        630.00	    27.495
  26.940        502.50	    24.556
  26.960        364.17	    20.905
  26.980        258.33	    17.607
  27.000        195.83	    15.330
  27.020        187.50	    15.000
  27.040        190.83	    15.133
  27.060        179.17	    14.663
  27.080        192.50	    15.199
  27.100        174.17	    14.457
  27.120        148.33	    13.342
  27.140        130.83	    12.530
  27.160        113.33	    11.662
  27.180         98.33	    10.863
  27.200         98.33	    10.863
  27.220        118.33	    11.916
  27.240        116.67	    11.832
  27.260        124.17	    12.207
  27.280        105.83	    11.269
  27.300         85.83	    10.149
  27.320         95.83	    10.724
  27.340        108.33	    11.402
  27.360        100.83	    11.000
  27.380         76.67	     9.592
  27.400        120.83	    12.042
  27.420        130.83	    12.530
  27.440        172.50	    14.387
  27.460        200.83	    15.524
  27.480        234.17	    16.763
  27.500        190.00	    15.100
  27.520        198.33	    15.427
  27.540        167.50	    14.177
  27.560        158.33	    13.784
  27.580        140.83	    13.000
  27.600        133.33	    12.649
  27.620        131.67	    12.570
  27.640        160.83	    13.892
  27.660        248.33	    17.263
  27.680        287.50	    18.574
  27.700        274.17	    18.138
  27.720        304.17	    19.105
  27.740        289.17	    18.628
  27.760        356.67	    20.688
  27.780        395.00	    21.772
  27.800        455.83	    23.388
  27.820        464.17	    23.601
  27.840        629.17	    27.477
  27.860        852.50	    31.984
  27.880        812.50	    31.225
  27.900        791.67	    30.822
  27.920        833.33	    31.623
  27.940        925.00	    33.317
  27.960        771.67	    30.430
  27.980        520.83	    25.000
  28.000        372.50	    21.142
  28.020        362.50	    20.857
  28.040        255.00	    17.493
  28.060        173.33	    14.422
  28.080        143.33	    13.115
  28.100        157.50	    13.748
  28.120        155.00	    13.638
  28.140        151.67	    13.491
  28.160        171.67	    14.353
  28.180        180.00	    14.697
  28.200        205.83	    15.716
  28.220        387.50	    21.564
  28.240        615.83	    27.185
  28.260       1399.17	    40.976
  28.280       2158.33	    50.892
  28.300       1895.00	    47.686
  28.320        860.00	    32.125
  28.340        999.17	    34.627
  28.360       1184.17	    37.696
  28.380        634.17	    27.586
  28.400        193.33	    15.232
  28.420        130.00	    12.490
  28.440        105.00	    11.225
  28.460        104.17	    11.180
  28.480        108.33	    11.402
  28.500         98.33	    10.863
  28.520         83.33	    10.000
  28.540         90.00	    10.392
  28.560         89.17	    10.344
  28.580         87.50	    10.247
  28.600         94.17	    10.630
  28.620        102.50	    11.091
  28.640         91.67	    10.488
  28.660        109.17	    11.446
  28.680         79.17	     9.747
  28.700         78.33	     9.695
  28.720         78.33	     9.695
  28.740         82.50	     9.950
  28.760         60.00	     8.485
  28.780         71.67	     9.274
  28.800         52.50	     7.937
  28.820         59.17	     8.426
  28.840         70.83	     9.220
  28.860         46.67	     7.483
  28.880         45.00	     7.348
  28.900         56.67	     8.246
  28.920         56.67	     8.246
  28.940         61.67	     8.602
  28.960         51.67	     7.874
  28.980         55.00	     8.124
  29.000         64.17	     8.775
  29.020         48.33	     7.616
  29.040         46.67	     7.483
  29.060         56.67	     8.246
  29.080         52.50	     7.937
  29.100         55.00	     8.124
  29.120         55.00	     8.124
  29.140         41.67	     7.071
  29.160         49.17	     7.681
  29.180         50.83	     7.810
  29.200         58.33	     8.367
  29.220         46.67	     7.483
  29.240         54.17	     8.062
  29.260         56.67	     8.246
  29.280         64.17	     8.775
  29.300         49.17	     7.681
  29.320         49.17	     7.681
  29.340         47.50	     7.550
  29.360         48.33	     7.616
  29.380         53.33	     8.000
  29.400         64.17	     8.775
  29.420         49.17	     7.681
  29.440         68.33	     9.055
  29.460         45.83	     7.416
  29.480         51.67	     7.874
  29.500         47.50	     7.550
  29.520         39.17	     6.856
  29.540         44.17	     7.280
  29.560         46.67	     7.483
  29.580         40.83	     7.000
  29.600         52.50	     7.937
  29.620         57.50	     8.307
  29.640         55.83	     8.185
  29.660         51.67	     7.874
  29.680         65.00	     8.832
  29.700         67.50	     9.000
  29.720         62.50	     8.660
  29.740         80.83	     9.849
  29.760         64.17	     8.775
  29.780         83.33	    10.000
  29.800         82.50	     9.950
  29.820        103.33	    11.136
  29.840        116.67	    11.832
  29.860        115.00	    11.747
  29.880        117.50	    11.874
  29.900        115.00	    11.747
  29.920         98.33	    10.863
  29.940        101.67	    11.045
  29.960         82.50	     9.950
  29.980         69.17	     9.110
  30.000         68.33	     9.055
  30.020         62.50	     8.660
  30.040         69.17	     9.110
  30.060         71.67	     9.274
  30.080         85.83	    10.149
  30.100         83.33	    10.000
  30.120         90.83	    10.440
  30.140         85.00	    10.100
  30.160        115.83	    11.790
  30.180         96.67	    10.770
  30.200         99.17	    10.909
  30.220         92.50	    10.536
  30.240         95.83	    10.724
  30.260         83.33	    10.000
  30.280         65.83	     8.888
  30.300         81.67	     9.899
  30.320         84.17	    10.050
  30.340         71.67	     9.274
  30.360         76.67	     9.592
  30.380         76.67	     9.592
  30.400         89.17	    10.344
  30.420        108.33	    11.402
  30.440         90.83	    10.440
  30.460        110.83	    11.533
  30.480        110.00	    11.489
  30.500        143.33	    13.115
  30.520        163.33	    14.000
  30.540        106.67	    11.314
  30.560         80.83	     9.849
  30.580         80.83	     9.849
  30.600         72.50	     9.327
  30.620         65.83	     8.888
  30.640         58.33	     8.367
  30.660         46.67	     7.483
  30.680         57.50	     8.307
  30.700         53.33	     8.000
  30.720         63.33	     8.718
  30.740         73.33	     9.381
  30.760         67.50	     9.000
  30.780         78.33	     9.695
  30.800         82.50	     9.950
  30.820         95.00	    10.677
  30.840        101.67	    11.045
  30.860         99.17	    10.909
  30.880         69.17	     9.110
  30.900         83.33	    10.000
  30.920         64.17	     8.775
  30.940         68.33	     9.055
  30.960         54.17	     8.062
  30.980         55.00	     8.124
  31.000         55.83	     8.185
  31.020         60.00	     8.485
  31.040         52.50	     7.937
  31.060         61.67	     8.602
  31.080         51.67	     7.874
  31.100         60.00	     8.485
  31.120         70.83	     9.220
  31.140         80.83	     9.849
  31.160         94.17	    10.630
  31.180        100.83	    11.000
  31.200        120.00	    12.000
  31.220         95.83	    10.724
  31.240        130.83	    12.530
  31.260        119.17	    11.958
  31.280        112.50	    11.619
  31.300         99.17	    10.909
  31.320         88.33	    10.296
  31.340         93.33	    10.583
  31.360         80.83	     9.849
  31.380         76.67	     9.592
  31.400         70.00	     9.165
  31.420         73.33	     9.381
  31.440         77.50	     9.644
  31.460         69.17	     9.110
  31.480         62.50	     8.660
  31.500         73.33	     9.381
  31.520         73.33	     9.381
  31.540         75.00	     9.487
  31.560         77.50	     9.644
  31.580         83.33	    10.000
  31.600         80.83	     9.849
  31.620         87.50	    10.247
  31.640         71.67	     9.274
  31.660         65.00	     8.832
  31.680         52.50	     7.937
  31.700         65.83	     8.888
  31.720         51.67	     7.874
  31.740         52.50	     7.937
  31.760         49.17	     7.681
  31.780         48.33	     7.616
  31.800         56.67	     8.246
  31.820         60.83	     8.544
  31.840         57.50	     8.307
  31.860         75.00	     9.487
  31.880         64.17	     8.775
  31.900         80.00	     9.798
  31.920         81.67	     9.899
  31.940         80.83	     9.849
  31.960         61.67	     8.602
  31.980         54.17	     8.062
  32.000         73.33	     9.381
  32.020         90.00	    10.392
  32.040         94.17	    10.630
  32.060         91.67	    10.488
  32.080         84.17	    10.050
  32.100         87.50	    10.247
  32.120         75.00	     9.487
  32.140         80.83	     9.849
  32.160         66.67	     8.944
  32.180         56.67	     8.246
  32.200         62.50	     8.660
  32.220        111.67	    11.576
  32.240        121.67	    12.083
  32.260         82.50	     9.950
  32.280         75.00	     9.487
  32.300         73.33	     9.381
  32.320         95.83	    10.724
  32.340         57.50	     8.307
  32.360         52.50	     7.937
  32.380         50.00	     7.746
  32.400         41.67	     7.071
  32.420         41.67	     7.071
  32.440         49.17	     7.681
  32.460         49.17	     7.681
  32.480         49.17	     7.681
  32.500         33.33	     6.325
  32.520         44.17	     7.280
  32.540         29.17	     5.916
  32.560         40.00	     6.928
  32.580         38.33	     6.782
  32.600         43.33	     7.211
  32.620         32.50	     6.245
  32.640         31.67	     6.164
  32.660         40.83	     7.000
  32.680         40.00	     6.928
  32.700         44.17	     7.280
  32.720         39.17	     6.856
  32.740         44.17	     7.280
  32.760         46.67	     7.483
  32.780         48.33	     7.616
  32.800         43.33	     7.211
  32.820         56.67	     8.246
  32.840         39.17	     6.856
  32.860         29.17	     5.916
  32.880         40.00	     6.928
  32.900         44.17	     7.280
  32.920         50.83	     7.810
  32.940         44.17	     7.280
  32.960         35.83	     6.557
  32.980         54.17	     8.062
  33.000         49.17	     7.681
  33.020         63.33	     8.718
  33.040         82.50	     9.950
  33.060         68.33	     9.055
  33.080         64.17	     8.775
  33.100         56.67	     8.246
  33.120         55.00	     8.124
  33.140         55.00	     8.124
  33.160         47.50	     7.550
  33.180         44.17	     7.280
  33.200         40.83	     7.000
  33.220         35.00	     6.481
  33.240         44.17	     7.280
  33.260         38.33	     6.782
  33.280         48.33	     7.616
  33.300         38.33	     6.782
  33.320         43.33	     7.211
  33.340         44.17	     7.280
  33.360         43.33	     7.211
  33.380         43.33	     7.211
  33.400         40.00	     6.928
  33.420         44.17	     7.280
  33.440         40.83	     7.000
  33.460         26.67	     5.657
  33.480         38.33	     6.782
  33.500         42.50	     7.141
  33.520         40.83	     7.000
  33.540         42.50	     7.141
  33.560         48.33	     7.616
  33.580         30.83	     6.083
  33.600         45.00	     7.348
  33.620         44.17	     7.280
  33.640         35.83	     6.557
  33.660         40.83	     7.000
  33.680         38.33	     6.782
  33.700         40.00	     6.928
  33.720         45.00	     7.348
  33.740         37.50	     6.708
  33.760         40.83	     7.000
  33.780         47.50	     7.550
  33.800         51.67	     7.874
  33.820         48.33	     7.616
  33.840         51.67	     7.874
  33.860         56.67	     8.246
  33.880         59.17	     8.426
  33.900         81.67	     9.899
  33.920         69.17	     9.110
  33.940         73.33	     9.381
  33.960         80.83	     9.849
  33.980         66.67	     8.944
  34.000         55.00	     8.124
  34.020         61.67	     8.602
  34.040         61.67	     8.602
  34.060         53.33	     8.000
  34.080         45.00	     7.348
  34.100         40.83	     7.000
  34.120         43.33	     7.211
  34.140         46.67	     7.483
  34.160         40.83	     7.000
  34.180         46.67	     7.483
  34.200         51.67	     7.874
  34.220         42.50	     7.141
  34.240         55.83	     8.185
  34.260         42.50	     7.141
  34.280         40.83	     7.000
  34.300         64.17	     8.775
  34.320         59.17	     8.426
  34.340         63.33	     8.718
  34.360         56.67	     8.246
  34.380         87.50	    10.247
  34.400        109.17	    11.446
  34.420         78.33	     9.695
  34.440         83.33	    10.000
  34.460        100.00	    10.954
  34.480         86.67	    10.198
  34.500         96.67	    10.770
  34.520         76.67	     9.592
  34.540         83.33	    10.000
  34.560         61.67	     8.602
  34.580         80.83	     9.849
  34.600         83.33	    10.000
  34.620         82.50	     9.950
  34.640         64.17	     8.775
  34.660         74.17	     9.434
  34.680         72.50	     9.327
  34.700         65.00	     8.832
  34.720         65.83	     8.888
  34.740         65.00	     8.832
  34.760         75.00	     9.487
  34.780         78.33	     9.695
  34.800         83.33	    10.000
  34.820         80.83	     9.849
  34.840         67.50	     9.000
  34.860         77.50	     9.644
  34.880         89.17	    10.344
  34.900         95.83	    10.724
  34.920         92.50	    10.536
  34.940        104.17	    11.180
  34.960        101.67	    11.045
  34.980        109.17	    11.446
  35.000        116.67	    11.832
  35.020        112.50	    11.619
  35.040        149.17	    13.379
  35.060        124.17	    12.207
  35.080        127.50	    12.369
  35.100        105.00	    11.225
  35.120         92.50	    10.536
  35.140        103.33	    11.136
  35.160         90.83	    10.440
  35.180         86.67	    10.198
  35.200         70.00	     9.165
  35.220         68.33	     9.055
  35.240         78.33	     9.695
  35.260         72.50	     9.327
  35.280         70.83	     9.220
  35.300         65.00	     8.832
  35.320         66.67	     8.944
  35.340         65.00	     8.832
  35.360         63.33	     8.718
  35.380         71.67	     9.274
  35.400         71.67	     9.274
  35.420         83.33	    10.000
  35.440         91.67	    10.488
  35.460         87.50	    10.247
  35.480        117.50	    11.874
  35.500        120.83	    12.042
  35.520        120.83	    12.042
  35.540        148.33	    13.342
  35.560        139.17	    12.923
  35.580        115.83	    11.790
  35.600        114.17	    11.705
  35.620        110.83	    11.533
  35.640        110.00	    11.489
  35.660         90.83	    10.440
  35.680         96.67	    10.770
  35.700         88.33	    10.296
  35.720         86.67	    10.198
  35.740         73.33	     9.381
  35.760         71.67	     9.274
  35.780         63.33	     8.718
  35.800         78.33	     9.695
  35.820         63.33	     8.718
  35.840         61.67	     8.602
  35.860         57.50	     8.307
  35.880         64.17	     8.775
  35.900         63.33	     8.718
  35.920         61.67	     8.602
  35.940         65.83	     8.888
  35.960         65.83	     8.888
  35.980         50.00	     7.746
  36.000         66.67	     8.944
  36.020         82.50	     9.950
  36.040         95.83	    10.724
  36.060        100.00	    10.954
  36.080         99.17	    10.909
  36.100        110.00	    11.489
  36.120         90.00	    10.392
  36.140         80.83	     9.849
  36.160         88.33	    10.296
  36.180         71.67	     9.274
  36.200         76.67	     9.592
  36.220         55.83	     8.185
  36.240         65.00	     8.832
  36.260         53.33	     8.000
  36.280         58.33	     8.367
  36.300         47.50	     7.550
  36.320         57.50	     8.307
  36.340         46.67	     7.483
  36.360         60.00	     8.485
  36.380         52.50	     7.937
  36.400         80.00	     9.798
  36.420         70.00	     9.165
  36.440         87.50	    10.247
  36.460        110.83	    11.533
  36.480        116.67	    11.832
  36.500        181.67	    14.765
  36.520        268.33	    17.944
  36.540        275.00	    18.166
  36.560        171.67	    14.353
  36.580        157.50	    13.748
  36.600        162.50	    13.964
  36.620        186.67	    14.967
  36.640        167.50	    14.177
  36.660        100.00	    10.954
  36.680         95.00	    10.677
  36.700        111.67	    11.576
  36.720         92.50	    10.536
  36.740        101.67	    11.045
  36.760        102.50	    11.091
  36.780         70.00	     9.165
  36.800         78.33	     9.695
  36.820         71.67	     9.274
  36.840         47.50	     7.550
  36.860         50.83	     7.810
  36.880         52.50	     7.937
  36.900         51.67	     7.874
  36.920         59.17	     8.426
  36.940         43.33	     7.211
  36.960         58.33	     8.367
  36.980         53.33	     8.000
  37.000         44.17	     7.280
  37.020         49.17	     7.681
  37.040         46.67	     7.483
  37.060         43.33	     7.211
  37.080         45.83	     7.416
  37.100         56.67	     8.246
  37.120         50.83	     7.810
  37.140         52.50	     7.937
  37.160         64.17	     8.775
  37.180         49.17	     7.681
  37.200         42.50	     7.141
  37.220         59.17	     8.426
  37.240         58.33	     8.367
  37.260         46.67	     7.483
  37.280         50.00	     7.746
  37.300         50.00	     7.746
  37.320         45.83	     7.416
  37.340         55.83	     8.185
  37.360         55.83	     8.185
  37.380         56.67	     8.246
  37.400         62.50	     8.660
  37.420         56.67	     8.246
  37.440         56.67	     8.246
  37.460         63.33	     8.718
  37.480         61.67	     8.602
  37.500         49.17	     7.681
  37.520         60.83	     8.544
  37.540         64.17	     8.775
  37.560         85.83	    10.149
  37.580         76.67	     9.592
  37.600         66.67	     8.944
  37.620         60.00	     8.485
  37.640         80.83	     9.849
  37.660         83.33	    10.000
  37.680         86.67	    10.198
  37.700         71.67	     9.274
  37.720         79.17	     9.747
  37.740         54.17	     8.062
  37.760         75.00	     9.487
  37.780         66.67	     8.944
  37.800         50.00	     7.746
  37.820         47.50	     7.550
  37.840         42.50	     7.141
  37.860         37.50	     6.708
  37.880         39.17	     6.856
  37.900         31.67	     6.164
  37.920         50.00	     7.746
  37.940         37.50	     6.708
  37.960         44.17	     7.280
  37.980         38.33	     6.782
  38.000         25.00	     5.477
  38.020         37.50	     6.708
  38.040         40.83	     7.000
  38.060         35.00	     6.481
  38.080         34.17	     6.403
  38.100         38.33	     6.782
  38.120         35.83	     6.557
  38.140         29.17	     5.916
  38.160         34.17	     6.403
  38.180         42.50	     7.141
  38.200         45.83	     7.416
  38.220         37.50	     6.708
  38.240         44.17	     7.280
  38.260         40.00	     6.928
  38.280         35.83	     6.557
  38.300         33.33	     6.325
  38.320         38.33	     6.782
  38.340         37.50	     6.708
  38.360         42.50	     7.141
  38.380         45.00	     7.348
  38.400         41.67	     7.071
  38.420         30.83	     6.083
  38.440         43.33	     7.211
  38.460         50.83	     7.810
  38.480         40.00	     6.928
  38.500         42.50	     7.141
  38.520         41.67	     7.071
  38.540         42.50	     7.141
  38.560         33.33	     6.325
  38.580         41.67	     7.071
  38.600         31.67	     6.164
  38.620         46.67	     7.483
  38.640         31.67	     6.164
  38.660         40.00	     6.928
  38.680         45.00	     7.348
  38.700         50.83	     7.810
  38.720         48.33	     7.616
  38.740         29.17	     5.916
  38.760         38.33	     6.782
  38.780         60.83	     8.544
  38.800         36.67	     6.633
  38.820         40.00	     6.928
  38.840         59.17	     8.426
  38.860         60.00	     8.485
  38.880         56.67	     8.246
  38.900         45.83	     7.416
  38.920         57.50	     8.307
  38.940         51.67	     7.874
  38.960         51.67	     7.874
  38.980         38.33	     6.782
  39.000         52.50	     7.937
  39.020         46.67	     7.483
  39.040         45.83	     7.416
  39.060         43.33	     7.211
  39.080         35.83	     6.557
  39.100         51.67	     7.874
  39.120         46.67	     7.483
  39.140         42.50	     7.141
  39.160         41.67	     7.071
  39.180         27.50	     5.745
  39.200         41.67	     7.071
  39.220         35.83	     6.557
  39.240         42.50	     7.141
  39.260         35.00	     6.481
  39.280         42.50	     7.141
  39.300         50.83	     7.810
  39.320         41.67	     7.071
  39.340         45.83	     7.416
  39.360         55.00	     8.124
  39.380         75.83	     9.539
  39.400         99.17	    10.909
  39.420        166.67	    14.142
  39.440        210.83	    15.906
  39.460        205.83	    15.716
  39.480        138.33	    12.884
  39.500        102.50	    11.091
  39.520        120.83	    12.042
  39.540        132.50	    12.610
  39.560        141.67	    13.038
  39.580        103.33	    11.136
  39.600         76.67	     9.592
  39.620         70.83	     9.220
  39.640         45.00	     7.348
  39.660         48.33	     7.616
  39.680         42.50	     7.141
  39.700         53.33	     8.000
  39.720         47.50	     7.550
  39.740         54.17	     8.062
  39.760         43.33	     7.211
  39.780         47.50	     7.550
  39.800         54.17	     8.062
  39.820         50.83	     7.810
  39.840         48.33	     7.616
  39.860         49.17	     7.681
  39.880         35.83	     6.557
  39.900         54.17	     8.062
  39.920         36.67	     6.633
  39.940         48.33	     7.616
  39.960         36.67	     6.633
  39.980         34.17	     6.403
  40.000         41.67	     7.071
  40.020         47.50	     7.550
  40.040         45.00	     7.348
  40.060         45.83	     7.416
  40.080         45.00	     7.348
  40.100         36.67	     6.633
  40.120         39.17	     6.856
  40.140         56.67	     8.246
  40.160         44.17	     7.280
  40.180         45.00	     7.348
  40.200         60.00	     8.485
  40.220         56.67	     8.246
  40.240         91.67	    10.488
  40.260        100.00	    10.954
  40.280        141.67	    13.038
  40.300        109.17	    11.446
  40.320         85.00	    10.100
  40.340         75.83	     9.539
  40.360         95.00	    10.677
  40.380        100.00	    10.954
  40.400         84.17	    10.050
  40.420         58.33	     8.367
  40.440         54.17	     8.062
  40.460         61.67	     8.602
  40.480         46.67	     7.483
  40.500         45.00	     7.348
  40.520         50.83	     7.810
  40.540         43.33	     7.211
  40.560         36.67	     6.633
  40.580         40.00	     6.928
  40.600         43.33	     7.211
  40.620         39.17	     6.856
  40.640         37.50	     6.708
  40.660         34.17	     6.403
  40.680         50.00	     7.746
  40.700         40.83	     7.000
  40.720         35.00	     6.481
  40.740         56.67	     8.246
  40.760         42.50	     7.141
  40.780         44.17	     7.280
  40.800         34.17	     6.403
  40.820         44.17	     7.280
  40.840         48.33	     7.616
  40.860         45.00	     7.348
  40.880         38.33	     6.782
  40.900         37.50	     6.708
  40.920         44.17	     7.280
  40.940         36.67	     6.633
  40.960         40.83	     7.000
  40.980         41.67	     7.071
  41.000         46.67	     7.483
  41.020         52.50	     7.937
  41.040         40.00	     6.928
  41.060         35.00	     6.481
  41.080         51.67	     7.874
  41.100         40.83	     7.000
  41.120         50.83	     7.810
  41.140         40.83	     7.000
  41.160         55.83	     8.185
  41.180         50.00	     7.746
  41.200         49.17	     7.681
  41.220         42.50	     7.141
  41.240         36.67	     6.633
  41.260         50.83	     7.810
  41.280         34.17	     6.403
  41.300         45.00	     7.348
  41.320         38.33	     6.782
  41.340         45.83	     7.416
  41.360         49.17	     7.681
  41.380         42.50	     7.141
  41.400         39.17	     6.856
  41.420         43.33	     7.211
  41.440         30.83	     6.083
  41.460         46.67	     7.483
  41.480         38.33	     6.782
  41.500         54.17	     8.062
  41.520         41.67	     7.071
  41.540         51.67	     7.874
  41.560         35.00	     6.481
  41.580         63.33	     8.718
  41.600         49.17	     7.681
  41.620         64.17	     8.775
  41.640         64.17	     8.775
  41.660         58.33	     8.367
  41.680         85.83	    10.149
  41.700         91.67	    10.488
  41.720         75.83	     9.539
  41.740         68.33	     9.055
  41.760         66.67	     8.944
  41.780         66.67	     8.944
  41.800         68.33	     9.055
  41.820         71.67	     9.274
  41.840         76.67	     9.592
  41.860         57.50	     8.307
  41.880         53.33	     8.000
  41.900         72.50	     9.327
  41.920         58.33	     8.367
  41.940         81.67	     9.899
  41.960         78.33	     9.695
  41.980         71.67	     9.274
  42.000         58.33	     8.367
  42.020         60.83	     8.544
  42.040         72.50	     9.327
  42.060         54.17	     8.062
  42.080         49.17	     7.681
  42.100         55.83	     8.185
  42.120         56.67	     8.246
  42.140         53.33	     8.000
  42.160         67.50	     9.000
  42.180         60.83	     8.544
  42.200         50.00	     7.746
  42.220         56.67	     8.246
  42.240         62.50	     8.660
  42.260         59.17	     8.426
  42.280         65.83	     8.888
  42.300         67.50	     9.000
  42.320         65.83	     8.888
  42.340         80.00	     9.798
  42.360        110.83	    11.533
  42.380        116.67	    11.832
  42.400        173.33	    14.422
  42.420        246.67	    17.205
  42.440        217.50	    16.155
  42.460        230.00	    16.613
  42.480        225.83	    16.462
  42.500        185.83	    14.933
  42.520        173.33	    14.422
  42.540        171.67	    14.353
  42.560        137.50	    12.845
  42.580        140.00	    12.961
  42.600        130.00	    12.490
  42.620         80.00	     9.798
  42.640         76.67	     9.592
  42.660         66.67	     8.944
  42.680         58.33	     8.367
  42.700         76.67	     9.592
  42.720         47.50	     7.550
  42.740         49.17	     7.681
  42.760         55.00	     8.124
  42.780         52.50	     7.937
  42.800         65.00	     8.832
  42.820         45.00	     7.348
  42.840         43.33	     7.211
  42.860         67.50	     9.000
  42.880         61.67	     8.602
  42.900         54.17	     8.062
  42.920         57.50	     8.307
  42.940         54.17	     8.062
  42.960         50.83	     7.810
  42.980         51.67	     7.874
  43.000         52.50	     7.937
  43.020         55.83	     8.185
  43.040         56.67	     8.246
  43.060         58.33	     8.367
  43.080         62.50	     8.660
  43.100         78.33	     9.695
  43.120         53.33	     8.000
  43.140         64.17	     8.775
  43.160         54.17	     8.062
  43.180         66.67	     8.944
  43.200         85.00	    10.100
  43.220         70.83	     9.220
  43.240         99.17	    10.909
  43.260         82.50	     9.950
  43.280         87.50	    10.247
  43.300        108.33	    11.402
  43.320         97.50	    10.817
  43.340        115.83	    11.790
  43.360         98.33	    10.863
  43.380        106.67	    11.314
  43.400        122.50	    12.124
  43.420        126.67	    12.329
  43.440        140.83	    13.000
  43.460        131.67	    12.570
  43.480        115.83	    11.790
  43.500        170.83	    14.318
  43.520        192.50	    15.199
  43.540        192.50	    15.199
  43.560        174.17	    14.457
  43.580        135.00	    12.728
  43.600        133.33	    12.649
  43.620        123.33	    12.166
  43.640        128.33	    12.410
  43.660        137.50	    12.845
  43.680        113.33	    11.662
  43.700         85.00	    10.100
  43.720         89.17	    10.344
  43.740         85.83	    10.149
  43.760         81.67	     9.899
  43.780         68.33	     9.055
  43.800         95.00	    10.677
  43.820         56.67	     8.246
  43.840         76.67	     9.592
  43.860         71.67	     9.274
  43.880         60.83	     8.544
  43.900         68.33	     9.055
  43.920         56.67	     8.246
  43.940         48.33	     7.616
  43.960         65.83	     8.888
  43.980         54.17	     8.062
  44.000         35.83	     6.557
  44.020         53.33	     8.000
  44.040         50.83	     7.810
  44.060         56.67	     8.246
  44.080         50.83	     7.810
  44.100         55.00	     8.124
  44.120         50.00	     7.746
  44.140         49.17	     7.681
  44.160         60.00	     8.485
  44.180         65.00	     8.832
  44.200         46.67	     7.483
  44.220         51.67	     7.874
  44.240         40.83	     7.000
  44.260         48.33	     7.616
  44.280         49.17	     7.681
  44.300         42.50	     7.141
  44.320         41.67	     7.071
  44.340         45.00	     7.348
  44.360         30.83	     6.083
  44.380         35.83	     6.557
  44.400         55.00	     8.124
  44.420         38.33	     6.782
  44.440         46.67	     7.483
  44.460         36.67	     6.633
  44.480         52.50	     7.937
  44.500         43.33	     7.211
  44.520         45.00	     7.348
  44.540         30.00	     6.000
  44.560         30.00	     6.000
  44.580         45.83	     7.416
  44.600         41.67	     7.071
  44.620         38.33	     6.782
  44.640         37.50	     6.708
  44.660         36.67	     6.633
  44.680         34.17	     6.403
  44.700         40.83	     7.000
  44.720         39.17	     6.856
  44.740         35.83	     6.557
  44.760         44.17	     7.280
  44.780         54.17	     8.062
  44.800         43.33	     7.211
  44.820         55.00	     8.124
  44.840         49.17	     7.681
  44.860         51.67	     7.874
  44.880         52.50	     7.937
  44.900         48.33	     7.616
  44.920         60.83	     8.544
  44.940         59.17	     8.426
  44.960         58.33	     8.367
  44.980         51.67	     7.874
  45.000         60.00	     8.485
  45.020         60.00	     8.485
  45.040         49.17	     7.681
  45.060         61.67	     8.602
  45.080         67.50	     9.000
  45.100         65.83	     8.888
  45.120         49.17	     7.681
  45.140         58.33	     8.367
  45.160         41.67	     7.071
  45.180         51.67	     7.874
  45.200         62.50	     8.660
  45.220         57.50	     8.307
  45.240         59.17	     8.426
  45.260         67.50	     9.000
  45.280         69.17	     9.110
  45.300         48.33	     7.616
  45.320         56.67	     8.246
  45.340         62.50	     8.660
  45.360         78.33	     9.695
  45.380        102.50	    11.091
  45.400        106.67	    11.314
  45.420        113.33	    11.662
  45.440        126.67	    12.329
  45.460        130.00	    12.490
  45.480        163.33	    14.000
  45.500        193.33	    15.232
  45.520        233.33	    16.733
  45.540        230.00	    16.613
  45.560        297.50	    18.894
  45.580        301.67	    19.026
  45.600        298.33	    18.921
  45.620        224.17	    16.401
  45.640        206.67	    15.748
  45.660        207.50	    15.780
  45.680        211.67	    15.937
  45.700        170.00	    14.283
  45.720        175.83	    14.526
  45.740        180.00	    14.697
  45.760        180.83	    14.731
  45.780        173.33	    14.422
  45.800        135.00	    12.728
  45.820        123.33	    12.166
  45.840         77.50	     9.644
  45.860         86.67	    10.198
  45.880        102.50	    11.091
  45.900        100.00	    10.954
  45.920         87.50	    10.247
  45.940         88.33	    10.296
  45.960         65.83	     8.888
  45.980         52.50	     7.937
  46.000         56.67	     8.246
  46.020         51.67	     7.874
  46.040         60.00	     8.485
  46.060         55.00	     8.124
  46.080         55.83	     8.185
  46.100         51.67	     7.874
  46.120         44.17	     7.280
  46.140         35.83	     6.557
  46.160         46.67	     7.483
  46.180         37.50	     6.708
  46.200         45.00	     7.348
  46.220         33.33	     6.325
  46.240         48.33	     7.616
  46.260         37.50	     6.708
  46.280         30.00	     6.000
  46.300         40.00	     6.928
  46.320         42.50	     7.141
  46.340         40.83	     7.000
  46.360         34.17	     6.403
  46.380         45.00	     7.348
  46.400         37.50	     6.708
  46.420         40.00	     6.928
  46.440         26.67	     5.657
  46.460         40.00	     6.928
  46.480         45.00	     7.348
  46.500         35.00	     6.481
  46.520         35.83	     6.557
  46.540         45.83	     7.416
  46.560         45.00	     7.348
  46.580         30.00	     6.000
  46.600         34.17	     6.403
  46.620         35.83	     6.557
  46.640         36.67	     6.633
  46.660         27.50	     5.745
  46.680         40.83	     7.000
  46.700         34.17	     6.403
  46.720         30.83	     6.083
  46.740         35.00	     6.481
  46.760         42.50	     7.141
  46.780         29.17	     5.916
  46.800         43.33	     7.211
  46.820         42.50	     7.141
  46.840         32.50	     6.245
  46.860         31.67	     6.164
  46.880         25.00	     5.477
  46.900         28.33	     5.831
  46.920         34.17	     6.403
  46.940         37.50	     6.708
  46.960         33.33	     6.325
  46.980         35.00	     6.481
  47.000         43.33	     7.211
  47.020         64.17	     8.775
  47.040         62.50	     8.660
  47.060         64.17	     8.775
  47.080         53.33	     8.000
  47.100         65.83	     8.888
  47.120         58.33	     8.367
  47.140         55.83	     8.185
  47.160         80.00	     9.798
  47.180        100.00	    10.954
  47.200        100.83	    11.000
  47.220        106.67	    11.314
  47.240         87.50	    10.247
  47.260         86.67	    10.198
  47.280         56.67	     8.246
  47.300         65.83	     8.888
  47.320         77.50	     9.644
  47.340         66.67	     8.944
  47.360         68.33	     9.055
  47.380         58.33	     8.367
  47.400         50.00	     7.746
  47.420         51.67	     7.874
  47.440         42.50	     7.141
  47.460         30.00	     6.000
  47.480         40.83	     7.000
  47.500         35.00	     6.481
  47.520         27.50	     5.745
  47.540         19.17	     4.796
  47.560         33.33	     6.325
  47.580         36.67	     6.633
  47.600         40.83	     7.000
  47.620         34.17	     6.403
  47.640         30.00	     6.000
  47.660         26.67	     5.657
  47.680         33.33	     6.325
  47.700         37.50	     6.708
  47.720         32.50	     6.245
  47.740         29.17	     5.916
  47.760         27.50	     5.745
  47.780         32.50	     6.245
  47.800         35.00	     6.481
  47.820         35.83	     6.557
  47.840         44.17	     7.280
  47.860         37.50	     6.708
  47.880         35.00	     6.481
  47.900         53.33	     8.000
  47.920         45.00	     7.348
  47.940         62.50	     8.660
  47.960         50.00	     7.746
  47.980         45.00	     7.348
  48.000         57.50	     8.307
  48.020         46.67	     7.483
  48.040         45.00	     7.348
  48.060         55.83	     8.185
  48.080         46.67	     7.483
  48.100         55.83	     8.185
  48.120         55.83	     8.185
  48.140         48.33	     7.616
  48.160         66.67	     8.944
  48.180         64.17	     8.775
  48.200         45.00	     7.348
  48.220         47.50	     7.550
  48.240         49.17	     7.681
  48.260         59.17	     8.426
  48.280         46.67	     7.483
  48.300         64.17	     8.775
  48.320         55.00	     8.124
  48.340         50.00	     7.746
  48.360         56.67	     8.246
  48.380         43.33	     7.211
  48.400         50.83	     7.810
  48.420         42.50	     7.141
  48.440         45.83	     7.416
  48.460         47.50	     7.550
  48.480         40.00	     6.928
  48.500         58.33	     8.367
  48.520         52.50	     7.937
  48.540         39.17	     6.856
  48.560         35.83	     6.557
  48.580         35.00	     6.481
  48.600         44.17	     7.280
  48.620         45.00	     7.348
  48.640         56.67	     8.246
  48.660         55.00	     8.124
  48.680         50.00	     7.746
  48.700         52.50	     7.937
  48.720         46.67	     7.483
  48.740         36.67	     6.633
  48.760         41.67	     7.071
  48.780         57.50	     8.307
  48.800         44.17	     7.280
  48.820         47.50	     7.550
  48.840         39.17	     6.856
  48.860         49.17	     7.681
  48.880         42.50	     7.141
  48.900         38.33	     6.782
  48.920         36.67	     6.633
  48.940         32.50	     6.245
  48.960         39.17	     6.856
  48.980         51.67	     7.874
  49.000         52.50	     7.937
  49.020         50.00	     7.746
  49.040         32.50	     6.245
  49.060         39.17	     6.856
  49.080         38.33	     6.782
  49.100         41.67	     7.071
  49.120         45.83	     7.416
  49.140         44.17	     7.280
  49.160         49.17	     7.681
  49.180         51.67	     7.874
  49.200         49.17	     7.681
  49.220         52.50	     7.937
  49.240         45.00	     7.348
  49.260         51.67	     7.874
  49.280         49.17	     7.681
  49.300         49.17	     7.681
  49.320         52.50	     7.937
  49.340         57.50	     8.307
  49.360         43.33	     7.211
  49.380         39.17	     6.856
  49.400         40.00	     6.928
  49.420         38.33	     6.782
  49.440         47.50	     7.550
  49.460         47.50	     7.550
  49.480         42.50	     7.141
  49.500         47.50	     7.550
  49.520         40.83	     7.000
  49.540         45.83	     7.416
  49.560         40.83	     7.000
  49.580         41.67	     7.071
  49.600         55.83	     8.185
  49.620         45.00	     7.348
  49.640         45.83	     7.416
  49.660         33.33	     6.325
  49.680         41.67	     7.071
  49.700         56.67	     8.246
  49.720         56.67	     8.246
  49.740         61.67	     8.602
  49.760         53.33	     8.000
  49.780         64.17	     8.775
  49.800         54.17	     8.062
  49.820         72.50	     9.327
  49.840         74.17	     9.434
  49.860         60.83	     8.544
  49.880         84.17	    10.050
  49.900         88.33	    10.296
  49.920        107.50	    11.358
  49.940         85.83	    10.149
  49.960         87.50	    10.247
  49.980         90.00	    10.392
  50.000         94.17	    10.630
  50.020         96.67	    10.770
  50.040        124.17	    12.207
  50.060        211.67	    15.937
  50.080        301.67	    19.026
  50.100        499.17	    24.474
  50.120        710.83	    29.206
  50.140        630.00	    27.495
  50.160        395.00	    21.772
  50.180        213.33	    16.000
  50.200        206.67	    15.748
  50.220        244.17	    17.117
  50.240        335.83	    20.075
  50.260        409.17	    22.159
  50.280        336.67	    20.100
  50.300        220.00	    16.248
  50.320        114.17	    11.705
  50.340         92.50	    10.536
  50.360         75.00	     9.487
  50.380         68.33	     9.055
  50.400         59.17	     8.426
  50.420         71.67	     9.274
  50.440         60.83	     8.544
  50.460         64.17	     8.775
  50.480         62.50	     8.660
  50.500         55.00	     8.124
  50.520         67.50	     9.000
  50.540         78.33	     9.695
  50.560        110.83	    11.533
  50.580         88.33	    10.296
  50.600         82.50	     9.950
  50.620         98.33	    10.863
  50.640         81.67	     9.899
  50.660         68.33	     9.055
  50.680         70.00	     9.165
  50.700         78.33	     9.695
  50.720         75.00	     9.487
  50.740         70.83	     9.220
  50.760         49.17	     7.681
  50.780         56.67	     8.246
  50.800         55.83	     8.185
  50.820         55.00	     8.124
  50.840         31.67	     6.164
  50.860         47.50	     7.550
  50.880         45.83	     7.416
  50.900         45.00	     7.348
  50.920         49.17	     7.681
  50.940         40.00	     6.928
  50.960         39.17	     6.856
  50.980         43.33	     7.211
  51.000         41.67	     7.071
  51.020         43.33	     7.211
  51.040         45.83	     7.416
  51.060         59.17	     8.426
  51.080         80.00	     9.798
  51.100        153.33	    13.565
  51.120        192.50	    15.199
  51.140        159.17	    13.820
  51.160         67.50	     9.000
  51.180         75.83	     9.539
  51.200         65.83	     8.888
  51.220         71.67	     9.274
  51.240        110.83	    11.533
  51.260        116.67	    11.832
  51.280         96.67	    10.770
  51.300         68.33	     9.055
  51.320         60.83	     8.544
  51.340         40.83	     7.000
  51.360         49.17	     7.681
  51.380         52.50	     7.937
  51.400         29.17	     5.916
  51.420         37.50	     6.708
  51.440         34.17	     6.403
  51.460         37.50	     6.708
  51.480         44.17	     7.280
  51.500         35.83	     6.557
  51.520         30.00	     6.000
  51.540         40.00	     6.928
  51.560         30.00	     6.000
  51.580         29.17	     5.916
  51.600         29.17	     5.916
  51.620         41.67	     7.071
  51.640         34.17	     6.403
  51.660         39.17	     6.856
  51.680         31.67	     6.164
  51.700         35.00	     6.481
  51.720         35.83	     6.557
  51.740         40.83	     7.000
  51.760         32.50	     6.245
  51.780         30.83	     6.083
  51.800         35.00	     6.481
  51.820         40.83	     7.000
  51.840         42.50	     7.141
  51.860         23.33	     5.292
  51.880         31.67	     6.164
  51.900         40.00	     6.928
  51.920         40.83	     7.000
  51.940         27.50	     5.745
  51.960         40.83	     7.000
  51.980         35.00	     6.481
  52.000         31.67	     6.164
  52.020         37.50	     6.708
  52.040         40.83	     7.000
  52.060         34.17	     6.403
  52.080         58.33	     8.367
  52.100         38.33	     6.782
  52.120         51.67	     7.874
  52.140         50.83	     7.810
  52.160         45.00	     7.348
  52.180         41.67	     7.071
  52.200         37.50	     6.708
  52.220         58.33	     8.367
  52.240         41.67	     7.071
  52.260         48.33	     7.616
  52.280         51.67	     7.874
  52.300         50.83	     7.810
  52.320         35.83	     6.557
  52.340         41.67	     7.071
  52.360         42.50	     7.141
  52.380         45.83	     7.416
  52.400         41.67	     7.071
  52.420         50.83	     7.810
  52.440         47.50	     7.550
  52.460         41.67	     7.071
  52.480         47.50	     7.550
  52.500         52.50	     7.937
  52.520         50.00	     7.746
  52.540         43.33	     7.211
  52.560         45.83	     7.416
  52.580         46.67	     7.483
  52.600         45.83	     7.416
  52.620         45.00	     7.348
  52.640         36.67	     6.633
  52.660         35.00	     6.481
  52.680         34.17	     6.403
  52.700         37.50	     6.708
  52.720         34.17	     6.403
  52.740         35.00	     6.481
  52.760         45.83	     7.416
  52.780         44.17	     7.280
  52.800         42.50	     7.141
  52.820         43.33	     7.211
  52.840         45.83	     7.416
  52.860         45.00	     7.348
  52.880         40.00	     6.928
  52.900         36.67	     6.633
  52.920         45.00	     7.348
  52.940         38.33	     6.782
  52.960         40.83	     7.000
  52.980         43.33	     7.211
  53.000         38.33	     6.782
  53.020         42.50	     7.141
  53.040         35.83	     6.557
  53.060         37.50	     6.708
  53.080         47.50	     7.550
  53.100         45.83	     7.416
  53.120         40.00	     6.928
  53.140         44.17	     7.280
  53.160         51.67	     7.874
  53.180         47.50	     7.550
  53.200         56.67	     8.246
  53.220         55.83	     8.185
  53.240         68.33	     9.055
  53.260         72.50	     9.327
  53.280         90.00	    10.392
  53.300        105.00	    11.225
  53.320         65.83	     8.888
  53.340         76.67	     9.592
  53.360         60.00	     8.485
  53.380         65.83	     8.888
  53.400         55.00	     8.124
  53.420         60.00	     8.485
  53.440         71.67	     9.274
  53.460         49.17	     7.681
  53.480         50.83	     7.810
  53.500         41.67	     7.071
  53.520         52.50	     7.937
  53.540         39.17	     6.856
  53.560         31.67	     6.164
  53.580         40.83	     7.000
  53.600         28.33	     5.831
  53.620         25.83	     5.568
  53.640         24.17	     5.385
  53.660         37.50	     6.708
  53.680         25.83	     5.568
  53.700         34.17	     6.403
  53.720         30.00	     6.000
  53.740         31.67	     6.164
  53.760         41.67	     7.071
  53.780         39.17	     6.856
  53.800         25.83	     5.568
  53.820         31.67	     6.164
  53.840         30.83	     6.083
  53.860         41.67	     7.071
  53.880         42.50	     7.141
  53.900         43.33	     7.211
  53.920         43.33	     7.211
  53.940         43.33	     7.211
  53.960         28.33	     5.831
  53.980         31.67	     6.164
  54.000         33.33	     6.325
  54.020         25.83	     5.568
  54.040         24.17	     5.385
  54.060         39.17	     6.856
  54.080         44.17	     7.280
  54.100         35.00	     6.481
  54.120         35.00	     6.481
  54.140         27.50	     5.745
  54.160         43.33	     7.211
  54.180         31.67	     6.164
  54.200         36.67	     6.633
  54.220         41.67	     7.071
  54.240         35.83	     6.557
  54.260         41.67	     7.071
  54.280         52.50	     7.937
  54.300         55.00	     8.124
  54.320         55.00	     8.124
  54.340         56.67	     8.246
  54.360         46.67	     7.483
  54.380         44.17	     7.280
  54.400         54.17	     8.062
  54.420         40.83	     7.000
  54.440         59.17	     8.426
  54.460         53.33	     8.000
  54.480         45.00	     7.348
  54.500         51.67	     7.874
  54.520         46.67	     7.483
  54.540         36.67	     6.633
  54.560         40.00	     6.928
  54.580         42.50	     7.141
  54.600         40.83	     7.000
  54.620         44.17	     7.280
  54.640         55.83	     8.185
  54.660         39.17	     6.856
  54.680         48.33	     7.616
  54.700         48.33	     7.616
  54.720         41.67	     7.071
  54.740         59.17	     8.426
  54.760         63.33	     8.718
  54.780         65.00	     8.832
  54.800         75.83	     9.539
  54.820        116.67	    11.832
  54.840        146.67	    13.266
  54.860        145.83	    13.229
  54.880        145.83	    13.229
  54.900        103.33	    11.136
  54.920         79.17	     9.747
  54.940         70.00	     9.165
  54.960         75.83	     9.539
  54.980        100.00	    10.954
  55.000        111.67	    11.576
  55.020        101.67	    11.045
  55.040         86.67	    10.198
  55.060         70.83	     9.220
  55.080         58.33	     8.367
  55.100         49.17	     7.681
  55.120         40.83	     7.000
  55.140         56.67	     8.246
  55.160         60.83	     8.544
  55.180         58.33	     8.367
  55.200         54.17	     8.062
  55.220         73.33	     9.381
  55.240        105.00	    11.225
  55.260        148.33	    13.342
  55.280        295.00	    18.815
  55.300        435.83	    22.869
  55.320        517.50	    24.920
  55.340        360.00	    20.785
  55.360        161.67	    13.928
  55.380        118.33	    11.916
  55.400        104.17	    11.180
  55.420        138.33	    12.884
  55.440        252.50	    17.407
  55.460        297.50	    18.894
  55.480        257.50	    17.578
  55.500        155.83	    13.675
  55.520        106.67	    11.314
  55.540         70.00	     9.165
  55.560         58.33	     8.367
  55.580         55.83	     8.185
  55.600         55.83	     8.185
  55.620         42.50	     7.141
  55.640         49.17	     7.681
  55.660         47.50	     7.550
  55.680         47.50	     7.550
  55.700         38.33	     6.782
  55.720         48.33	     7.616
  55.740         45.83	     7.416
  55.760         66.67	     8.944
  55.780         58.33	     8.367
  55.800         55.00	     8.124
  55.820         57.50	     8.307
  55.840         57.50	     8.307
  55.860         56.67	     8.246
  55.880         56.67	     8.246
  55.900         60.83	     8.544
  55.920         43.33	     7.211
  55.940         52.50	     7.937
  55.960         40.00	     6.928
  55.980         48.33	     7.616
  56.000         49.17	     7.681
  56.020         49.17	     7.681
  56.040         58.33	     8.367
  56.060         70.00	     9.165
  56.080         55.83	     8.185
  56.100         53.33	     8.000
  56.120         51.67	     7.874
  56.140         62.50	     8.660
  56.160         47.50	     7.550
  56.180         40.00	     6.928
  56.200         48.33	     7.616
  56.220         49.17	     7.681
  56.240         54.17	     8.062
  56.260         38.33	     6.782
  56.280         41.67	     7.071
  56.300         42.50	     7.141
  56.320         40.83	     7.000
  56.340         40.00	     6.928
  56.360         34.17	     6.403
  56.380         35.00	     6.481
  56.400         36.67	     6.633
  56.420         32.50	     6.245
  56.440         31.67	     6.164
  56.460         47.50	     7.550
  56.480         38.33	     6.782
  56.500         44.17	     7.280
  56.520         52.50	     7.937
  56.540         39.17	     6.856
  56.560         49.17	     7.681
  56.580         45.00	     7.348
  56.600         45.83	     7.416
  56.620         50.00	     7.746
  56.640         41.67	     7.071
  56.660         42.50	     7.141
  56.680         51.67	     7.874
  56.700         47.50	     7.550
  56.720         43.33	     7.211
  56.740         61.67	     8.602
  56.760         61.67	     8.602
  56.780         49.17	     7.681
  56.800         45.83	     7.416
  56.820         53.33	     8.000
  56.840         62.50	     8.660
  56.860         52.50	     7.937
  56.880         30.83	     6.083
  56.900         55.00	     8.124
  56.920         50.00	     7.746
  56.940         45.83	     7.416
  56.960         36.67	     6.633
  56.980         42.50	     7.141
  57.000         39.17	     6.856
  57.020         45.00	     7.348
  57.040         44.17	     7.280
  57.060         31.67	     6.164
  57.080         38.33	     6.782
  57.100         46.67	     7.483
  57.120         26.67	     5.657
  57.140         40.83	     7.000
  57.160         39.17	     6.856
  57.180         42.50	     7.141
  57.200         45.00	     7.348
  57.220         54.17	     8.062
  57.240         34.17	     6.403
  57.260         32.50	     6.245
  57.280         33.33	     6.325
  57.300         26.67	     5.657
  57.320         43.33	     7.211
  57.340         35.83	     6.557
  57.360         30.00	     6.000
  57.380         33.33	     6.325
  57.400         40.00	     6.928
  57.420         40.83	     7.000
  57.440         43.33	     7.211
  57.460         28.33	     5.831
  57.480         28.33	     5.831
  57.500         29.17	     5.916
  57.520         26.67	     5.657
  57.540         33.33	     6.325
  57.560         26.67	     5.657
  57.580         35.00	     6.481
  57.600         49.17	     7.681
  57.620         49.17	     7.681
  57.640         35.00	     6.481
  57.660         45.83	     7.416
  57.680         36.67	     6.633
  57.700         29.17	     5.916
  57.720         35.83	     6.557
  57.740         55.00	     8.124
  57.760         52.50	     7.937
  57.780         61.67	     8.602
  57.800         48.33	     7.616
  57.820         39.17	     6.856
  57.840         31.67	     6.164
  57.860         32.50	     6.245
  57.880         30.00	     6.000
  57.900         37.50	     6.708
  57.920         30.83	     6.083
  57.940         45.83	     7.416
  57.960         47.50	     7.550
  57.980         40.83	     7.000
  58.000         40.00	     6.928
  58.020         35.00	     6.481
  58.040         31.67	     6.164
  58.060         35.00	     6.481
  58.080         27.50	     5.745
  58.100         37.50	     6.708
  58.120         44.17	     7.280
  58.140         31.67	     6.164
  58.160         35.83	     6.557
  58.180         31.67	     6.164
  58.200         29.17	     5.916
  58.220         30.83	     6.083
  58.240         38.33	     6.782
  58.260         40.83	     7.000
  58.280         35.83	     6.557
  58.300         32.50	     6.245
  58.320         44.17	     7.280
  58.340         41.67	     7.071
  58.360         41.67	     7.071
  58.380         35.83	     6.557
  58.400         40.00	     6.928
  58.420         30.83	     6.083
  58.440         43.33	     7.211
  58.460         47.50	     7.550
  58.480         31.67	     6.164
  58.500         32.50	     6.245
  58.520         39.17	     6.856
  58.540         48.33	     7.616
  58.560         50.00	     7.746
  58.580         35.00	     6.481
  58.600         51.67	     7.874
  58.620         42.50	     7.141
  58.640         43.33	     7.211
  58.660         47.50	     7.550
  58.680         40.00	     6.928
  58.700         44.17	     7.280
  58.720         52.50	     7.937
  58.740         45.00	     7.348
  58.760         43.33	     7.211
  58.780         39.17	     6.856
  58.800         44.17	     7.280
  58.820         49.17	     7.681
  58.840         40.83	     7.000
  58.860         45.00	     7.348
  58.880         38.33	     6.782
  58.900         36.67	     6.633
  58.920         50.00	     7.746
  58.940         40.00	     6.928
  58.960         49.17	     7.681
  58.980         40.00	     6.928
  59.000         45.00	     7.348
  59.020         49.17	     7.681
  59.040         46.67	     7.483
  59.060         48.33	     7.616
  59.080         38.33	     6.782
  59.100         45.83	     7.416
  59.120         46.67	     7.483
  59.140         58.33	     8.367
  59.160         51.67	     7.874
  59.180         50.83	     7.810
  59.200         33.33	     6.325
  59.220         55.83	     8.185
  59.240         44.17	     7.280
  59.260         46.67	     7.483
  59.280         44.17	     7.280
  59.300         42.50	     7.141
  59.320         47.50	     7.550
  59.340         44.17	     7.280
  59.360         37.50	     6.708
  59.380         35.83	     6.557
  59.400         40.00	     6.928
  59.420         44.17	     7.280
  59.440         31.67	     6.164
  59.460         50.00	     7.746
  59.480         38.33	     6.782
  59.500         31.67	     6.164
  59.520         29.17	     5.916
  59.540         37.50	     6.708
  59.560         50.00	     7.746
  59.580         36.67	     6.633
  59.600         44.17	     7.280
  59.620         45.83	     7.416
  59.640         42.50	     7.141
  59.660         43.33	     7.211
  59.680         39.17	     6.856
  59.700         34.17	     6.403
  59.720         36.67	     6.633
  59.740         45.83	     7.416
  59.760         55.00	     8.124
  59.780         50.83	     7.810
  59.800         51.67	     7.874
  59.820         55.00	     8.124
  59.840         72.50	     9.327
  59.860        109.17	    11.446
  59.880        149.17	    13.379
  59.900        227.50	    16.523
  59.920        334.17	    20.025
  59.940        330.83	    19.925
  59.960        298.33	    18.921
  59.980        199.17	    15.460
  60.000        150.00	    13.416
  60.020        118.33	    11.916
  60.040        121.67	    12.083
  60.060        130.83	    12.530
  60.080        170.00	    14.283
  60.100        192.50	    15.199
  60.120        193.33	    15.232
  60.140        149.17	    13.379
  60.160        118.33	    11.916
  60.180         92.50	    10.536
  60.200         60.00	     8.485
  60.220         52.50	     7.937
  60.240         60.00	     8.485
  60.260         49.17	     7.681
  60.280         50.00	     7.746
  60.300         50.00	     7.746
  60.320         50.83	     7.810
  60.340         40.00	     6.928
  60.360         54.17	     8.062
  60.380         50.00	     7.746
  60.400         45.00	     7.348
  60.420         45.00	     7.348
  60.440         50.00	     7.746
  60.460         39.17	     6.856
  60.480         42.50	     7.141
  60.500         45.00	     7.348
  60.520         44.17	     7.280
  60.540         57.50	     8.307
  60.560         40.00	     6.928
  60.580         45.00	     7.348
  60.600         40.83	     7.000
  60.620         32.50	     6.245
  60.640         47.50	     7.550
  60.660         41.67	     7.071
  60.680         55.00	     8.124
  60.700         42.50	     7.141
  60.720         57.50	     8.307
  60.740         47.50	     7.550
  60.760         55.83	     8.185
  60.780         62.50	     8.660
  60.800         58.33	     8.367
  60.820         43.33	     7.211
  60.840         71.67	     9.274
  60.860         70.83	     9.220
  60.880         56.67	     8.246
  60.900         53.33	     8.000
  60.920         54.17	     8.062
  60.940         42.50	     7.141
  60.960         47.50	     7.550
  60.980         53.33	     8.000
  61.000         47.50	     7.550
  61.020         49.17	     7.681
  61.040         53.33	     8.000
  61.060         51.67	     7.874
  61.080         37.50	     6.708
  61.100         37.50	     6.708
  61.120         40.83	     7.000
  61.140         38.33	     6.782
  61.160         42.50	     7.141
  61.180         36.67	     6.633
  61.200         40.00	     6.928
  61.220         44.17	     7.280
  61.240         48.33	     7.616
  61.260         45.00	     7.348
  61.280         30.83	     6.083
  61.300         44.17	     7.280
  61.320         44.17	     7.280
  61.340         59.17	     8.426
  61.360         49.17	     7.681
  61.380         51.67	     7.874
  61.400         65.00	     8.832
  61.420         55.00	     8.124
  61.440         58.33	     8.367
  61.460         68.33	     9.055
  61.480         78.33	     9.695
  61.500         83.33	    10.000
  61.520         67.50	     9.000
  61.540         72.50	     9.327
  61.560         71.67	     9.274
  61.580         63.33	     8.718
  61.600         54.17	     8.062
  61.620         73.33	     9.381
  61.640         76.67	     9.592
  61.660         60.00	     8.485
  61.680         74.17	     9.434
  61.700         71.67	     9.274
  61.720         63.33	     8.718
  61.740         62.50	     8.660
  61.760         66.67	     8.944
  61.780         67.50	     9.000
  61.800         65.00	     8.832
  61.820         68.33	     9.055
  61.840         64.17	     8.775
  61.860         51.67	     7.874
  61.880         53.33	     8.000
  61.900         54.17	     8.062
  61.920         44.17	     7.280
  61.940         41.67	     7.071
  61.960         54.17	     8.062
  61.980         52.50	     7.937
  62.000         52.50	     7.937
  62.020         51.67	     7.874
  62.040         47.50	     7.550
  62.060         49.17	     7.681
  62.080         37.50	     6.708
  62.100         34.17	     6.403
  62.120         38.33	     6.782
  62.140         36.67	     6.633
  62.160         38.33	     6.782
  62.180         29.17	     5.916
  62.200         38.33	     6.782
  62.220         32.50	     6.245
  62.240         31.67	     6.164
  62.260         30.83	     6.083
  62.280         35.00	     6.481
  62.300         28.33	     5.831
  62.320         29.17	     5.916
  62.340         37.50	     6.708
  62.360         32.50	     6.245
  62.380         31.67	     6.164
  62.400         28.33	     5.831
  62.420         26.67	     5.657
  62.440         30.83	     6.083
  62.460         38.33	     6.782
  62.480         34.17	     6.403
  62.500         37.50	     6.708
  62.520         35.00	     6.481
  62.540         36.67	     6.633
  62.560         25.00	     5.477
  62.580         34.17	     6.403
  62.600         38.33	     6.782
  62.620         48.33	     7.616
  62.640         45.00	     7.348
  62.660         37.50	     6.708
  62.680         45.00	     7.348
  62.700         41.67	     7.071
  62.720         33.33	     6.325
  62.740         52.50	     7.937
  62.760         37.50	     6.708
  62.780         35.83	     6.557
  62.800         31.67	     6.164
  62.820         41.67	     7.071
  62.840         40.83	     7.000
  62.860         43.33	     7.211
  62.880         30.00	     6.000
  62.900         33.33	     6.325
  62.920         35.00	     6.481
  62.940         34.17	     6.403
  62.960         38.33	     6.782
  62.980         38.33	     6.782
  63.000         42.50	     7.141
  63.020         36.67	     6.633
  63.040         45.83	     7.416
  63.060         26.67	     5.657
  63.080         35.00	     6.481
  63.100         37.50	     6.708
  63.120         34.17	     6.403
  63.140         29.17	     5.916
  63.160         35.83	     6.557
  63.180         41.67	     7.071
  63.200         40.00	     6.928
  63.220         41.67	     7.071
  63.240         47.50	     7.550
  63.260         35.00	     6.481
  63.280         23.33	     5.292
  63.300         40.83	     7.000
  63.320         35.00	     6.481
  63.340         45.00	     7.348
  63.360         45.83	     7.416
  63.380         39.17	     6.856
  63.400         45.00	     7.348
  63.420         44.17	     7.280
  63.440         58.33	     8.367
  63.460         55.83	     8.185
  63.480         53.33	     8.000
  63.500         51.67	     7.874
  63.520         57.50	     8.307
  63.540         42.50	     7.141
  63.560         35.00	     6.481
  63.580         43.33	     7.211
  63.600         44.17	     7.280
  63.620         50.83	     7.810
  63.640         40.00	     6.928
  63.660         42.50	     7.141
  63.680         35.83	     6.557
  63.700         57.50	     8.307
  63.720         50.83	     7.810
  63.740         52.50	     7.937
  63.760         50.00	     7.746
  63.780         66.67	     8.944
  63.800         67.50	     9.000
  63.820         81.67	     9.899
  63.840        104.17	    11.180
  63.860         91.67	    10.488
  63.880         65.00	     8.832
  63.900         42.50	     7.141
  63.920         51.67	     7.874
  63.940         53.33	     8.000
  63.960         65.83	     8.888
  63.980         95.00	    10.677
  64.000        113.33	    11.662
  64.020        120.00	    12.000
  64.040        109.17	    11.446
  64.060         77.50	     9.644
  64.080         65.00	     8.832
  64.100         59.17	     8.426
  64.120         60.00	     8.485
  64.140         58.33	     8.367
  64.160         49.17	     7.681
  64.180         68.33	     9.055
  64.200         75.83	     9.539
  64.220         70.83	     9.220
  64.240         49.17	     7.681
  64.260         48.33	     7.616
  64.280         38.33	     6.782
  64.300         42.50	     7.141
  64.320         39.17	     6.856
  64.340         50.00	     7.746
  64.360         40.00	     6.928
  64.380         50.83	     7.810
  64.400         42.50	     7.141
  64.420         37.50	     6.708
  64.440         43.33	     7.211
  64.460         41.67	     7.071
  64.480         37.50	     6.708
  64.500         34.17	     6.403
  64.520         34.17	     6.403
  64.540         37.50	     6.708
  64.560         45.00	     7.348
  64.580         35.83	     6.557
  64.600         35.83	     6.557
  64.620         38.33	     6.782
  64.640         35.83	     6.557
  64.660         37.50	     6.708
  64.680         30.00	     6.000
  64.700         26.67	     5.657
  64.720         40.00	     6.928
  64.740         40.83	     7.000
  64.760         31.67	     6.164
  64.780         37.50	     6.708
  64.800         37.50	     6.708
  64.820         41.67	     7.071
  64.840         35.83	     6.557
  64.860         30.83	     6.083
  64.880         40.00	     6.928
  64.900         40.83	     7.000
  64.920         35.83	     6.557
  64.940         44.17	     7.280
  64.960         60.83	     8.544
  64.980         55.83	     8.185
  65.000         48.33	     7.616
