
Filename:
	C:\Program Files\Thermo Electron\WinXRD\Datafiles\F_HERMAN\FIEN\13_2_AUG_P_RT.raw

File Created:
	January 23, 2019 - 02:37 PM

Specimen Id:
	13.2 AUG  SUPPORT P FT

Specimen Name:
	

Specimen Description:
	

Comment:
Scan Type: 2Theta Scan
Start Angle: 1 deg.
Stop Angle: 65 deg.
Num Points: 3201
Step Size: 0.02 deg.
Scan Rate: 1.000000
Scan Mode: Continuous
Wavelength: 1.540562
\Kalpha1: 1.540562	\Kalpha2: 1.544390	\Kbeta: 1.392218

Optics:
		Detector:
			 Type: Fixed Slits
		Tube: 
			 Type: Fixed Slits


Datas:
 Pos [deg]       Rate [CPS]      ESD [-]

Range 1 ---> Iteration 1
   1.000       1025.00	    35.071
   1.020        671.67	    28.390
   1.040        515.83	    24.880
   1.060        584.17	    26.476
   1.080        513.33	    24.819
   1.100        512.50	    24.799
   1.120        474.17	    23.854
   1.140        441.67	    23.022
   1.160        450.83	    23.259
   1.180        400.83	    21.932
   1.200        385.83	    21.517
   1.220        373.33	    21.166
   1.240        343.33	    20.298
   1.260        395.83	    21.794
   1.280        451.67	    23.281
   1.300        550.83	    25.710
   1.320        750.00	    30.000
   1.340        832.50	    31.607
   1.360       1006.67	    34.756
   1.380       1368.33	    40.522
   1.400       1413.33	    41.183
   1.420       1400.00	    40.988
   1.440       1299.17	    39.484
   1.460       1265.83	    38.974
   1.480       1166.67	    37.417
   1.500       1222.50	    38.301
   1.520       1189.17	    37.776
   1.540       1121.67	    36.688
   1.560       1075.83	    35.930
   1.580       1082.50	    36.042
   1.600       1065.83	    35.763
   1.620        996.67	    34.583
   1.640       1012.50	    34.857
   1.660        920.00	    33.226
   1.680        885.00	    32.588
   1.700        807.50	    31.129
   1.720        720.83	    29.411
   1.740        738.33	    29.766
   1.760        723.33	    29.462
   1.780        668.33	    28.320
   1.800        609.17	    27.037
   1.820        610.00	    27.055
   1.840        540.00	    25.456
   1.860        539.17	    25.436
   1.880        513.33	    24.819
   1.900        530.00	    25.219
   1.920        503.33	    24.576
   1.940        481.67	    24.042
   1.960        470.83	    23.770
   1.980        437.50	    22.913
   2.000        466.67	    23.664
   2.020        398.33	    21.863
   2.040        454.17	    23.345
   2.060        495.00	    24.372
   2.080        436.67	    22.891
   2.100        442.50	    23.043
   2.120        397.50	    21.840
   2.140        403.33	    22.000
   2.160        397.50	    21.840
   2.180        405.83	    22.068
   2.200        371.67	    21.119
   2.220        389.17	    21.610
   2.240        365.00	    20.928
   2.260        367.50	    21.000
   2.280        375.00	    21.213
   2.300        375.83	    21.237
   2.320        384.17	    21.471
   2.340        333.33	    20.000
   2.360        355.83	    20.664
   2.380        321.67	    19.647
   2.400        338.33	    20.149
   2.420        351.67	    20.543
   2.440        329.17	    19.875
   2.460        365.83	    20.952
   2.480        321.67	    19.647
   2.500        311.67	    19.339
   2.520        314.17	    19.416
   2.540        327.50	    19.824
   2.560        335.00	    20.050
   2.580        285.00	    18.493
   2.600        293.33	    18.762
   2.620        274.17	    18.138
   2.640        290.83	    18.682
   2.660        317.50	    19.519
   2.680        293.33	    18.762
   2.700        300.00	    18.974
   2.720        298.33	    18.921
   2.740        321.67	    19.647
   2.760        307.50	    19.209
   2.780        279.17	    18.303
   2.800        274.17	    18.138
   2.820        305.00	    19.131
   2.840        244.17	    17.117
   2.860        295.00	    18.815
   2.880        277.50	    18.248
   2.900        245.83	    17.176
   2.920        273.33	    18.111
   2.940        293.33	    18.762
   2.960        249.17	    17.292
   2.980        251.67	    17.378
   3.000        265.00	    17.833
   3.020        234.17	    16.763
   3.040        231.67	    16.673
   3.060        266.67	    17.889
   3.080        247.50	    17.234
   3.100        235.83	    16.823
   3.120        225.83	    16.462
   3.140        225.83	    16.462
   3.160        239.17	    16.941
   3.180        236.67	    16.852
   3.200        245.00	    17.146
   3.220        215.83	    16.093
   3.240        215.00	    16.062
   3.260        245.00	    17.146
   3.280        214.17	    16.031
   3.300        243.33	    17.088
   3.320        254.17	    17.464
   3.340        225.83	    16.462
   3.360        225.83	    16.462
   3.380        222.50	    16.340
   3.400        194.17	    15.264
   3.420        214.17	    16.031
   3.440        218.33	    16.186
   3.460        225.00	    16.432
   3.480        221.67	    16.310
   3.500        217.50	    16.155
   3.520        194.17	    15.264
   3.540        256.67	    17.550
   3.560        240.83	    17.000
   3.580        202.50	    15.588
   3.600        190.83	    15.133
   3.620        193.33	    15.232
   3.640        221.67	    16.310
   3.660        209.17	    15.843
   3.680        208.33	    15.811
   3.700        216.67	    16.125
   3.720        180.00	    14.697
   3.740        210.00	    15.875
   3.760        191.67	    15.166
   3.780        208.33	    15.811
   3.800        190.00	    15.100
   3.820        210.83	    15.906
   3.840        216.67	    16.125
   3.860        198.33	    15.427
   3.880        192.50	    15.199
   3.900        178.33	    14.629
   3.920        186.67	    14.967
   3.940        182.50	    14.799
   3.960        174.17	    14.457
   3.980        205.83	    15.716
   4.000        180.00	    14.697
   4.020        206.67	    15.748
   4.040        197.50	    15.395
   4.060        172.50	    14.387
   4.080        187.50	    15.000
   4.100        182.50	    14.799
   4.120        158.33	    13.784
   4.140        166.67	    14.142
   4.160        171.67	    14.353
   4.180        173.33	    14.422
   4.200        179.17	    14.663
   4.220        167.50	    14.177
   4.240        171.67	    14.353
   4.260        170.83	    14.318
   4.280        154.17	    13.601
   4.300        165.83	    14.107
   4.320        182.50	    14.799
   4.340        171.67	    14.353
   4.360        144.17	    13.153
   4.380        170.83	    14.318
   4.400        153.33	    13.565
   4.420        160.00	    13.856
   4.440        155.83	    13.675
   4.460        153.33	    13.565
   4.480        148.33	    13.342
   4.500        150.00	    13.416
   4.520        175.00	    14.491
   4.540        148.33	    13.342
   4.560        174.17	    14.457
   4.580        163.33	    14.000
   4.600        148.33	    13.342
   4.620        161.67	    13.928
   4.640        158.33	    13.784
   4.660        156.67	    13.711
   4.680        160.83	    13.892
   4.700        177.50	    14.595
   4.720        162.50	    13.964
   4.740        155.83	    13.675
   4.760        146.67	    13.266
   4.780        142.50	    13.077
   4.800        149.17	    13.379
   4.820        115.83	    11.790
   4.840        153.33	    13.565
   4.860        134.17	    12.689
   4.880        144.17	    13.153
   4.900        155.00	    13.638
   4.920        141.67	    13.038
   4.940        144.17	    13.153
   4.960        140.83	    13.000
   4.980        140.00	    12.961
   5.000        146.67	    13.266
   5.020        149.17	    13.379
   5.040        151.67	    13.491
   5.060        142.50	    13.077
   5.080        135.83	    12.767
   5.100        160.00	    13.856
   5.120        130.83	    12.530
   5.140        135.00	    12.728
   5.160        132.50	    12.610
   5.180        139.17	    12.923
   5.200        153.33	    13.565
   5.220        125.00	    12.247
   5.240        151.67	    13.491
   5.260        119.17	    11.958
   5.280        166.67	    14.142
   5.300        122.50	    12.124
   5.320        122.50	    12.124
   5.340        147.50	    13.304
   5.360        139.17	    12.923
   5.380        104.17	    11.180
   5.400        119.17	    11.958
   5.420        119.17	    11.958
   5.440        135.83	    12.767
   5.460        141.67	    13.038
   5.480        140.00	    12.961
   5.500        133.33	    12.649
   5.520        133.33	    12.649
   5.540        115.83	    11.790
   5.560        150.83	    13.454
   5.580        127.50	    12.369
   5.600        128.33	    12.410
   5.620        119.17	    11.958
   5.640        140.00	    12.961
   5.660        127.50	    12.369
   5.680        128.33	    12.410
   5.700        132.50	    12.610
   5.720        123.33	    12.166
   5.740        125.83	    12.288
   5.760        127.50	    12.369
   5.780        132.50	    12.610
   5.800        143.33	    13.115
   5.820        127.50	    12.369
   5.840        136.67	    12.806
   5.860        115.83	    11.790
   5.880        132.50	    12.610
   5.900        128.33	    12.410
   5.920        147.50	    13.304
   5.940        166.67	    14.142
   5.960        155.00	    13.638
   5.980        146.67	    13.266
   6.000        170.00	    14.283
   6.020        215.00	    16.062
   6.040        195.00	    15.297
   6.060        213.33	    16.000
   6.080        231.67	    16.673
   6.100        238.33	    16.912
   6.120        255.00	    17.493
   6.140        281.67	    18.385
   6.160        282.50	    18.412
   6.180        299.17	    18.947
   6.200        291.67	    18.708
   6.220        285.00	    18.493
   6.240        269.17	    17.972
   6.260        247.50	    17.234
   6.280        208.33	    15.811
   6.300        165.00	    14.071
   6.320        147.50	    13.304
   6.340        123.33	    12.166
   6.360        132.50	    12.610
   6.380        145.00	    13.191
   6.400        122.50	    12.124
   6.420        138.33	    12.884
   6.440        112.50	    11.619
   6.460        114.17	    11.705
   6.480        115.00	    11.747
   6.500        110.83	    11.533
   6.520        110.00	    11.489
   6.540        108.33	    11.402
   6.560        115.00	    11.747
   6.580        123.33	    12.166
   6.600        104.17	    11.180
   6.620         97.50	    10.817
   6.640        123.33	    12.166
   6.660        105.83	    11.269
   6.680        108.33	    11.402
   6.700        107.50	    11.358
   6.720        130.00	    12.490
   6.740        125.83	    12.288
   6.760        110.83	    11.533
   6.780        107.50	    11.358
   6.800        105.00	    11.225
   6.820        114.17	    11.705
   6.840        116.67	    11.832
   6.860        124.17	    12.207
   6.880        113.33	    11.662
   6.900        105.00	    11.225
   6.920        106.67	    11.314
   6.940        120.00	    12.000
   6.960        104.17	    11.180
   6.980        103.33	    11.136
   7.000        110.00	    11.489
   7.020        108.33	    11.402
   7.040         98.33	    10.863
   7.060        110.83	    11.533
   7.080         95.00	    10.677
   7.100        101.67	    11.045
   7.120         96.67	    10.770
   7.140        108.33	    11.402
   7.160        111.67	    11.576
   7.180         92.50	    10.536
   7.200         83.33	    10.000
   7.220        120.00	    12.000
   7.240         89.17	    10.344
   7.260         75.83	     9.539
   7.280        108.33	    11.402
   7.300         95.00	    10.677
   7.320        103.33	    11.136
   7.340        111.67	    11.576
   7.360         99.17	    10.909
   7.380        107.50	    11.358
   7.400         80.83	     9.849
   7.420        101.67	    11.045
   7.440        104.17	    11.180
   7.460         99.17	    10.909
   7.480         96.67	    10.770
   7.500         94.17	    10.630
   7.520         90.83	    10.440
   7.540         78.33	     9.695
   7.560         95.00	    10.677
   7.580        105.00	    11.225
   7.600         90.83	    10.440
   7.620         91.67	    10.488
   7.640         92.50	    10.536
   7.660         81.67	     9.899
   7.680         96.67	    10.770
   7.700         91.67	    10.488
   7.720         95.00	    10.677
   7.740         84.17	    10.050
   7.760         82.50	     9.950
   7.780         87.50	    10.247
   7.800         90.83	    10.440
   7.820         97.50	    10.817
   7.840         91.67	    10.488
   7.860         90.83	    10.440
   7.880         86.67	    10.198
   7.900         84.17	    10.050
   7.920        104.17	    11.180
   7.940         76.67	     9.592
   7.960        100.00	    10.954
   7.980         96.67	    10.770
   8.000         90.83	    10.440
   8.020         81.67	     9.899
   8.040         85.83	    10.149
   8.060         93.33	    10.583
   8.080        100.83	    11.000
   8.100         85.00	    10.100
   8.120         80.00	     9.798
   8.140         85.00	    10.100
   8.160         97.50	    10.817
   8.180         89.17	    10.344
   8.200         90.00	    10.392
   8.220         86.67	    10.198
   8.240         80.00	     9.798
   8.260         75.00	     9.487
   8.280         71.67	     9.274
   8.300         91.67	    10.488
   8.320         86.67	    10.198
   8.340        102.50	    11.091
   8.360         78.33	     9.695
   8.380         81.67	     9.899
   8.400         76.67	     9.592
   8.420         93.33	    10.583
   8.440         83.33	    10.000
   8.460         76.67	     9.592
   8.480         89.17	    10.344
   8.500        104.17	    11.180
   8.520        119.17	    11.958
   8.540         97.50	    10.817
   8.560         98.33	    10.863
   8.580         99.17	    10.909
   8.600        102.50	    11.091
   8.620        120.83	    12.042
   8.640        117.50	    11.874
   8.660        125.83	    12.288
   8.680        133.33	    12.649
   8.700        165.83	    14.107
   8.720        181.67	    14.765
   8.740        199.17	    15.460
   8.760        205.00	    15.684
   8.780        267.50	    17.916
   8.800        338.33	    20.149
   8.820        355.00	    20.640
   8.840        373.33	    21.166
   8.860        477.50	    23.937
   8.880        599.17	    26.814
   8.900        586.67	    26.533
   8.920        445.83	    23.130
   8.940        271.67	    18.055
   8.960        167.50	    14.177
   8.980        120.00	    12.000
   9.000        100.00	    10.954
   9.020        121.67	    12.083
   9.040         97.50	    10.817
   9.060        110.83	    11.533
   9.080        104.17	    11.180
   9.100        105.00	    11.225
   9.120        100.83	    11.000
   9.140         96.67	    10.770
   9.160        103.33	    11.136
   9.180        112.50	    11.619
   9.200        106.67	    11.314
   9.220         83.33	    10.000
   9.240         79.17	     9.747
   9.260         82.50	     9.950
   9.280         78.33	     9.695
   9.300         80.00	     9.798
   9.320         72.50	     9.327
   9.340        100.83	    11.000
   9.360         79.17	     9.747
   9.380         70.83	     9.220
   9.400         93.33	    10.583
   9.420         93.33	    10.583
   9.440         97.50	    10.817
   9.460        109.17	    11.446
   9.480        113.33	    11.662
   9.500         89.17	    10.344
   9.520         84.17	    10.050
   9.540         83.33	    10.000
   9.560         88.33	    10.296
   9.580         75.83	     9.539
   9.600         90.00	    10.392
   9.620         67.50	     9.000
   9.640         72.50	     9.327
   9.660         86.67	    10.198
   9.680         76.67	     9.592
   9.700         69.17	     9.110
   9.720         60.83	     8.544
   9.740         75.00	     9.487
   9.760         72.50	     9.327
   9.780         75.00	     9.487
   9.800         65.00	     8.832
   9.820         83.33	    10.000
   9.840         79.17	     9.747
   9.860         81.67	     9.899
   9.880         69.17	     9.110
   9.900         50.83	     7.810
   9.920         80.00	     9.798
   9.940         66.67	     8.944
   9.960         61.67	     8.602
   9.980         73.33	     9.381
  10.000         63.33	     8.718
  10.020         72.50	     9.327
  10.040         66.67	     8.944
  10.060         69.17	     9.110
  10.080         64.17	     8.775
  10.100         62.50	     8.660
  10.120         72.50	     9.327
  10.140         72.50	     9.327
  10.160         72.50	     9.327
  10.180         67.50	     9.000
  10.200         62.50	     8.660
  10.220         75.83	     9.539
  10.240         60.00	     8.485
  10.260         79.17	     9.747
  10.280         55.83	     8.185
  10.300         65.83	     8.888
  10.320         59.17	     8.426
  10.340         75.83	     9.539
  10.360         61.67	     8.602
  10.380         62.50	     8.660
  10.400         83.33	    10.000
  10.420         94.17	    10.630
  10.440         92.50	    10.536
  10.460        133.33	    12.649
  10.480        165.00	    14.071
  10.500        141.67	    13.038
  10.520        160.00	    13.856
  10.540        210.83	    15.906
  10.560        174.17	    14.457
  10.580        130.83	    12.530
  10.600        105.00	    11.225
  10.620         72.50	     9.327
  10.640         68.33	     9.055
  10.660         85.83	    10.149
  10.680         49.17	     7.681
  10.700         57.50	     8.307
  10.720         64.17	     8.775
  10.740         65.00	     8.832
  10.760         67.50	     9.000
  10.780         63.33	     8.718
  10.800         65.83	     8.888
  10.820         72.50	     9.327
  10.840         60.00	     8.485
  10.860         55.83	     8.185
  10.880         64.17	     8.775
  10.900         59.17	     8.426
  10.920         65.83	     8.888
  10.940         58.33	     8.367
  10.960         67.50	     9.000
  10.980         55.83	     8.185
  11.000         74.17	     9.434
  11.020         61.67	     8.602
  11.040         60.00	     8.485
  11.060         63.33	     8.718
  11.080         59.17	     8.426
  11.100         66.67	     8.944
  11.120         60.83	     8.544
  11.140         63.33	     8.718
  11.160         61.67	     8.602
  11.180         70.00	     9.165
  11.200         68.33	     9.055
  11.220         62.50	     8.660
  11.240         65.83	     8.888
  11.260         63.33	     8.718
  11.280         49.17	     7.681
  11.300         66.67	     8.944
  11.320         63.33	     8.718
  11.340         78.33	     9.695
  11.360         62.50	     8.660
  11.380         67.50	     9.000
  11.400         67.50	     9.000
  11.420         60.00	     8.485
  11.440         54.17	     8.062
  11.460         72.50	     9.327
  11.480         59.17	     8.426
  11.500         62.50	     8.660
  11.520         53.33	     8.000
  11.540         66.67	     8.944
  11.560         59.17	     8.426
  11.580         56.67	     8.246
  11.600         53.33	     8.000
  11.620         57.50	     8.307
  11.640         75.83	     9.539
  11.660         70.00	     9.165
  11.680         60.83	     8.544
  11.700         65.83	     8.888
  11.720         52.50	     7.937
  11.740         60.83	     8.544
  11.760         62.50	     8.660
  11.780         70.00	     9.165
  11.800         57.50	     8.307
  11.820         59.17	     8.426
  11.840         52.50	     7.937
  11.860         55.83	     8.185
  11.880         75.00	     9.487
  11.900         67.50	     9.000
  11.920         63.33	     8.718
  11.940         65.83	     8.888
  11.960         90.00	    10.392
  11.980         64.17	     8.775
  12.000         90.00	    10.392
  12.020         84.17	    10.050
  12.040         70.00	     9.165
  12.060         87.50	    10.247
  12.080        110.83	    11.533
  12.100        132.50	    12.610
  12.120        153.33	    13.565
  12.140        207.50	    15.780
  12.160        239.17	    16.941
  12.180        284.17	    18.466
  12.200        350.00	    20.494
  12.220        339.17	    20.174
  12.240        267.50	    17.916
  12.260        191.67	    15.166
  12.280        158.33	    13.784
  12.300        158.33	    13.784
  12.320        146.67	    13.266
  12.340        157.50	    13.748
  12.360        160.00	    13.856
  12.380        152.50	    13.528
  12.400        140.83	    13.000
  12.420        165.00	    14.071
  12.440        188.33	    15.033
  12.460        201.67	    15.556
  12.480        249.17	    17.292
  12.500        283.33	    18.439
  12.520        270.00	    18.000
  12.540        230.00	    16.613
  12.560        202.50	    15.588
  12.580        105.00	    11.225
  12.600         72.50	     9.327
  12.620         81.67	     9.899
  12.640         67.50	     9.000
  12.660         75.83	     9.539
  12.680         68.33	     9.055
  12.700         68.33	     9.055
  12.720         69.17	     9.110
  12.740         70.83	     9.220
  12.760         58.33	     8.367
  12.780         62.50	     8.660
  12.800         70.00	     9.165
  12.820         70.00	     9.165
  12.840         73.33	     9.381
  12.860         53.33	     8.000
  12.880         59.17	     8.426
  12.900         75.00	     9.487
  12.920         67.50	     9.000
  12.940         51.67	     7.874
  12.960         51.67	     7.874
  12.980         65.83	     8.888
  13.000         60.83	     8.544
  13.020         62.50	     8.660
  13.040         54.17	     8.062
  13.060         62.50	     8.660
  13.080         65.83	     8.888
  13.100         53.33	     8.000
  13.120         59.17	     8.426
  13.140         62.50	     8.660
  13.160         51.67	     7.874
  13.180         55.00	     8.124
  13.200         73.33	     9.381
  13.220         59.17	     8.426
  13.240         58.33	     8.367
  13.260         66.67	     8.944
  13.280         56.67	     8.246
  13.300         58.33	     8.367
  13.320         61.67	     8.602
  13.340         60.83	     8.544
  13.360         45.83	     7.416
  13.380         56.67	     8.246
  13.400         76.67	     9.592
  13.420         69.17	     9.110
  13.440         62.50	     8.660
  13.460         64.17	     8.775
  13.480         49.17	     7.681
  13.500         56.67	     8.246
  13.520         59.17	     8.426
  13.540         56.67	     8.246
  13.560         61.67	     8.602
  13.580         65.00	     8.832
  13.600         77.50	     9.644
  13.620         96.67	    10.770
  13.640         67.50	     9.000
  13.660         81.67	     9.899
  13.680         74.17	     9.434
  13.700         67.50	     9.000
  13.720         65.83	     8.888
  13.740         49.17	     7.681
  13.760         77.50	     9.644
  13.780         63.33	     8.718
  13.800         69.17	     9.110
  13.820         85.00	    10.100
  13.840         80.83	     9.849
  13.860         95.00	    10.677
  13.880         95.83	    10.724
  13.900         85.00	    10.100
  13.920         80.00	     9.798
  13.940         69.17	     9.110
  13.960         64.17	     8.775
  13.980         66.67	     8.944
  14.000         58.33	     8.367
  14.020         54.17	     8.062
  14.040         61.67	     8.602
  14.060         67.50	     9.000
  14.080         58.33	     8.367
  14.100         43.33	     7.211
  14.120         43.33	     7.211
  14.140         54.17	     8.062
  14.160         60.83	     8.544
  14.180         50.00	     7.746
  14.200         57.50	     8.307
  14.220         54.17	     8.062
  14.240         50.00	     7.746
  14.260         41.67	     7.071
  14.280         40.83	     7.000
  14.300         45.83	     7.416
  14.320         62.50	     8.660
  14.340         44.17	     7.280
  14.360         48.33	     7.616
  14.380         55.83	     8.185
  14.400         55.83	     8.185
  14.420         51.67	     7.874
  14.440         55.83	     8.185
  14.460         45.83	     7.416
  14.480         59.17	     8.426
  14.500         69.17	     9.110
  14.520         45.00	     7.348
  14.540         45.83	     7.416
  14.560         55.83	     8.185
  14.580         54.17	     8.062
  14.600         48.33	     7.616
  14.620         54.17	     8.062
  14.640         50.00	     7.746
  14.660         50.00	     7.746
  14.680         52.50	     7.937
  14.700         41.67	     7.071
  14.720         42.50	     7.141
  14.740         47.50	     7.550
  14.760         51.67	     7.874
  14.780         55.00	     8.124
  14.800         46.67	     7.483
  14.820         40.00	     6.928
  14.840         52.50	     7.937
  14.860         47.50	     7.550
  14.880         41.67	     7.071
  14.900         55.00	     8.124
  14.920         46.67	     7.483
  14.940         65.00	     8.832
  14.960         67.50	     9.000
  14.980         76.67	     9.592
  15.000         72.50	     9.327
  15.020         70.00	     9.165
  15.040         50.83	     7.810
  15.060         51.67	     7.874
  15.080         50.00	     7.746
  15.100         57.50	     8.307
  15.120         55.00	     8.124
  15.140         59.17	     8.426
  15.160         58.33	     8.367
  15.180         65.00	     8.832
  15.200         45.00	     7.348
  15.220         72.50	     9.327
  15.240         51.67	     7.874
  15.260         49.17	     7.681
  15.280         51.67	     7.874
  15.300         60.00	     8.485
  15.320         47.50	     7.550
  15.340         47.50	     7.550
  15.360         53.33	     8.000
  15.380         57.50	     8.307
  15.400         40.83	     7.000
  15.420         50.83	     7.810
  15.440         43.33	     7.211
  15.460         41.67	     7.071
  15.480         46.67	     7.483
  15.500         40.00	     6.928
  15.520         52.50	     7.937
  15.540         50.83	     7.810
  15.560         39.17	     6.856
  15.580         32.50	     6.245
  15.600         51.67	     7.874
  15.620         54.17	     8.062
  15.640         50.00	     7.746
  15.660         50.83	     7.810
  15.680         47.50	     7.550
  15.700         57.50	     8.307
  15.720         49.17	     7.681
  15.740         49.17	     7.681
  15.760         59.17	     8.426
  15.780         45.00	     7.348
  15.800         48.33	     7.616
  15.820         63.33	     8.718
  15.840         60.83	     8.544
  15.860         46.67	     7.483
  15.880         57.50	     8.307
  15.900         53.33	     8.000
  15.920         46.67	     7.483
  15.940         57.50	     8.307
  15.960         41.67	     7.071
  15.980         46.67	     7.483
  16.000         56.67	     8.246
  16.020         45.83	     7.416
  16.040         39.17	     6.856
  16.060         57.50	     8.307
  16.080         50.83	     7.810
  16.100         41.67	     7.071
  16.120         45.00	     7.348
  16.140         41.67	     7.071
  16.160         35.00	     6.481
  16.180         39.17	     6.856
  16.200         43.33	     7.211
  16.220         46.67	     7.483
  16.240         54.17	     8.062
  16.260         47.50	     7.550
  16.280         58.33	     8.367
  16.300         55.00	     8.124
  16.320         46.67	     7.483
  16.340         42.50	     7.141
  16.360         39.17	     6.856
  16.380         41.67	     7.071
  16.400         44.17	     7.280
  16.420         42.50	     7.141
  16.440         46.67	     7.483
  16.460         47.50	     7.550
  16.480         63.33	     8.718
  16.500         52.50	     7.937
  16.520         37.50	     6.708
  16.540         54.17	     8.062
  16.560         40.00	     6.928
  16.580         42.50	     7.141
  16.600         43.33	     7.211
  16.620         47.50	     7.550
  16.640         49.17	     7.681
  16.660         45.83	     7.416
  16.680         42.50	     7.141
  16.700         40.83	     7.000
  16.720         51.67	     7.874
  16.740         50.00	     7.746
  16.760         42.50	     7.141
  16.780         55.83	     8.185
  16.800         50.00	     7.746
  16.820         49.17	     7.681
  16.840         47.50	     7.550
  16.860         38.33	     6.782
  16.880         48.33	     7.616
  16.900         50.00	     7.746
  16.920         37.50	     6.708
  16.940         47.50	     7.550
  16.960         59.17	     8.426
  16.980         49.17	     7.681
  17.000         56.67	     8.246
  17.020         46.67	     7.483
  17.040         42.50	     7.141
  17.060         41.67	     7.071
  17.080         43.33	     7.211
  17.100         48.33	     7.616
  17.120         49.17	     7.681
  17.140         54.17	     8.062
  17.160         49.17	     7.681
  17.180         46.67	     7.483
  17.200         50.83	     7.810
  17.220         48.33	     7.616
  17.240         41.67	     7.071
  17.260         39.17	     6.856
  17.280         50.83	     7.810
  17.300         50.00	     7.746
  17.320         54.17	     8.062
  17.340         45.83	     7.416
  17.360         53.33	     8.000
  17.380         55.83	     8.185
  17.400         40.00	     6.928
  17.420         54.17	     8.062
  17.440         46.67	     7.483
  17.460         36.67	     6.633
  17.480         52.50	     7.937
  17.500         65.00	     8.832
  17.520         50.83	     7.810
  17.540         45.00	     7.348
  17.560         44.17	     7.280
  17.580         52.50	     7.937
  17.600         61.67	     8.602
  17.620         45.83	     7.416
  17.640         50.83	     7.810
  17.660         63.33	     8.718
  17.680         56.67	     8.246
  17.700         76.67	     9.592
  17.720         82.50	     9.950
  17.740        110.00	    11.489
  17.760        113.33	    11.662
  17.780        143.33	    13.115
  17.800        180.00	    14.697
  17.820        222.50	    16.340
  17.840        203.33	    15.620
  17.860        201.67	    15.556
  17.880        172.50	    14.387
  17.900        117.50	    11.874
  17.920         78.33	     9.695
  17.940         58.33	     8.367
  17.960         48.33	     7.616
  17.980         56.67	     8.246
  18.000         58.33	     8.367
  18.020         55.00	     8.124
  18.040         50.00	     7.746
  18.060         46.67	     7.483
  18.080         55.00	     8.124
  18.100         58.33	     8.367
  18.120         45.83	     7.416
  18.140         47.50	     7.550
  18.160         54.17	     8.062
  18.180         54.17	     8.062
  18.200         40.00	     6.928
  18.220         38.33	     6.782
  18.240         48.33	     7.616
  18.260         52.50	     7.937
  18.280         46.67	     7.483
  18.300         61.67	     8.602
  18.320         61.67	     8.602
  18.340         40.83	     7.000
  18.360         52.50	     7.937
  18.380         53.33	     8.000
  18.400         73.33	     9.381
  18.420         67.50	     9.000
  18.440         78.33	     9.695
  18.460         66.67	     8.944
  18.480         96.67	    10.770
  18.500         74.17	     9.434
  18.520         68.33	     9.055
  18.540         76.67	     9.592
  18.560        102.50	    11.091
  18.580        100.83	    11.000
  18.600         75.83	     9.539
  18.620         91.67	    10.488
  18.640         84.17	    10.050
  18.660         66.67	     8.944
  18.680         64.17	     8.775
  18.700         64.17	     8.775
  18.720         72.50	     9.327
  18.740         80.83	     9.849
  18.760        105.83	    11.269
  18.780        105.00	    11.225
  18.800        120.00	    12.000
  18.820        128.33	    12.410
  18.840        111.67	    11.576
  18.860         90.83	    10.440
  18.880         75.00	     9.487
  18.900         65.83	     8.888
  18.920         55.83	     8.185
  18.940         53.33	     8.000
  18.960         50.00	     7.746
  18.980         53.33	     8.000
  19.000         55.00	     8.124
  19.020         55.00	     8.124
  19.040         46.67	     7.483
  19.060         55.83	     8.185
  19.080         40.83	     7.000
  19.100         50.00	     7.746
  19.120         59.17	     8.426
  19.140         45.00	     7.348
  19.160         50.83	     7.810
  19.180         54.17	     8.062
  19.200         55.83	     8.185
  19.220         60.83	     8.544
  19.240         53.33	     8.000
  19.260         61.67	     8.602
  19.280         42.50	     7.141
  19.300         54.17	     8.062
  19.320         62.50	     8.660
  19.340         51.67	     7.874
  19.360         56.67	     8.246
  19.380         53.33	     8.000
  19.400         53.33	     8.000
  19.420         56.67	     8.246
  19.440         57.50	     8.307
  19.460         54.17	     8.062
  19.480         47.50	     7.550
  19.500         60.00	     8.485
  19.520         40.83	     7.000
  19.540         40.00	     6.928
  19.560         54.17	     8.062
  19.580         45.83	     7.416
  19.600         67.50	     9.000
  19.620         56.67	     8.246
  19.640         62.50	     8.660
  19.660         61.67	     8.602
  19.680         60.83	     8.544
  19.700         80.00	     9.798
  19.720         62.50	     8.660
  19.740         71.67	     9.274
  19.760         56.67	     8.246
  19.780         69.17	     9.110
  19.800         89.17	    10.344
  19.820         66.67	     8.944
  19.840         81.67	     9.899
  19.860         70.00	     9.165
  19.880         65.83	     8.888
  19.900         75.83	     9.539
  19.920         68.33	     9.055
  19.940         64.17	     8.775
  19.960         65.83	     8.888
  19.980         53.33	     8.000
  20.000         57.50	     8.307
  20.020         56.67	     8.246
  20.040         48.33	     7.616
  20.060         53.33	     8.000
  20.080         47.50	     7.550
  20.100         62.50	     8.660
  20.120         53.33	     8.000
  20.140         55.83	     8.185
  20.160         58.33	     8.367
  20.180         61.67	     8.602
  20.200         44.17	     7.280
  20.220         47.50	     7.550
  20.240         46.67	     7.483
  20.260         43.33	     7.211
  20.280         52.50	     7.937
  20.300         46.67	     7.483
  20.320         40.83	     7.000
  20.340         50.83	     7.810
  20.360         43.33	     7.211
  20.380         46.67	     7.483
  20.400         47.50	     7.550
  20.420         49.17	     7.681
  20.440         43.33	     7.211
  20.460         54.17	     8.062
  20.480         48.33	     7.616
  20.500         49.17	     7.681
  20.520         55.83	     8.185
  20.540         55.83	     8.185
  20.560         51.67	     7.874
  20.580         53.33	     8.000
  20.600         55.83	     8.185
  20.620         44.17	     7.280
  20.640         53.33	     8.000
  20.660         62.50	     8.660
  20.680         59.17	     8.426
  20.700         70.00	     9.165
  20.720         80.00	     9.798
  20.740         83.33	    10.000
  20.760         90.00	    10.392
  20.780        128.33	    12.410
  20.800        175.83	    14.526
  20.820        273.33	    18.111
  20.840        439.17	    22.956
  20.860        747.50	    29.950
  20.880        693.33	    28.844
  20.900        497.50	    24.434
  20.920        407.50	    22.113
  20.940        305.00	    19.131
  20.960        173.33	    14.422
  20.980        125.00	    12.247
  21.000        137.50	    12.845
  21.020        122.50	    12.124
  21.040        126.67	    12.329
  21.060        105.83	    11.269
  21.080         89.17	    10.344
  21.100         89.17	    10.344
  21.120         65.00	     8.832
  21.140         85.83	    10.149
  21.160         55.00	     8.124
  21.180         52.50	     7.937
  21.200         57.50	     8.307
  21.220         58.33	     8.367
  21.240         49.17	     7.681
  21.260         55.83	     8.185
  21.280         50.00	     7.746
  21.300         55.00	     8.124
  21.320         50.83	     7.810
  21.340         52.50	     7.937
  21.360         50.00	     7.746
  21.380         48.33	     7.616
  21.400         55.00	     8.124
  21.420         52.50	     7.937
  21.440         44.17	     7.280
  21.460         40.83	     7.000
  21.480         44.17	     7.280
  21.500         38.33	     6.782
  21.520         44.17	     7.280
  21.540         52.50	     7.937
  21.560         54.17	     8.062
  21.580         42.50	     7.141
  21.600         51.67	     7.874
  21.620         65.00	     8.832
  21.640         60.00	     8.485
  21.660         50.00	     7.746
  21.680         51.67	     7.874
  21.700         65.00	     8.832
  21.720         50.83	     7.810
  21.740         57.50	     8.307
  21.760         60.83	     8.544
  21.780         45.83	     7.416
  21.800         44.17	     7.280
  21.820         45.00	     7.348
  21.840         45.00	     7.348
  21.860         50.00	     7.746
  21.880         62.50	     8.660
  21.900         56.67	     8.246
  21.920         65.00	     8.832
  21.940         56.67	     8.246
  21.960         60.83	     8.544
  21.980         78.33	     9.695
  22.000        116.67	    11.832
  22.020        107.50	    11.358
  22.040        135.83	    12.767
  22.060        160.00	    13.856
  22.080        174.17	    14.457
  22.100        131.67	    12.570
  22.120        110.00	    11.489
  22.140         99.17	    10.909
  22.160         86.67	    10.198
  22.180         68.33	     9.055
  22.200         61.67	     8.602
  22.220         53.33	     8.000
  22.240         54.17	     8.062
  22.260         55.83	     8.185
  22.280         47.50	     7.550
  22.300         49.17	     7.681
  22.320         62.50	     8.660
  22.340         47.50	     7.550
  22.360         61.67	     8.602
  22.380         58.33	     8.367
  22.400         70.00	     9.165
  22.420         65.83	     8.888
  22.440         64.17	     8.775
  22.460         70.00	     9.165
  22.480         85.83	    10.149
  22.500         80.83	     9.849
  22.520         70.00	     9.165
  22.540         59.17	     8.426
  22.560         65.00	     8.832
  22.580         53.33	     8.000
  22.600         66.67	     8.944
  22.620         39.17	     6.856
  22.640         53.33	     8.000
  22.660         58.33	     8.367
  22.680         55.00	     8.124
  22.700         45.83	     7.416
  22.720         51.67	     7.874
  22.740         55.00	     8.124
  22.760         56.67	     8.246
  22.780         38.33	     6.782
  22.800         61.67	     8.602
  22.820         58.33	     8.367
  22.840         70.00	     9.165
  22.860         68.33	     9.055
  22.880         73.33	     9.381
  22.900         69.17	     9.110
  22.920         74.17	     9.434
  22.940         70.00	     9.165
  22.960         70.83	     9.220
  22.980         71.67	     9.274
  23.000         58.33	     8.367
  23.020         73.33	     9.381
  23.040         81.67	     9.899
  23.060         75.83	     9.539
  23.080         69.17	     9.110
  23.100         66.67	     8.944
  23.120         68.33	     9.055
  23.140         64.17	     8.775
  23.160         46.67	     7.483
  23.180         56.67	     8.246
  23.200         57.50	     8.307
  23.220         61.67	     8.602
  23.240         47.50	     7.550
  23.260         53.33	     8.000
  23.280         53.33	     8.000
  23.300         48.33	     7.616
  23.320         45.83	     7.416
  23.340         49.17	     7.681
  23.360         45.00	     7.348
  23.380         58.33	     8.367
  23.400         60.83	     8.544
  23.420         70.83	     9.220
  23.440         60.83	     8.544
  23.460         71.67	     9.274
  23.480         80.83	     9.849
  23.500        124.17	    12.207
  23.520        150.83	    13.454
  23.540        224.17	    16.401
  23.560        219.17	    16.217
  23.580        164.17	    14.036
  23.600        169.17	    14.248
  23.620        160.00	    13.856
  23.640        125.00	    12.247
  23.660         98.33	    10.863
  23.680         90.00	    10.392
  23.700         82.50	     9.950
  23.720         93.33	    10.583
  23.740         75.00	     9.487
  23.760         70.00	     9.165
  23.780         59.17	     8.426
  23.800         73.33	     9.381
  23.820         64.17	     8.775
  23.840         73.33	     9.381
  23.860         71.67	     9.274
  23.880         66.67	     8.944
  23.900         70.83	     9.220
  23.920         64.17	     8.775
  23.940         62.50	     8.660
  23.960         65.83	     8.888
  23.980         55.00	     8.124
  24.000         84.17	    10.050
  24.020         77.50	     9.644
  24.040         80.00	     9.798
  24.060         77.50	     9.644
  24.080         77.50	     9.644
  24.100         74.17	     9.434
  24.120         72.50	     9.327
  24.140         85.83	    10.149
  24.160        103.33	    11.136
  24.180        133.33	    12.649
  24.200        140.00	    12.961
  24.220        135.83	    12.767
  24.240        135.83	    12.767
  24.260        242.50	    17.059
  24.280        229.17	    16.583
  24.300        167.50	    14.177
  24.320        215.83	    16.093
  24.340        220.83	    16.279
  24.360        167.50	    14.177
  24.380        129.17	    12.450
  24.400        134.17	    12.689
  24.420        115.00	    11.747
  24.440         81.67	     9.899
  24.460         80.00	     9.798
  24.480         90.00	    10.392
  24.500        102.50	    11.091
  24.520        140.00	    12.961
  24.540        170.00	    14.283
  24.560        202.50	    15.588
  24.580        267.50	    17.916
  24.600        272.50	    18.083
  24.620        280.00	    18.330
  24.640        276.67	    18.221
  24.660        286.67	    18.547
  24.680        245.00	    17.146
  24.700        183.33	    14.832
  24.720        153.33	    13.565
  24.740        175.00	    14.491
  24.760        120.00	    12.000
  24.780        111.67	    11.576
  24.800        127.50	    12.369
  24.820        128.33	    12.410
  24.840        124.17	    12.207
  24.860        109.17	    11.446
  24.880         96.67	    10.770
  24.900        118.33	    11.916
  24.920         89.17	    10.344
  24.940         88.33	    10.296
  24.960         85.83	    10.149
  24.980         85.83	    10.149
  25.000         73.33	     9.381
  25.020         85.83	    10.149
  25.040        106.67	    11.314
  25.060        105.00	    11.225
  25.080        115.00	    11.747
  25.100        132.50	    12.610
  25.120        167.50	    14.177
  25.140        195.83	    15.330
  25.160        228.33	    16.553
  25.180        219.17	    16.217
  25.200        197.50	    15.395
  25.220        164.17	    14.036
  25.240        145.83	    13.229
  25.260         99.17	    10.909
  25.280         96.67	    10.770
  25.300         92.50	    10.536
  25.320         72.50	     9.327
  25.340         87.50	    10.247
  25.360         87.50	    10.247
  25.380         95.83	    10.724
  25.400         99.17	    10.909
  25.420        115.83	    11.790
  25.440        112.50	    11.619
  25.460        120.00	    12.000
  25.480        141.67	    13.038
  25.500        134.17	    12.689
  25.520        148.33	    13.342
  25.540        142.50	    13.077
  25.560        131.67	    12.570
  25.580        115.00	    11.747
  25.600        118.33	    11.916
  25.620        142.50	    13.077
  25.640        192.50	    15.199
  25.660        165.00	    14.071
  25.680        122.50	    12.124
  25.700        146.67	    13.266
  25.720        122.50	    12.124
  25.740        103.33	    11.136
  25.760         70.83	     9.220
  25.780         67.50	     9.000
  25.800         65.00	     8.832
  25.820         70.83	     9.220
  25.840         60.83	     8.544
  25.860         52.50	     7.937
  25.880         68.33	     9.055
  25.900         76.67	     9.592
  25.920         56.67	     8.246
  25.940         62.50	     8.660
  25.960         50.83	     7.810
  25.980         62.50	     8.660
  26.000         55.00	     8.124
  26.020         54.17	     8.062
  26.040         60.00	     8.485
  26.060         68.33	     9.055
  26.080         56.67	     8.246
  26.100         40.83	     7.000
  26.120         67.50	     9.000
  26.140         50.83	     7.810
  26.160         74.17	     9.434
  26.180         64.17	     8.775
  26.200         59.17	     8.426
  26.220         81.67	     9.899
  26.240         71.67	     9.274
  26.260         79.17	     9.747
  26.280         69.17	     9.110
  26.300         93.33	    10.583
  26.320         98.33	    10.863
  26.340         92.50	    10.536
  26.360        107.50	    11.358
  26.380        129.17	    12.450
  26.400        116.67	    11.832
  26.420        150.83	    13.454
  26.440        175.83	    14.526
  26.460        179.17	    14.663
  26.480        208.33	    15.811
  26.500        231.67	    16.673
  26.520        257.50	    17.578
  26.540        345.83	    20.372
  26.560        478.33	    23.958
  26.580        701.67	    29.017
  26.600       1203.33	    38.000
  26.620       2000.00	    48.990
  26.640       3074.17	    60.737
  26.660       4075.00	    69.929
  26.680       3539.17	    65.169
  26.700       2340.83	    53.000
  26.720       2253.33	    52.000
  26.740       1879.17	    47.487
  26.760       1110.83	    36.510
  26.780        542.50	    25.515
  26.800        488.33	    24.207
  26.820        515.83	    24.880
  26.840        562.50	    25.981
  26.860        629.17	    27.477
  26.880        667.50	    28.302
  26.900        618.33	    27.240
  26.920        515.83	    24.880
  26.940        474.17	    23.854
  26.960        368.33	    21.024
  26.980        315.00	    19.442
  27.000        264.17	    17.804
  27.020        221.67	    16.310
  27.040        240.00	    16.971
  27.060        270.00	    18.000
  27.080        255.00	    17.493
  27.100        222.50	    16.340
  27.120        186.67	    14.967
  27.140        176.67	    14.560
  27.160        158.33	    13.784
  27.180        141.67	    13.038
  27.200        160.83	    13.892
  27.220        141.67	    13.038
  27.240        127.50	    12.369
  27.260        118.33	    11.916
  27.280        105.00	    11.225
  27.300        101.67	    11.045
  27.320         95.00	    10.677
  27.340         78.33	     9.695
  27.360         99.17	    10.909
  27.380         81.67	     9.899
  27.400        100.83	    11.000
  27.420        119.17	    11.958
  27.440        114.17	    11.705
  27.460        184.17	    14.866
  27.480        255.83	    17.521
  27.500        305.83	    19.157
  27.520        315.83	    19.468
  27.540        320.00	    19.596
  27.560        251.67	    17.378
  27.580        225.83	    16.462
  27.600        188.33	    15.033
  27.620        170.00	    14.283
  27.640        128.33	    12.410
  27.660        100.00	    10.954
  27.680        146.67	    13.266
  27.700        188.33	    15.033
  27.720        208.33	    15.811
  27.740        217.50	    16.155
  27.760        239.17	    16.941
  27.780        246.67	    17.205
  27.800        262.50	    17.748
  27.820        250.83	    17.349
  27.840        240.00	    16.971
  27.860        315.00	    19.442
  27.880        301.67	    19.026
  27.900        429.17	    22.694
  27.920        521.67	    25.020
  27.940        645.00	    27.821
  27.960        880.00	    32.496
  27.980        775.83	    30.512
  28.000        615.00	    27.166
  28.020        543.33	    25.534
  28.040        450.00	    23.238
  28.060        325.83	    19.774
  28.080        227.50	    16.523
  28.100        193.33	    15.232
  28.120        200.00	    15.492
  28.140        200.00	    15.492
  28.160        170.00	    14.283
  28.180        169.17	    14.248
  28.200        133.33	    12.649
  28.220        155.83	    13.675
  28.240        125.00	    12.247
  28.260        131.67	    12.570
  28.280        114.17	    11.705
  28.300        150.00	    13.416
  28.320        149.17	    13.379
  28.340        135.83	    12.767
  28.360        144.17	    13.153
  28.380        121.67	    12.083
  28.400        128.33	    12.410
  28.420         80.83	     9.849
  28.440         73.33	     9.381
  28.460         67.50	     9.000
  28.480         63.33	     8.718
  28.500         70.83	     9.220
  28.520         69.17	     9.110
  28.540         81.67	     9.899
  28.560         75.83	     9.539
  28.580         99.17	    10.909
  28.600        100.83	    11.000
  28.620        112.50	    11.619
  28.640        102.50	    11.091
  28.660        124.17	    12.207
  28.680         95.83	    10.724
  28.700         95.83	    10.724
  28.720        112.50	    11.619
  28.740         73.33	     9.381
  28.760         60.83	     8.544
  28.780         69.17	     9.110
  28.800         65.83	     8.888
  28.820         64.17	     8.775
  28.840         50.00	     7.746
  28.860         58.33	     8.367
  28.880         53.33	     8.000
  28.900         63.33	     8.718
  28.920         51.67	     7.874
  28.940         50.83	     7.810
  28.960         50.83	     7.810
  28.980         53.33	     8.000
  29.000         52.50	     7.937
  29.020         55.00	     8.124
  29.040         49.17	     7.681
  29.060         56.67	     8.246
  29.080         53.33	     8.000
  29.100         46.67	     7.483
  29.120         63.33	     8.718
  29.140         53.33	     8.000
  29.160         50.00	     7.746
  29.180         49.17	     7.681
  29.200         54.17	     8.062
  29.220         80.83	     9.849
  29.240        119.17	    11.958
  29.260        107.50	    11.358
  29.280         69.17	     9.110
  29.300         77.50	     9.644
  29.320         90.00	    10.392
  29.340         81.67	     9.899
  29.360         65.00	     8.832
  29.380         53.33	     8.000
  29.400         59.17	     8.426
  29.420         76.67	     9.592
  29.440         65.00	     8.832
  29.460         77.50	     9.644
  29.480         75.83	     9.539
  29.500         67.50	     9.000
  29.520         75.00	     9.487
  29.540         81.67	     9.899
  29.560         85.83	    10.149
  29.580         70.00	     9.165
  29.600         85.83	    10.149
  29.620         79.17	     9.747
  29.640         71.67	     9.274
  29.660         70.83	     9.220
  29.680         56.67	     8.246
  29.700         75.83	     9.539
  29.720         61.67	     8.602
  29.740         87.50	    10.247
  29.760         86.67	    10.198
  29.780        139.17	    12.923
  29.800        185.83	    14.933
  29.820        227.50	    16.523
  29.840        225.00	    16.432
  29.860        178.33	    14.629
  29.880        170.00	    14.283
  29.900        208.33	    15.811
  29.920        181.67	    14.765
  29.940        160.00	    13.856
  29.960        120.83	    12.042
  29.980        125.00	    12.247
  30.000        120.00	    12.000
  30.020        110.00	    11.489
  30.040         97.50	    10.817
  30.060         91.67	    10.488
  30.080         85.83	    10.149
  30.100        105.00	    11.225
  30.120        110.83	    11.533
  30.140        125.00	    12.247
  30.160        122.50	    12.124
  30.180         93.33	    10.583
  30.200        125.00	    12.247
  30.220        130.00	    12.490
  30.240        127.50	    12.369
  30.260        104.17	    11.180
  30.280         84.17	    10.050
  30.300         76.67	     9.592
  30.320         78.33	     9.695
  30.340         98.33	    10.863
  30.360         72.50	     9.327
  30.380         92.50	    10.536
  30.400         98.33	    10.863
  30.420        114.17	    11.705
  30.440        173.33	    14.422
  30.460        224.17	    16.401
  30.480        218.33	    16.186
  30.500        155.00	    13.638
  30.520        155.83	    13.675
  30.540        140.00	    12.961
  30.560        100.83	    11.000
  30.580         89.17	    10.344
  30.600         85.00	    10.100
  30.620         85.83	    10.149
  30.640         67.50	     9.000
  30.660         55.83	     8.185
  30.680         62.50	     8.660
  30.700         50.00	     7.746
  30.720         78.33	     9.695
  30.740         74.17	     9.434
  30.760         84.17	    10.050
  30.780        110.83	    11.533
  30.800        118.33	    11.916
  30.820        110.83	    11.533
  30.840        100.00	    10.954
  30.860        123.33	    12.166
  30.880        121.67	    12.083
  30.900         96.67	    10.770
  30.920         63.33	     8.718
  30.940         85.83	    10.149
  30.960         77.50	     9.644
  30.980         58.33	     8.367
  31.000         69.17	     9.110
  31.020         81.67	     9.899
  31.040         66.67	     8.944
  31.060         69.17	     9.110
  31.080         51.67	     7.874
  31.100         65.83	     8.888
  31.120         75.83	     9.539
  31.140         84.17	    10.050
  31.160         83.33	    10.000
  31.180         73.33	     9.381
  31.200        100.83	    11.000
  31.220        108.33	    11.402
  31.240        106.67	    11.314
  31.260        117.50	    11.874
  31.280        110.83	    11.533
  31.300        107.50	    11.358
  31.320        100.83	    11.000
  31.340         88.33	    10.296
  31.360         69.17	     9.110
  31.380         80.00	     9.798
  31.400         65.00	     8.832
  31.420         90.00	    10.392
  31.440         88.33	    10.296
  31.460         75.00	     9.487
  31.480         70.00	     9.165
  31.500         66.67	     8.944
  31.520         65.00	     8.832
  31.540         76.67	     9.592
  31.560         84.17	    10.050
  31.580         70.00	     9.165
  31.600         75.00	     9.487
  31.620         73.33	     9.381
  31.640         66.67	     8.944
  31.660         47.50	     7.550
  31.680         47.50	     7.550
  31.700         58.33	     8.367
  31.720         54.17	     8.062
  31.740         48.33	     7.616
  31.760         33.33	     6.325
  31.780         43.33	     7.211
  31.800         45.83	     7.416
  31.820         50.83	     7.810
  31.840         48.33	     7.616
  31.860         45.00	     7.348
  31.880         45.83	     7.416
  31.900         48.33	     7.616
  31.920         59.17	     8.426
  31.940         65.00	     8.832
  31.960         76.67	     9.592
  31.980         65.83	     8.888
  32.000         59.17	     8.426
  32.020         65.00	     8.832
  32.040         67.50	     9.000
  32.060         60.83	     8.544
  32.080         70.00	     9.165
  32.100         70.83	     9.220
  32.120         74.17	     9.434
  32.140         60.00	     8.485
  32.160         50.83	     7.810
  32.180         59.17	     8.426
  32.200         62.50	     8.660
  32.220         58.33	     8.367
  32.240         80.83	     9.849
  32.260        106.67	    11.314
  32.280        103.33	    11.136
  32.300         84.17	    10.050
  32.320         68.33	     9.055
  32.340         82.50	     9.950
  32.360         60.83	     8.544
  32.380         71.67	     9.274
  32.400         60.00	     8.485
  32.420         45.83	     7.416
  32.440         50.00	     7.746
  32.460         41.67	     7.071
  32.480         47.50	     7.550
  32.500         39.17	     6.856
  32.520         49.17	     7.681
  32.540         34.17	     6.403
  32.560         41.67	     7.071
  32.580         47.50	     7.550
  32.600         27.50	     5.745
  32.620         49.17	     7.681
  32.640         43.33	     7.211
  32.660         38.33	     6.782
  32.680         32.50	     6.245
  32.700         31.67	     6.164
  32.720         40.00	     6.928
  32.740         39.17	     6.856
  32.760         35.00	     6.481
  32.780         35.00	     6.481
  32.800         39.17	     6.856
  32.820         38.33	     6.782
  32.840         35.00	     6.481
  32.860         31.67	     6.164
  32.880         38.33	     6.782
  32.900         41.67	     7.071
  32.920         44.17	     7.280
  32.940         48.33	     7.616
  32.960         29.17	     5.916
  32.980         45.83	     7.416
  33.000         50.83	     7.810
  33.020         54.17	     8.062
  33.040         50.83	     7.810
  33.060         61.67	     8.602
  33.080         65.00	     8.832
  33.100        101.67	    11.045
  33.120        118.33	    11.916
  33.140        125.83	    12.288
  33.160         85.83	    10.149
  33.180         71.67	     9.274
  33.200         74.17	     9.434
  33.220         94.17	    10.630
  33.240         60.83	     8.544
  33.260         57.50	     8.307
  33.280         44.17	     7.280
  33.300         32.50	     6.245
  33.320         45.83	     7.416
  33.340         38.33	     6.782
  33.360         37.50	     6.708
  33.380         43.33	     7.211
  33.400         65.83	     8.888
  33.420         45.83	     7.416
  33.440         47.50	     7.550
  33.460         29.17	     5.916
  33.480         42.50	     7.141
  33.500         42.50	     7.141
  33.520         41.67	     7.071
  33.540         41.67	     7.071
  33.560         35.00	     6.481
  33.580         47.50	     7.550
  33.600         35.00	     6.481
  33.620         45.00	     7.348
  33.640         46.67	     7.483
  33.660         35.00	     6.481
  33.680         35.83	     6.557
  33.700         29.17	     5.916
  33.720         34.17	     6.403
  33.740         33.33	     6.325
  33.760         45.00	     7.348
  33.780         36.67	     6.633
  33.800         43.33	     7.211
  33.820         43.33	     7.211
  33.840         45.83	     7.416
  33.860         55.83	     8.185
  33.880         42.50	     7.141
  33.900         60.00	     8.485
  33.920         52.50	     7.937
  33.940         46.67	     7.483
  33.960         64.17	     8.775
  33.980         62.50	     8.660
  34.000         53.33	     8.000
  34.020         50.00	     7.746
  34.040         63.33	     8.718
  34.060         51.67	     7.874
  34.080         40.00	     6.928
  34.100         45.83	     7.416
  34.120         48.33	     7.616
  34.140         42.50	     7.141
  34.160         53.33	     8.000
  34.180         50.00	     7.746
  34.200         53.33	     8.000
  34.220         42.50	     7.141
  34.240         56.67	     8.246
  34.260         45.83	     7.416
  34.280         53.33	     8.000
  34.300         51.67	     7.874
  34.320         52.50	     7.937
  34.340         68.33	     9.055
  34.360         65.00	     8.832
  34.380         62.50	     8.660
  34.400         65.00	     8.832
  34.420         61.67	     8.602
  34.440         65.83	     8.888
  34.460         58.33	     8.367
  34.480         61.67	     8.602
  34.500         65.83	     8.888
  34.520         55.83	     8.185
  34.540         70.83	     9.220
  34.560         90.83	    10.440
  34.580         78.33	     9.695
  34.600         72.50	     9.327
  34.620         78.33	     9.695
  34.640         66.67	     8.944
  34.660         75.83	     9.539
  34.680         65.83	     8.888
  34.700         90.00	    10.392
  34.720         68.33	     9.055
  34.740         67.50	     9.000
  34.760         69.17	     9.110
  34.780         61.67	     8.602
  34.800         75.00	     9.487
  34.820         67.50	     9.000
  34.840         40.83	     7.000
  34.860         72.50	     9.327
  34.880         85.00	    10.100
  34.900         61.67	     8.602
  34.920         84.17	    10.050
  34.940         89.17	    10.344
  34.960         79.17	     9.747
  34.980         95.83	    10.724
  35.000         84.17	    10.050
  35.020         97.50	    10.817
  35.040        107.50	    11.358
  35.060         93.33	    10.583
  35.080         84.17	    10.050
  35.100         93.33	    10.583
  35.120         97.50	    10.817
  35.140         88.33	    10.296
  35.160         74.17	     9.434
  35.180         84.17	    10.050
  35.200         69.17	     9.110
  35.220         86.67	    10.198
  35.240         75.00	     9.487
  35.260         64.17	     8.775
  35.280         65.83	     8.888
  35.300         54.17	     8.062
  35.320         78.33	     9.695
  35.340         80.00	     9.798
  35.360        103.33	    11.136
  35.380        115.00	    11.747
  35.400         85.83	    10.149
  35.420         82.50	     9.950
  35.440         90.83	    10.440
  35.460        114.17	    11.705
  35.480        105.00	    11.225
  35.500         97.50	    10.817
  35.520        100.83	    11.000
  35.540        124.17	    12.207
  35.560        119.17	    11.958
  35.580        152.50	    13.528
  35.600        173.33	    14.422
  35.620        174.17	    14.457
  35.640        145.83	    13.229
  35.660        126.67	    12.329
  35.680        124.17	    12.207
  35.700        113.33	    11.662
  35.720        108.33	    11.402
  35.740         73.33	     9.381
  35.760         62.50	     8.660
  35.780         68.33	     9.055
  35.800         66.67	     8.944
  35.820         56.67	     8.246
  35.840         52.50	     7.937
  35.860         53.33	     8.000
  35.880         47.50	     7.550
  35.900         50.00	     7.746
  35.920         56.67	     8.246
  35.940         60.00	     8.485
  35.960         75.00	     9.487
  35.980         55.83	     8.185
  36.000         63.33	     8.718
  36.020         78.33	     9.695
  36.040         75.00	     9.487
  36.060         60.83	     8.544
  36.080         74.17	     9.434
  36.100         69.17	     9.110
  36.120         82.50	     9.950
  36.140         79.17	     9.747
  36.160         61.67	     8.602
  36.180         64.17	     8.775
  36.200         58.33	     8.367
  36.220         63.33	     8.718
  36.240         58.33	     8.367
  36.260         59.17	     8.426
  36.280         44.17	     7.280
  36.300         46.67	     7.483
  36.320         53.33	     8.000
  36.340         50.00	     7.746
  36.360         58.33	     8.367
  36.380         47.50	     7.550
  36.400         65.83	     8.888
  36.420         66.67	     8.944
  36.440         80.83	     9.849
  36.460         88.33	    10.296
  36.480        102.50	    11.091
  36.500        145.83	    13.229
  36.520        206.67	    15.748
  36.540        335.83	    20.075
  36.560        406.67	    22.091
  36.580        340.00	    20.199
  36.600        260.83	    17.692
  36.620        214.17	    16.031
  36.640        215.00	    16.062
  36.660        217.50	    16.155
  36.680        207.50	    15.780
  36.700        137.50	    12.845
  36.720         89.17	    10.344
  36.740         92.50	    10.536
  36.760        106.67	    11.314
  36.780         86.67	    10.198
  36.800         84.17	    10.050
  36.820         60.83	     8.544
  36.840         65.83	     8.888
  36.860         68.33	     9.055
  36.880         62.50	     8.660
  36.900         60.83	     8.544
  36.920         42.50	     7.141
  36.940         49.17	     7.681
  36.960         50.83	     7.810
  36.980         56.67	     8.246
  37.000         52.50	     7.937
  37.020         45.83	     7.416
  37.040         45.00	     7.348
  37.060         63.33	     8.718
  37.080         54.17	     8.062
  37.100         54.17	     8.062
  37.120         47.50	     7.550
  37.140         54.17	     8.062
  37.160         55.83	     8.185
  37.180         55.83	     8.185
  37.200         52.50	     7.937
  37.220         64.17	     8.775
  37.240         47.50	     7.550
  37.260         51.67	     7.874
  37.280         59.17	     8.426
  37.300         61.67	     8.602
  37.320         58.33	     8.367
  37.340         64.17	     8.775
  37.360         55.83	     8.185
  37.380         59.17	     8.426
  37.400         69.17	     9.110
  37.420         72.50	     9.327
  37.440         63.33	     8.718
  37.460         64.17	     8.775
  37.480         73.33	     9.381
  37.500         76.67	     9.592
  37.520         67.50	     9.000
  37.540         74.17	     9.434
  37.560         69.17	     9.110
  37.580         65.00	     8.832
  37.600         65.00	     8.832
  37.620         62.50	     8.660
  37.640         58.33	     8.367
  37.660         67.50	     9.000
  37.680         60.83	     8.544
  37.700         60.83	     8.544
  37.720         58.33	     8.367
  37.740         55.00	     8.124
  37.760         62.50	     8.660
  37.780         62.50	     8.660
  37.800         47.50	     7.550
  37.820         40.83	     7.000
  37.840         51.67	     7.874
  37.860         42.50	     7.141
  37.880         48.33	     7.616
  37.900         39.17	     6.856
  37.920         36.67	     6.633
  37.940         31.67	     6.164
  37.960         30.83	     6.083
  37.980         39.17	     6.856
  38.000         33.33	     6.325
  38.020         37.50	     6.708
  38.040         40.00	     6.928
  38.060         43.33	     7.211
  38.080         31.67	     6.164
  38.100         49.17	     7.681
  38.120         43.33	     7.211
  38.140         28.33	     5.831
  38.160         41.67	     7.071
  38.180         40.83	     7.000
  38.200         35.00	     6.481
  38.220         36.67	     6.633
  38.240         30.00	     6.000
  38.260         35.83	     6.557
  38.280         35.83	     6.557
  38.300         44.17	     7.280
  38.320         25.83	     5.568
  38.340         31.67	     6.164
  38.360         39.17	     6.856
  38.380         38.33	     6.782
  38.400         30.00	     6.000
  38.420         39.17	     6.856
  38.440         40.00	     6.928
  38.460         41.67	     7.071
  38.480         44.17	     7.280
  38.500         45.00	     7.348
  38.520         43.33	     7.211
  38.540         35.83	     6.557
  38.560         45.83	     7.416
  38.580         42.50	     7.141
  38.600         38.33	     6.782
  38.620         43.33	     7.211
  38.640         45.00	     7.348
  38.660         40.00	     6.928
  38.680         45.00	     7.348
  38.700         45.83	     7.416
  38.720         38.33	     6.782
  38.740         39.17	     6.856
  38.760         31.67	     6.164
  38.780         46.67	     7.483
  38.800         45.83	     7.416
  38.820         48.33	     7.616
  38.840         45.00	     7.348
  38.860         51.67	     7.874
  38.880         48.33	     7.616
  38.900         50.83	     7.810
  38.920         40.83	     7.000
  38.940         49.17	     7.681
  38.960         47.50	     7.550
  38.980         31.67	     6.164
  39.000         37.50	     6.708
  39.020         42.50	     7.141
  39.040         33.33	     6.325
  39.060         44.17	     7.280
  39.080         30.00	     6.000
  39.100         30.00	     6.000
  39.120         42.50	     7.141
  39.140         40.83	     7.000
  39.160         53.33	     8.000
  39.180         36.67	     6.633
  39.200         34.17	     6.403
  39.220         48.33	     7.616
  39.240         51.67	     7.874
  39.260         43.33	     7.211
  39.280         52.50	     7.937
  39.300         62.50	     8.660
  39.320         88.33	    10.296
  39.340         87.50	    10.247
  39.360         55.00	     8.124
  39.380         58.33	     8.367
  39.400         80.00	     9.798
  39.420        128.33	    12.410
  39.440        155.83	    13.675
  39.460        202.50	    15.588
  39.480        265.00	    17.833
  39.500        243.33	    17.088
  39.520        194.17	    15.264
  39.540        150.83	    13.454
  39.560        166.67	    14.142
  39.580        180.00	    14.697
  39.600        160.83	    13.892
  39.620        108.33	    11.402
  39.640         80.00	     9.798
  39.660         65.00	     8.832
  39.680         65.00	     8.832
  39.700         57.50	     8.307
  39.720         51.67	     7.874
  39.740         54.17	     8.062
  39.760         52.50	     7.937
  39.780         48.33	     7.616
  39.800         44.17	     7.280
  39.820         51.67	     7.874
  39.840         42.50	     7.141
  39.860         50.00	     7.746
  39.880         56.67	     8.246
  39.900         50.00	     7.746
  39.920         46.67	     7.483
  39.940         42.50	     7.141
  39.960         48.33	     7.616
  39.980         40.00	     6.928
  40.000         32.50	     6.245
  40.020         45.00	     7.348
  40.040         45.83	     7.416
  40.060         40.00	     6.928
  40.080         57.50	     8.307
  40.100         49.17	     7.681
  40.120         38.33	     6.782
  40.140         32.50	     6.245
  40.160         35.83	     6.557
  40.180         41.67	     7.071
  40.200         58.33	     8.367
  40.220         53.33	     8.000
  40.240         70.00	     9.165
  40.260         85.83	    10.149
  40.280        158.33	    13.784
  40.300        210.83	    15.906
  40.320        171.67	    14.353
  40.340        116.67	    11.832
  40.360         92.50	    10.536
  40.380        115.83	    11.790
  40.400        111.67	    11.576
  40.420        111.67	    11.576
  40.440         82.50	     9.950
  40.460         63.33	     8.718
  40.480         57.50	     8.307
  40.500         60.00	     8.485
  40.520         45.00	     7.348
  40.540         32.50	     6.245
  40.560         35.00	     6.481
  40.580         43.33	     7.211
  40.600         44.17	     7.280
  40.620         46.67	     7.483
  40.640         36.67	     6.633
  40.660         50.83	     7.810
  40.680         39.17	     6.856
  40.700         35.00	     6.481
  40.720         43.33	     7.211
  40.740         50.00	     7.746
  40.760         35.00	     6.481
  40.780         34.17	     6.403
  40.800         47.50	     7.550
  40.820         30.83	     6.083
  40.840         35.83	     6.557
  40.860         41.67	     7.071
  40.880         37.50	     6.708
  40.900         35.83	     6.557
  40.920         43.33	     7.211
  40.940         38.33	     6.782
  40.960         45.83	     7.416
  40.980         46.67	     7.483
  41.000         40.83	     7.000
  41.020         39.17	     6.856
  41.040         38.33	     6.782
  41.060         35.83	     6.557
  41.080         45.00	     7.348
  41.100         35.83	     6.557
  41.120         42.50	     7.141
  41.140         34.17	     6.403
  41.160         45.00	     7.348
  41.180         67.50	     9.000
  41.200         52.50	     7.937
  41.220         61.67	     8.602
  41.240         45.00	     7.348
  41.260         51.67	     7.874
  41.280         47.50	     7.550
  41.300         56.67	     8.246
  41.320         50.00	     7.746
  41.340         55.83	     8.185
  41.360         45.00	     7.348
  41.380         48.33	     7.616
  41.400         52.50	     7.937
  41.420         42.50	     7.141
  41.440         38.33	     6.782
  41.460         57.50	     8.307
  41.480         41.67	     7.071
  41.500         41.67	     7.071
  41.520         47.50	     7.550
  41.540         31.67	     6.164
  41.560         43.33	     7.211
  41.580         40.83	     7.000
  41.600         49.17	     7.681
  41.620         47.50	     7.550
  41.640         58.33	     8.367
  41.660         64.17	     8.775
  41.680         75.00	     9.487
  41.700         73.33	     9.381
  41.720         63.33	     8.718
  41.740         77.50	     9.644
  41.760         66.67	     8.944
  41.780         75.00	     9.487
  41.800         59.17	     8.426
  41.820         67.50	     9.000
  41.840         59.17	     8.426
  41.860         68.33	     9.055
  41.880         62.50	     8.660
  41.900         57.50	     8.307
  41.920         61.67	     8.602
  41.940         55.83	     8.185
  41.960         64.17	     8.775
  41.980         68.33	     9.055
  42.000         72.50	     9.327
  42.020         65.83	     8.888
  42.040         45.00	     7.348
  42.060         58.33	     8.367
  42.080         50.83	     7.810
  42.100         60.83	     8.544
  42.120         45.00	     7.348
  42.140         48.33	     7.616
  42.160         62.50	     8.660
  42.180         55.00	     8.124
  42.200         55.83	     8.185
  42.220         59.17	     8.426
  42.240         47.50	     7.550
  42.260         55.00	     8.124
  42.280         53.33	     8.000
  42.300         50.00	     7.746
  42.320         66.67	     8.944
  42.340         59.17	     8.426
  42.360         63.33	     8.718
  42.380         90.83	    10.440
  42.400         97.50	    10.817
  42.420        116.67	    11.832
  42.440        193.33	    15.232
  42.460        237.50	    16.882
  42.480        240.00	    16.971
  42.500        171.67	    14.353
  42.520        147.50	    13.304
  42.540        150.00	    13.416
  42.560        155.83	    13.675
  42.580        160.83	    13.892
  42.600        150.00	    13.416
  42.620        100.00	    10.954
  42.640         67.50	     9.000
  42.660         75.00	     9.487
  42.680         59.17	     8.426
  42.700         51.67	     7.874
  42.720         59.17	     8.426
  42.740         68.33	     9.055
  42.760         70.83	     9.220
  42.780         50.00	     7.746
  42.800         57.50	     8.307
  42.820         35.83	     6.557
  42.840         62.50	     8.660
  42.860         48.33	     7.616
  42.880         48.33	     7.616
  42.900         49.17	     7.681
  42.920         44.17	     7.280
  42.940         55.83	     8.185
  42.960         51.67	     7.874
  42.980         33.33	     6.325
  43.000         33.33	     6.325
  43.020         39.17	     6.856
  43.040         43.33	     7.211
  43.060         39.17	     6.856
  43.080         46.67	     7.483
  43.100         42.50	     7.141
  43.120         37.50	     6.708
  43.140         45.00	     7.348
  43.160         41.67	     7.071
  43.180         47.50	     7.550
  43.200         47.50	     7.550
  43.220         55.00	     8.124
  43.240         58.33	     8.367
  43.260         60.83	     8.544
  43.280         40.00	     6.928
  43.300         50.83	     7.810
  43.320         44.17	     7.280
  43.340         45.83	     7.416
  43.360         42.50	     7.141
  43.380         51.67	     7.874
  43.400         49.17	     7.681
  43.420         45.00	     7.348
  43.440         52.50	     7.937
  43.460         54.17	     8.062
  43.480         47.50	     7.550
  43.500         62.50	     8.660
  43.520         51.67	     7.874
  43.540         65.83	     8.888
  43.560         65.83	     8.888
  43.580         71.67	     9.274
  43.600         73.33	     9.381
  43.620         71.67	     9.274
  43.640         70.83	     9.220
  43.660         65.83	     8.888
  43.680         69.17	     9.110
  43.700         80.83	     9.849
  43.720         90.83	    10.440
  43.740         75.83	     9.539
  43.760         71.67	     9.274
  43.780         76.67	     9.592
  43.800         70.00	     9.165
  43.820         59.17	     8.426
  43.840         63.33	     8.718
  43.860         51.67	     7.874
  43.880         54.17	     8.062
  43.900         58.33	     8.367
  43.920         60.00	     8.485
  43.940         50.83	     7.810
  43.960         60.00	     8.485
  43.980         54.17	     8.062
  44.000         55.83	     8.185
  44.020         43.33	     7.211
  44.040         51.67	     7.874
  44.060         53.33	     8.000
  44.080         65.83	     8.888
  44.100         58.33	     8.367
  44.120         58.33	     8.367
  44.140         63.33	     8.718
  44.160         67.50	     9.000
  44.180         71.67	     9.274
  44.200         60.00	     8.485
  44.220         80.00	     9.798
  44.240         69.17	     9.110
  44.260         97.50	    10.817
  44.280         85.83	    10.149
  44.300         94.17	    10.630
  44.320         99.17	    10.909
  44.340        119.17	    11.958
  44.360        116.67	    11.832
  44.380         81.67	     9.899
  44.400         98.33	    10.863
  44.420        128.33	    12.410
  44.440        114.17	    11.705
  44.460        135.00	    12.728
  44.480        129.17	    12.450
  44.500         98.33	    10.863
  44.520        117.50	    11.874
  44.540        123.33	    12.166
  44.560        114.17	    11.705
  44.580        100.00	    10.954
  44.600        106.67	    11.314
  44.620         89.17	    10.344
  44.640        105.00	    11.225
  44.660        101.67	    11.045
  44.680         84.17	    10.050
  44.700         79.17	     9.747
  44.720         95.00	    10.677
  44.740         90.00	    10.392
  44.760         68.33	     9.055
  44.780         84.17	    10.050
  44.800         70.83	     9.220
  44.820         65.00	     8.832
  44.840         76.67	     9.592
  44.860         77.50	     9.644
  44.880         65.00	     8.832
  44.900         71.67	     9.274
  44.920         72.50	     9.327
  44.940         85.00	    10.100
  44.960         93.33	    10.583
  44.980         93.33	    10.583
  45.000        100.83	    11.000
  45.020         89.17	    10.344
  45.040        107.50	    11.358
  45.060        108.33	    11.402
  45.080        110.83	    11.533
  45.100        113.33	    11.662
  45.120        101.67	    11.045
  45.140         91.67	    10.488
  45.160         98.33	    10.863
  45.180         84.17	    10.050
  45.200        105.00	    11.225
  45.220         95.00	    10.677
  45.240         95.00	    10.677
  45.260         88.33	    10.296
  45.280         87.50	    10.247
  45.300         76.67	     9.592
  45.320         89.17	    10.344
  45.340         83.33	    10.000
  45.360         91.67	    10.488
  45.380        106.67	    11.314
  45.400        100.00	    10.954
  45.420         99.17	    10.909
  45.440        112.50	    11.619
  45.460        122.50	    12.124
  45.480        141.67	    13.038
  45.500        171.67	    14.353
  45.520        165.00	    14.071
  45.540        172.50	    14.387
  45.560        195.00	    15.297
  45.580        183.33	    14.832
  45.600        193.33	    15.232
  45.620        210.00	    15.875
  45.640        175.83	    14.526
  45.660        166.67	    14.142
  45.680        140.83	    13.000
  45.700        148.33	    13.342
  45.720        125.00	    12.247
  45.740        133.33	    12.649
  45.760        135.83	    12.767
  45.780        167.50	    14.177
  45.800        205.83	    15.716
  45.820        210.83	    15.906
  45.840        163.33	    14.000
  45.860        105.83	    11.269
  45.880         89.17	    10.344
  45.900        111.67	    11.576
  45.920        125.00	    12.247
  45.940        145.00	    13.191
  45.960        107.50	    11.358
  45.980         80.83	     9.849
  46.000         61.67	     8.602
  46.020         54.17	     8.062
  46.040         55.83	     8.185
  46.060         42.50	     7.141
  46.080         40.00	     6.928
  46.100         52.50	     7.937
  46.120         50.00	     7.746
  46.140         54.17	     8.062
  46.160         35.00	     6.481
  46.180         50.83	     7.810
  46.200         45.00	     7.348
  46.220         37.50	     6.708
  46.240         31.67	     6.164
  46.260         38.33	     6.782
  46.280         46.67	     7.483
  46.300         42.50	     7.141
  46.320         40.00	     6.928
  46.340         26.67	     5.657
  46.360         30.00	     6.000
  46.380         35.00	     6.481
  46.400         36.67	     6.633
  46.420         25.83	     5.568
  46.440         45.00	     7.348
  46.460         32.50	     6.245
  46.480         31.67	     6.164
  46.500         39.17	     6.856
  46.520         42.50	     7.141
  46.540         35.00	     6.481
  46.560         31.67	     6.164
  46.580         46.67	     7.483
  46.600         40.83	     7.000
  46.620         48.33	     7.616
  46.640         42.50	     7.141
  46.660         32.50	     6.245
  46.680         35.00	     6.481
  46.700         37.50	     6.708
  46.720         49.17	     7.681
  46.740         45.83	     7.416
  46.760         34.17	     6.403
  46.780         42.50	     7.141
  46.800         31.67	     6.164
  46.820         29.17	     5.916
  46.840         47.50	     7.550
  46.860         50.00	     7.746
  46.880         29.17	     5.916
  46.900         35.83	     6.557
  46.920         44.17	     7.280
  46.940         50.83	     7.810
  46.960         40.83	     7.000
  46.980         35.83	     6.557
  47.000         42.50	     7.141
  47.020         42.50	     7.141
  47.040         54.17	     8.062
  47.060         54.17	     8.062
  47.080         57.50	     8.307
  47.100         55.83	     8.185
  47.120         46.67	     7.483
  47.140         61.67	     8.602
  47.160         56.67	     8.246
  47.180         42.50	     7.141
  47.200         76.67	     9.592
  47.220         49.17	     7.681
  47.240         54.17	     8.062
  47.260         48.33	     7.616
  47.280         58.33	     8.367
  47.300         38.33	     6.782
  47.320         41.67	     7.071
  47.340         40.83	     7.000
  47.360         41.67	     7.071
  47.380         40.83	     7.000
  47.400         41.67	     7.071
  47.420         31.67	     6.164
  47.440         30.83	     6.083
  47.460         26.67	     5.657
  47.480         35.00	     6.481
  47.500         36.67	     6.633
  47.520         31.67	     6.164
  47.540         33.33	     6.325
  47.560         33.33	     6.325
  47.580         39.17	     6.856
  47.600         32.50	     6.245
  47.620         39.17	     6.856
  47.640         40.00	     6.928
  47.660         31.67	     6.164
  47.680         27.50	     5.745
  47.700         34.17	     6.403
  47.720         33.33	     6.325
  47.740         42.50	     7.141
  47.760         28.33	     5.831
  47.780         25.00	     5.477
  47.800         30.00	     6.000
  47.820         32.50	     6.245
  47.840         39.17	     6.856
  47.860         35.83	     6.557
  47.880         32.50	     6.245
  47.900         44.17	     7.280
  47.920         31.67	     6.164
  47.940         47.50	     7.550
  47.960         47.50	     7.550
  47.980         64.17	     8.775
  48.000         56.67	     8.246
  48.020         60.00	     8.485
  48.040         47.50	     7.550
  48.060         64.17	     8.775
  48.080         68.33	     9.055
  48.100         67.50	     9.000
  48.120         60.83	     8.544
  48.140         62.50	     8.660
  48.160         74.17	     9.434
  48.180         83.33	    10.000
  48.200         55.83	     8.185
  48.220         55.83	     8.185
  48.240         54.17	     8.062
  48.260         58.33	     8.367
  48.280         49.17	     7.681
  48.300         45.83	     7.416
  48.320         50.00	     7.746
  48.340         62.50	     8.660
  48.360         45.00	     7.348
  48.380         57.50	     8.307
  48.400         53.33	     8.000
  48.420         50.00	     7.746
  48.440         40.83	     7.000
  48.460         39.17	     6.856
  48.480         40.00	     6.928
  48.500         48.33	     7.616
  48.520         33.33	     6.325
  48.540         44.17	     7.280
  48.560         40.00	     6.928
  48.580         26.67	     5.657
  48.600         36.67	     6.633
  48.620         30.83	     6.083
  48.640         42.50	     7.141
  48.660         35.83	     6.557
  48.680         35.00	     6.481
  48.700         36.67	     6.633
  48.720         33.33	     6.325
  48.740         35.83	     6.557
  48.760         45.00	     7.348
  48.780         40.00	     6.928
  48.800         38.33	     6.782
  48.820         35.83	     6.557
  48.840         38.33	     6.782
  48.860         42.50	     7.141
  48.880         43.33	     7.211
  48.900         38.33	     6.782
  48.920         34.17	     6.403
  48.940         45.00	     7.348
  48.960         43.33	     7.211
  48.980         40.83	     7.000
  49.000         50.83	     7.810
  49.020         53.33	     8.000
  49.040         49.17	     7.681
  49.060         40.00	     6.928
  49.080         27.50	     5.745
  49.100         30.83	     6.083
  49.120         55.00	     8.124
  49.140         37.50	     6.708
  49.160         52.50	     7.937
  49.180         41.67	     7.071
  49.200         53.33	     8.000
  49.220         40.83	     7.000
  49.240         49.17	     7.681
  49.260         41.67	     7.071
  49.280         42.50	     7.141
  49.300         30.00	     6.000
  49.320         50.83	     7.810
  49.340         35.83	     6.557
  49.360         45.83	     7.416
  49.380         40.00	     6.928
  49.400         30.00	     6.000
  49.420         38.33	     6.782
  49.440         43.33	     7.211
  49.460         45.83	     7.416
  49.480         60.00	     8.485
  49.500         49.17	     7.681
  49.520         46.67	     7.483
  49.540         52.50	     7.937
  49.560         53.33	     8.000
  49.580         41.67	     7.071
  49.600         48.33	     7.616
  49.620         53.33	     8.000
  49.640         75.83	     9.539
  49.660         47.50	     7.550
  49.680         63.33	     8.718
  49.700         80.00	     9.798
  49.720         70.00	     9.165
  49.740         65.83	     8.888
  49.760         66.67	     8.944
  49.780         60.83	     8.544
  49.800         72.50	     9.327
  49.820         83.33	    10.000
  49.840         71.67	     9.274
  49.860         74.17	     9.434
  49.880         70.00	     9.165
  49.900         67.50	     9.000
  49.920         73.33	     9.381
  49.940         82.50	     9.950
  49.960         85.83	    10.149
  49.980         75.83	     9.539
  50.000         72.50	     9.327
  50.020         88.33	    10.296
  50.040        113.33	    11.662
  50.060        117.50	    11.874
  50.080        175.83	    14.526
  50.100        335.00	    20.050
  50.120        572.50	    26.211
  50.140        753.33	    30.067
  50.160        774.17	    30.480
  50.180        631.67	    27.532
  50.200        417.50	    22.383
  50.220        255.83	    17.521
  50.240        273.33	    18.111
  50.260        420.83	    22.472
  50.280        450.83	    23.259
  50.300        410.00	    22.181
  50.320        305.83	    19.157
  50.340        190.83	    15.133
  50.360        115.00	    11.747
  50.380         87.50	    10.247
  50.400         69.17	     9.110
  50.420         61.67	     8.602
  50.440         60.83	     8.544
  50.460         61.67	     8.602
  50.480         59.17	     8.426
  50.500         63.33	     8.718
  50.520         60.83	     8.544
  50.540         79.17	     9.747
  50.560        114.17	    11.705
  50.580        155.00	    13.638
  50.600        160.83	    13.892
  50.620        156.67	    13.711
  50.640        118.33	    11.916
  50.660        114.17	    11.705
  50.680         84.17	    10.050
  50.700         84.17	    10.050
  50.720        115.83	    11.790
  50.740        105.83	    11.269
  50.760         91.67	    10.488
  50.780         80.83	     9.849
  50.800         61.67	     8.602
  50.820         61.67	     8.602
  50.840         63.33	     8.718
  50.860         60.83	     8.544
  50.880         44.17	     7.280
  50.900         47.50	     7.550
  50.920         38.33	     6.782
  50.940         31.67	     6.164
  50.960         46.67	     7.483
  50.980         47.50	     7.550
  51.000         38.33	     6.782
  51.020         29.17	     5.916
  51.040         45.00	     7.348
  51.060         40.83	     7.000
  51.080         53.33	     8.000
  51.100         58.33	     8.367
  51.120         73.33	     9.381
  51.140         84.17	    10.050
  51.160         71.67	     9.274
  51.180         89.17	    10.344
  51.200         66.67	     8.944
  51.220         52.50	     7.937
  51.240         59.17	     8.426
  51.260         76.67	     9.592
  51.280         64.17	     8.775
  51.300         59.17	     8.426
  51.320         57.50	     8.307
  51.340         47.50	     7.550
  51.360         55.83	     8.185
  51.380         56.67	     8.246
  51.400         33.33	     6.325
  51.420         50.83	     7.810
  51.440         42.50	     7.141
  51.460         36.67	     6.633
  51.480         45.83	     7.416
  51.500         41.67	     7.071
  51.520         34.17	     6.403
  51.540         34.17	     6.403
  51.560         31.67	     6.164
  51.580         35.00	     6.481
  51.600         52.50	     7.937
  51.620         35.83	     6.557
  51.640         34.17	     6.403
  51.660         35.00	     6.481
  51.680         30.00	     6.000
  51.700         30.00	     6.000
  51.720         22.50	     5.196
  51.740         22.50	     5.196
  51.760         33.33	     6.325
  51.780         25.83	     5.568
  51.800         30.00	     6.000
  51.820         33.33	     6.325
  51.840         22.50	     5.196
  51.860         20.83	     5.000
  51.880         34.17	     6.403
  51.900         29.17	     5.916
  51.920         29.17	     5.916
  51.940         20.00	     4.899
  51.960         24.17	     5.385
  51.980         28.33	     5.831
  52.000         35.83	     6.557
  52.020         27.50	     5.745
  52.040         35.00	     6.481
  52.060         37.50	     6.708
  52.080         45.00	     7.348
  52.100         39.17	     6.856
  52.120         41.67	     7.071
  52.140         40.00	     6.928
  52.160         40.83	     7.000
  52.180         44.17	     7.280
  52.200         45.83	     7.416
  52.220         34.17	     6.403
  52.240         42.50	     7.141
  52.260         40.00	     6.928
  52.280         41.67	     7.071
  52.300         45.00	     7.348
  52.320         48.33	     7.616
  52.340         35.00	     6.481
  52.360         37.50	     6.708
  52.380         45.00	     7.348
  52.400         31.67	     6.164
  52.420         37.50	     6.708
  52.440         31.67	     6.164
  52.460         40.83	     7.000
  52.480         44.17	     7.280
  52.500         37.50	     6.708
  52.520         43.33	     7.211
  52.540         41.67	     7.071
  52.560         44.17	     7.280
  52.580         29.17	     5.916
  52.600         35.00	     6.481
  52.620         33.33	     6.325
  52.640         48.33	     7.616
  52.660         48.33	     7.616
  52.680         38.33	     6.782
  52.700         30.83	     6.083
  52.720         40.00	     6.928
  52.740         43.33	     7.211
  52.760         39.17	     6.856
  52.780         31.67	     6.164
  52.800         46.67	     7.483
  52.820         32.50	     6.245
  52.840         43.33	     7.211
  52.860         36.67	     6.633
  52.880         42.50	     7.141
  52.900         39.17	     6.856
  52.920         45.00	     7.348
  52.940         40.00	     6.928
  52.960         41.67	     7.071
  52.980         40.00	     6.928
  53.000         42.50	     7.141
  53.020         45.00	     7.348
  53.040         55.83	     8.185
  53.060         46.67	     7.483
  53.080         43.33	     7.211
  53.100         69.17	     9.110
  53.120         90.00	    10.392
  53.140         80.83	     9.849
  53.160         70.00	     9.165
  53.180         58.33	     8.367
  53.200         58.33	     8.367
  53.220         73.33	     9.381
  53.240         69.17	     9.110
  53.260         65.00	     8.832
  53.280         75.83	     9.539
  53.300         55.00	     8.124
  53.320         44.17	     7.280
  53.340         43.33	     7.211
  53.360         49.17	     7.681
  53.380         51.67	     7.874
  53.400         46.67	     7.483
  53.420         31.67	     6.164
  53.440         41.67	     7.071
  53.460         46.67	     7.483
  53.480         33.33	     6.325
  53.500         52.50	     7.937
  53.520         33.33	     6.325
  53.540         43.33	     7.211
  53.560         34.17	     6.403
  53.580         33.33	     6.325
  53.600         25.83	     5.568
  53.620         39.17	     6.856
  53.640         36.67	     6.633
  53.660         30.00	     6.000
  53.680         44.17	     7.280
  53.700         39.17	     6.856
  53.720         39.17	     6.856
  53.740         43.33	     7.211
  53.760         40.00	     6.928
  53.780         36.67	     6.633
  53.800         31.67	     6.164
  53.820         33.33	     6.325
  53.840         37.50	     6.708
  53.860         24.17	     5.385
  53.880         24.17	     5.385
  53.900         40.00	     6.928
  53.920         23.33	     5.292
  53.940         28.33	     5.831
  53.960         45.83	     7.416
  53.980         34.17	     6.403
  54.000         32.50	     6.245
  54.020         33.33	     6.325
  54.040         40.00	     6.928
  54.060         25.83	     5.568
  54.080         42.50	     7.141
  54.100         35.83	     6.557
  54.120         28.33	     5.831
  54.140         39.17	     6.856
  54.160         35.83	     6.557
  54.180         31.67	     6.164
  54.200         18.33	     4.690
  54.220         27.50	     5.745
  54.240         28.33	     5.831
  54.260         29.17	     5.916
  54.280         43.33	     7.211
  54.300         36.67	     6.633
  54.320         39.17	     6.856
  54.340         33.33	     6.325
  54.360         32.50	     6.245
  54.380         41.67	     7.071
  54.400         37.50	     6.708
  54.420         35.00	     6.481
  54.440         41.67	     7.071
  54.460         25.00	     5.477
  54.480         42.50	     7.141
  54.500         37.50	     6.708
  54.520         51.67	     7.874
  54.540         39.17	     6.856
  54.560         25.83	     5.568
  54.580         31.67	     6.164
  54.600         38.33	     6.782
  54.620         40.00	     6.928
  54.640         40.83	     7.000
  54.660         41.67	     7.071
  54.680         56.67	     8.246
  54.700         38.33	     6.782
  54.720         39.17	     6.856
  54.740         51.67	     7.874
  54.760         52.50	     7.937
  54.780         40.83	     7.000
  54.800         50.00	     7.746
  54.820         78.33	     9.695
  54.840         98.33	    10.863
  54.860        149.17	    13.379
  54.880        166.67	    14.142
  54.900        178.33	    14.629
  54.920        163.33	    14.000
  54.940        112.50	    11.619
  54.960         88.33	    10.296
  54.980         79.17	     9.747
  55.000         98.33	    10.863
  55.020        132.50	    12.610
  55.040        136.67	    12.806
  55.060        114.17	    11.705
  55.080        113.33	    11.662
  55.100         78.33	     9.695
  55.120         64.17	     8.775
  55.140         55.00	     8.124
  55.160         53.33	     8.000
  55.180         63.33	     8.718
  55.200         56.67	     8.246
  55.220         56.67	     8.246
  55.240         60.00	     8.485
  55.260         49.17	     7.681
  55.280         65.83	     8.888
  55.300         70.83	     9.220
  55.320         94.17	    10.630
  55.340         93.33	    10.583
  55.360         67.50	     9.000
  55.380         60.83	     8.544
  55.400         50.83	     7.810
  55.420         44.17	     7.280
  55.440         69.17	     9.110
  55.460         70.83	     9.220
  55.480         70.00	     9.165
  55.500         58.33	     8.367
  55.520         67.50	     9.000
  55.540         50.83	     7.810
  55.560         48.33	     7.616
  55.580         56.67	     8.246
  55.600         48.33	     7.616
  55.620         44.17	     7.280
  55.640         59.17	     8.426
  55.660         60.00	     8.485
  55.680         55.00	     8.124
  55.700         50.83	     7.810
  55.720         45.83	     7.416
  55.740         43.33	     7.211
  55.760         50.83	     7.810
  55.780         65.83	     8.888
  55.800         59.17	     8.426
  55.820         66.67	     8.944
  55.840         85.83	    10.149
  55.860         80.00	     9.798
  55.880         78.33	     9.695
  55.900         58.33	     8.367
  55.920         59.17	     8.426
  55.940         57.50	     8.307
  55.960         55.83	     8.185
  55.980         48.33	     7.616
  56.000         65.83	     8.888
  56.020         60.00	     8.485
  56.040         54.17	     8.062
  56.060         56.67	     8.246
  56.080         44.17	     7.280
  56.100         37.50	     6.708
  56.120         33.33	     6.325
  56.140         45.83	     7.416
  56.160         45.00	     7.348
  56.180         36.67	     6.633
  56.200         53.33	     8.000
  56.220         50.83	     7.810
  56.240         50.00	     7.746
  56.260         52.50	     7.937
  56.280         68.33	     9.055
  56.300         50.00	     7.746
  56.320         69.17	     9.110
  56.340         57.50	     8.307
  56.360         53.33	     8.000
  56.380         56.67	     8.246
  56.400         50.00	     7.746
  56.420         40.83	     7.000
  56.440         38.33	     6.782
  56.460         46.67	     7.483
  56.480         43.33	     7.211
  56.500         36.67	     6.633
  56.520         52.50	     7.937
  56.540         44.17	     7.280
  56.560         43.33	     7.211
  56.580         41.67	     7.071
  56.600         40.83	     7.000
  56.620         30.00	     6.000
  56.640         36.67	     6.633
  56.660         28.33	     5.831
  56.680         43.33	     7.211
  56.700         44.17	     7.280
  56.720         50.00	     7.746
  56.740         36.67	     6.633
  56.760         41.67	     7.071
  56.780         41.67	     7.071
  56.800         36.67	     6.633
  56.820         24.17	     5.385
  56.840         50.83	     7.810
  56.860         43.33	     7.211
  56.880         47.50	     7.550
  56.900         40.83	     7.000
  56.920         40.00	     6.928
  56.940         50.00	     7.746
  56.960         36.67	     6.633
  56.980         37.50	     6.708
  57.000         29.17	     5.916
  57.020         34.17	     6.403
  57.040         40.00	     6.928
  57.060         38.33	     6.782
  57.080         27.50	     5.745
  57.100         43.33	     7.211
  57.120         43.33	     7.211
  57.140         40.83	     7.000
  57.160         49.17	     7.681
  57.180         34.17	     6.403
  57.200         40.83	     7.000
  57.220         36.67	     6.633
  57.240         42.50	     7.141
  57.260         57.50	     8.307
  57.280         47.50	     7.550
  57.300         27.50	     5.745
  57.320         42.50	     7.141
  57.340         36.67	     6.633
  57.360         27.50	     5.745
  57.380         40.83	     7.000
  57.400         33.33	     6.325
  57.420         35.00	     6.481
  57.440         40.83	     7.000
  57.460         40.00	     6.928
  57.480         37.50	     6.708
  57.500         31.67	     6.164
  57.520         34.17	     6.403
  57.540         30.00	     6.000
  57.560         26.67	     5.657
  57.580         44.17	     7.280
  57.600         29.17	     5.916
  57.620         42.50	     7.141
  57.640         36.67	     6.633
  57.660         24.17	     5.385
  57.680         35.00	     6.481
  57.700         30.00	     6.000
  57.720         31.67	     6.164
  57.740         45.00	     7.348
  57.760         45.83	     7.416
  57.780         37.50	     6.708
  57.800         34.17	     6.403
  57.820         35.00	     6.481
  57.840         35.00	     6.481
  57.860         34.17	     6.403
  57.880         31.67	     6.164
  57.900         27.50	     5.745
  57.920         36.67	     6.633
  57.940         29.17	     5.916
  57.960         36.67	     6.633
  57.980         27.50	     5.745
  58.000         45.00	     7.348
  58.020         43.33	     7.211
  58.040         35.00	     6.481
  58.060         50.00	     7.746
  58.080         53.33	     8.000
  58.100         49.17	     7.681
  58.120         45.83	     7.416
  58.140         31.67	     6.164
  58.160         29.17	     5.916
  58.180         40.83	     7.000
  58.200         40.83	     7.000
  58.220         40.00	     6.928
  58.240         37.50	     6.708
  58.260         34.17	     6.403
  58.280         33.33	     6.325
  58.300         45.00	     7.348
  58.320         31.67	     6.164
  58.340         27.50	     5.745
  58.360         35.83	     6.557
  58.380         26.67	     5.657
  58.400         32.50	     6.245
  58.420         34.17	     6.403
  58.440         33.33	     6.325
  58.460         39.17	     6.856
  58.480         45.83	     7.416
  58.500         31.67	     6.164
  58.520         43.33	     7.211
  58.540         39.17	     6.856
  58.560         41.67	     7.071
  58.580         38.33	     6.782
  58.600         40.00	     6.928
  58.620         45.00	     7.348
  58.640         38.33	     6.782
  58.660         49.17	     7.681
  58.680         54.17	     8.062
  58.700         49.17	     7.681
  58.720         40.83	     7.000
  58.740         47.50	     7.550
  58.760         55.00	     8.124
  58.780         53.33	     8.000
  58.800         50.83	     7.810
  58.820         47.50	     7.550
  58.840         49.17	     7.681
  58.860         44.17	     7.280
  58.880         49.17	     7.681
  58.900         43.33	     7.211
  58.920         45.00	     7.348
  58.940         45.83	     7.416
  58.960         55.83	     8.185
  58.980         61.67	     8.602
  59.000         48.33	     7.616
  59.020         45.83	     7.416
  59.040         44.17	     7.280
  59.060         64.17	     8.775
  59.080         42.50	     7.141
  59.100         41.67	     7.071
  59.120         50.83	     7.810
  59.140         39.17	     6.856
  59.160         40.00	     6.928
  59.180         52.50	     7.937
  59.200         45.00	     7.348
  59.220         49.17	     7.681
  59.240         55.83	     8.185
  59.260         57.50	     8.307
  59.280         52.50	     7.937
  59.300         45.83	     7.416
  59.320         50.00	     7.746
  59.340         49.17	     7.681
  59.360         51.67	     7.874
  59.380         50.00	     7.746
  59.400         49.17	     7.681
  59.420         54.17	     8.062
  59.440         53.33	     8.000
  59.460         40.83	     7.000
  59.480         35.00	     6.481
  59.500         43.33	     7.211
  59.520         35.00	     6.481
  59.540         42.50	     7.141
  59.560         55.00	     8.124
  59.580         28.33	     5.831
  59.600         38.33	     6.782
  59.620         38.33	     6.782
  59.640         59.17	     8.426
  59.660         45.83	     7.416
  59.680         36.67	     6.633
  59.700         46.67	     7.483
  59.720         49.17	     7.681
  59.740         55.83	     8.185
  59.760         65.00	     8.832
  59.780         58.33	     8.367
  59.800         62.50	     8.660
  59.820         63.33	     8.718
  59.840         79.17	     9.747
  59.860         83.33	    10.000
  59.880        116.67	    11.832
  59.900        172.50	    14.387
  59.920        212.50	    15.969
  59.940        374.17	    21.190
  59.960        520.00	    24.980
  59.980        547.50	    25.632
  60.000        409.17	    22.159
  60.020        279.17	    18.303
  60.040        165.00	    14.071
  60.060        147.50	    13.304
  60.080        141.67	    13.038
  60.100        208.33	    15.811
  60.120        298.33	    18.921
  60.140        345.83	    20.372
  60.160        253.33	    17.436
  60.180        188.33	    15.033
  60.200        119.17	    11.958
  60.220         76.67	     9.592
  60.240         65.00	     8.832
  60.260         76.67	     9.592
  60.280         63.33	     8.718
  60.300         46.67	     7.483
  60.320         50.00	     7.746
  60.340         57.50	     8.307
  60.360         42.50	     7.141
  60.380         50.83	     7.810
  60.400         44.17	     7.280
  60.420         46.67	     7.483
  60.440         50.00	     7.746
  60.460         51.67	     7.874
  60.480         53.33	     8.000
  60.500         44.17	     7.280
  60.520         31.67	     6.164
  60.540         36.67	     6.633
  60.560         50.00	     7.746
  60.580         51.67	     7.874
  60.600         60.00	     8.485
  60.620         41.67	     7.071
  60.640         46.67	     7.483
  60.660         45.83	     7.416
  60.680         47.50	     7.550
  60.700         40.83	     7.000
  60.720         49.17	     7.681
  60.740         49.17	     7.681
  60.760         61.67	     8.602
  60.780         44.17	     7.280
  60.800         51.67	     7.874
  60.820         41.67	     7.071
  60.840         45.00	     7.348
  60.860         60.83	     8.544
  60.880         50.83	     7.810
  60.900         66.67	     8.944
  60.920         55.00	     8.124
  60.940         58.33	     8.367
  60.960         48.33	     7.616
  60.980         33.33	     6.325
  61.000         44.17	     7.280
  61.020         50.00	     7.746
  61.040         51.67	     7.874
  61.060         45.00	     7.348
  61.080         49.17	     7.681
  61.100         50.83	     7.810
  61.120         40.00	     6.928
  61.140         44.17	     7.280
  61.160         33.33	     6.325
  61.180         35.83	     6.557
  61.200         44.17	     7.280
  61.220         35.83	     6.557
  61.240         43.33	     7.211
  61.260         40.00	     6.928
  61.280         46.67	     7.483
  61.300         60.83	     8.544
  61.320         49.17	     7.681
  61.340         49.17	     7.681
  61.360         61.67	     8.602
  61.380         45.83	     7.416
  61.400         65.83	     8.888
  61.420         55.83	     8.185
  61.440         55.83	     8.185
  61.460         51.67	     7.874
  61.480         65.83	     8.888
  61.500         60.83	     8.544
  61.520         66.67	     8.944
  61.540         44.17	     7.280
  61.560         61.67	     8.602
  61.580         47.50	     7.550
  61.600         55.83	     8.185
  61.620         63.33	     8.718
  61.640         61.67	     8.602
  61.660         35.00	     6.481
  61.680         57.50	     8.307
  61.700         51.67	     7.874
  61.720         50.83	     7.810
  61.740         48.33	     7.616
  61.760         60.00	     8.485
  61.780         43.33	     7.211
  61.800         45.00	     7.348
  61.820         55.00	     8.124
  61.840         44.17	     7.280
  61.860         50.83	     7.810
  61.880         48.33	     7.616
  61.900         47.50	     7.550
  61.920         53.33	     8.000
  61.940         53.33	     8.000
  61.960         64.17	     8.775
  61.980         71.67	     9.274
  62.000         63.33	     8.718
  62.020         45.00	     7.348
  62.040         55.83	     8.185
  62.060         42.50	     7.141
  62.080         48.33	     7.616
  62.100         45.00	     7.348
  62.120         46.67	     7.483
  62.140         48.33	     7.616
  62.160         50.00	     7.746
  62.180         40.83	     7.000
  62.200         46.67	     7.483
  62.220         38.33	     6.782
  62.240         30.00	     6.000
  62.260         41.67	     7.071
  62.280         35.00	     6.481
  62.300         35.83	     6.557
  62.320         27.50	     5.745
  62.340         42.50	     7.141
  62.360         36.67	     6.633
  62.380         29.17	     5.916
  62.400         29.17	     5.916
  62.420         30.83	     6.083
  62.440         37.50	     6.708
  62.460         30.00	     6.000
  62.480         36.67	     6.633
  62.500         30.83	     6.083
  62.520         30.83	     6.083
  62.540         27.50	     5.745
  62.560         31.67	     6.164
  62.580         37.50	     6.708
  62.600         35.83	     6.557
  62.620         43.33	     7.211
  62.640         44.17	     7.280
  62.660         33.33	     6.325
  62.680         30.83	     6.083
  62.700         35.00	     6.481
  62.720         40.00	     6.928
  62.740         27.50	     5.745
  62.760         20.00	     4.899
  62.780         43.33	     7.211
  62.800         36.67	     6.633
  62.820         39.17	     6.856
  62.840         44.17	     7.280
  62.860         40.00	     6.928
  62.880         32.50	     6.245
  62.900         32.50	     6.245
  62.920         47.50	     7.550
  62.940         45.83	     7.416
  62.960         37.50	     6.708
  62.980         34.17	     6.403
  63.000         41.67	     7.071
  63.020         40.83	     7.000
  63.040         39.17	     6.856
  63.060         44.17	     7.280
  63.080         24.17	     5.385
  63.100         35.00	     6.481
  63.120         32.50	     6.245
  63.140         35.83	     6.557
  63.160         32.50	     6.245
  63.180         32.50	     6.245
  63.200         40.00	     6.928
  63.220         55.00	     8.124
  63.240         41.67	     7.071
  63.260         30.00	     6.000
  63.280         48.33	     7.616
  63.300         39.17	     6.856
  63.320         29.17	     5.916
  63.340         35.83	     6.557
  63.360         43.33	     7.211
  63.380         43.33	     7.211
  63.400         33.33	     6.325
  63.420         45.83	     7.416
  63.440         49.17	     7.681
  63.460         45.83	     7.416
  63.480         64.17	     8.775
  63.500         61.67	     8.602
  63.520         62.50	     8.660
  63.540         53.33	     8.000
  63.560         38.33	     6.782
  63.580         40.00	     6.928
  63.600         46.67	     7.483
  63.620         42.50	     7.141
  63.640         45.83	     7.416
  63.660         50.83	     7.810
  63.680         62.50	     8.660
  63.700         66.67	     8.944
  63.720         54.17	     8.062
  63.740         37.50	     6.708
  63.760         52.50	     7.937
  63.780         40.83	     7.000
  63.800         48.33	     7.616
  63.820         48.33	     7.616
  63.840         38.33	     6.782
  63.860         54.17	     8.062
  63.880         45.83	     7.416
  63.900         54.17	     8.062
  63.920         41.67	     7.071
  63.940         52.50	     7.937
  63.960         58.33	     8.367
  63.980         50.00	     7.746
  64.000         72.50	     9.327
  64.020         77.50	     9.644
  64.040         88.33	    10.296
  64.060         80.00	     9.798
  64.080         65.83	     8.888
  64.100         65.83	     8.888
  64.120         53.33	     8.000
  64.140         60.83	     8.544
  64.160         70.00	     9.165
  64.180         59.17	     8.426
  64.200         51.67	     7.874
  64.220         54.17	     8.062
  64.240         65.00	     8.832
  64.260         56.67	     8.246
  64.280         50.00	     7.746
  64.300         37.50	     6.708
  64.320         34.17	     6.403
  64.340         38.33	     6.782
  64.360         35.83	     6.557
  64.380         40.00	     6.928
  64.400         39.17	     6.856
  64.420         44.17	     7.280
  64.440         48.33	     7.616
  64.460         31.67	     6.164
  64.480         34.17	     6.403
  64.500         34.17	     6.403
  64.520         48.33	     7.616
  64.540         51.67	     7.874
  64.560         48.33	     7.616
  64.580         39.17	     6.856
  64.600         48.33	     7.616
  64.620         45.00	     7.348
  64.640         35.83	     6.557
  64.660         45.83	     7.416
  64.680         42.50	     7.141
  64.700         40.83	     7.000
  64.720         41.67	     7.071
  64.740         40.83	     7.000
  64.760         35.83	     6.557
  64.780         45.00	     7.348
  64.800         37.50	     6.708
  64.820         50.83	     7.810
  64.840         48.33	     7.616
  64.860         35.83	     6.557
  64.880         35.83	     6.557
  64.900         38.33	     6.782
  64.920         35.83	     6.557
  64.940         54.17	     8.062
  64.960         48.33	     7.616
  64.980         36.67	     6.633
  65.000         54.17	     8.062
