
Filename:
	C:\Program Files\Thermo Electron\WinXRD\Datafiles\F_HERMAN\FIEN\14_1_AUG_P_RT.raw

File Created:
	January 24, 2019 - 04:08 PM

Specimen Id:
	14.1 AUG FT

Specimen Name:
	

Specimen Description:
	

Comment:
Scan Type: 2Theta Scan
Start Angle: 1 deg.
Stop Angle: 65 deg.
Num Points: 3201
Step Size: 0.02 deg.
Scan Rate: 1.000000
Scan Mode: Continuous
Wavelength: 1.540562
\Kalpha1: 1.540562	\Kalpha2: 1.544390	\Kbeta: 1.392218

Optics:
		Detector:
			 Type: Fixed Slits
		Tube: 
			 Type: Fixed Slits


Datas:
 Pos [deg]       Rate [CPS]      ESD [-]

Range 1 ---> Iteration 1
   1.000        909.17	    33.030
   1.020        802.50	    31.032
   1.040        611.67	    27.092
   1.060        535.00	    25.338
   1.080        505.00	    24.617
   1.100        474.17	    23.854
   1.120        500.00	    24.495
   1.140        525.83	    25.120
   1.160        436.67	    22.891
   1.180        367.50	    21.000
   1.200        445.00	    23.108
   1.220        430.83	    22.738
   1.240        360.83	    20.809
   1.260        362.50	    20.857
   1.280        485.00	    24.125
   1.300        575.00	    26.268
   1.320        692.50	    28.827
   1.340        776.67	    30.529
   1.360       1176.67	    37.577
   1.380       1280.00	    39.192
   1.400       1342.50	    40.137
   1.420       1408.33	    41.110
   1.440       1334.17	    40.012
   1.460       1306.67	    39.598
   1.480       1262.50	    38.923
   1.500       1267.50	    39.000
   1.520       1230.83	    38.432
   1.540       1115.83	    36.592
   1.560       1125.00	    36.742
   1.580       1096.67	    36.277
   1.600       1021.67	    35.014
   1.620        937.50	    33.541
   1.640        909.17	    33.030
   1.660        827.50	    31.512
   1.680        830.00	    31.559
   1.700        803.33	    31.048
   1.720        747.50	    29.950
   1.740        658.33	    28.107
   1.760        666.67	    28.284
   1.780        645.83	    27.839
   1.800        559.17	    25.904
   1.820        571.67	    26.192
   1.840        523.33	    25.060
   1.860        499.17	    24.474
   1.880        480.83	    24.021
   1.900        471.67	    23.791
   1.920        471.67	    23.791
   1.940        474.17	    23.854
   1.960        440.00	    22.978
   1.980        462.50	    23.558
   2.000        474.17	    23.854
   2.020        460.83	    23.516
   2.040        446.67	    23.152
   2.060        441.67	    23.022
   2.080        440.83	    23.000
   2.100        445.00	    23.108
   2.120        388.33	    21.587
   2.140        397.50	    21.840
   2.160        393.33	    21.726
   2.180        381.67	    21.401
   2.200        386.67	    21.541
   2.220        370.00	    21.071
   2.240        412.50	    22.249
   2.260        385.00	    21.494
   2.280        370.83	    21.095
   2.300        337.50	    20.125
   2.320        342.50	    20.273
   2.340        332.50	    19.975
   2.360        331.67	    19.950
   2.380        348.33	    20.445
   2.400        358.33	    20.736
   2.420        323.33	    19.698
   2.440        308.33	    19.235
   2.460        303.33	    19.079
   2.480        342.50	    20.273
   2.500        291.67	    18.708
   2.520        285.00	    18.493
   2.540        316.67	    19.494
   2.560        287.50	    18.574
   2.580        298.33	    18.921
   2.600        281.67	    18.385
   2.620        295.00	    18.815
   2.640        293.33	    18.762
   2.660        307.50	    19.209
   2.680        277.50	    18.248
   2.700        295.00	    18.815
   2.720        310.00	    19.287
   2.740        285.00	    18.493
   2.760        281.67	    18.385
   2.780        272.50	    18.083
   2.800        252.50	    17.407
   2.820        260.00	    17.664
   2.840        241.67	    17.029
   2.860        245.83	    17.176
   2.880        258.33	    17.607
   2.900        257.50	    17.578
   2.920        270.83	    18.028
   2.940        253.33	    17.436
   2.960        256.67	    17.550
   2.980        254.17	    17.464
   3.000        241.67	    17.029
   3.020        219.17	    16.217
   3.040        230.00	    16.613
   3.060        257.50	    17.578
   3.080        240.83	    17.000
   3.100        225.00	    16.432
   3.120        250.83	    17.349
   3.140        245.83	    17.176
   3.160        240.83	    17.000
   3.180        225.83	    16.462
   3.200        245.00	    17.146
   3.220        249.17	    17.292
   3.240        234.17	    16.763
   3.260        246.67	    17.205
   3.280        224.17	    16.401
   3.300        213.33	    16.000
   3.320        227.50	    16.523
   3.340        228.33	    16.553
   3.360        229.17	    16.583
   3.380        238.33	    16.912
   3.400        230.00	    16.613
   3.420        241.67	    17.029
   3.440        186.67	    14.967
   3.460        219.17	    16.217
   3.480        220.00	    16.248
   3.500        192.50	    15.199
   3.520        195.83	    15.330
   3.540        220.00	    16.248
   3.560        201.67	    15.556
   3.580        200.00	    15.492
   3.600        219.17	    16.217
   3.620        215.00	    16.062
   3.640        188.33	    15.033
   3.660        196.67	    15.362
   3.680        214.17	    16.031
   3.700        192.50	    15.199
   3.720        190.83	    15.133
   3.740        209.17	    15.843
   3.760        182.50	    14.799
   3.780        172.50	    14.387
   3.800        200.00	    15.492
   3.820        180.00	    14.697
   3.840        181.67	    14.765
   3.860        187.50	    15.000
   3.880        173.33	    14.422
   3.900        207.50	    15.780
   3.920        205.83	    15.716
   3.940        175.83	    14.526
   3.960        169.17	    14.248
   3.980        175.00	    14.491
   4.000        171.67	    14.353
   4.020        192.50	    15.199
   4.040        190.00	    15.100
   4.060        173.33	    14.422
   4.080        185.00	    14.900
   4.100        177.50	    14.595
   4.120        181.67	    14.765
   4.140        171.67	    14.353
   4.160        165.00	    14.071
   4.180        181.67	    14.765
   4.200        168.33	    14.213
   4.220        183.33	    14.832
   4.240        157.50	    13.748
   4.260        165.83	    14.107
   4.280        175.83	    14.526
   4.300        167.50	    14.177
   4.320        160.83	    13.892
   4.340        159.17	    13.820
   4.360        166.67	    14.142
   4.380        141.67	    13.038
   4.400        152.50	    13.528
   4.420        154.17	    13.601
   4.440        158.33	    13.784
   4.460        153.33	    13.565
   4.480        160.83	    13.892
   4.500        164.17	    14.036
   4.520        158.33	    13.784
   4.540        163.33	    14.000
   4.560        153.33	    13.565
   4.580        160.00	    13.856
   4.600        140.00	    12.961
   4.620        155.83	    13.675
   4.640        138.33	    12.884
   4.660        144.17	    13.153
   4.680        162.50	    13.964
   4.700        155.00	    13.638
   4.720        154.17	    13.601
   4.740        152.50	    13.528
   4.760        133.33	    12.649
   4.780        146.67	    13.266
   4.800        155.83	    13.675
   4.820        131.67	    12.570
   4.840        151.67	    13.491
   4.860        135.83	    12.767
   4.880        130.83	    12.530
   4.900        145.00	    13.191
   4.920        137.50	    12.845
   4.940        155.83	    13.675
   4.960        121.67	    12.083
   4.980        144.17	    13.153
   5.000        138.33	    12.884
   5.020        126.67	    12.329
   5.040        123.33	    12.166
   5.060        140.83	    13.000
   5.080        155.00	    13.638
   5.100        121.67	    12.083
   5.120        149.17	    13.379
   5.140        125.00	    12.247
   5.160        146.67	    13.266
   5.180        148.33	    13.342
   5.200        119.17	    11.958
   5.220        125.83	    12.288
   5.240        128.33	    12.410
   5.260        130.83	    12.530
   5.280        140.00	    12.961
   5.300        142.50	    13.077
   5.320        155.83	    13.675
   5.340        120.83	    12.042
   5.360        120.00	    12.000
   5.380        131.67	    12.570
   5.400        140.83	    13.000
   5.420        132.50	    12.610
   5.440        118.33	    11.916
   5.460        140.00	    12.961
   5.480        114.17	    11.705
   5.500        135.00	    12.728
   5.520        130.83	    12.530
   5.540        120.00	    12.000
   5.560        130.00	    12.490
   5.580        119.17	    11.958
   5.600        130.00	    12.490
   5.620        134.17	    12.689
   5.640        146.67	    13.266
   5.660        136.67	    12.806
   5.680        125.83	    12.288
   5.700        142.50	    13.077
   5.720        122.50	    12.124
   5.740        136.67	    12.806
   5.760        121.67	    12.083
   5.780        132.50	    12.610
   5.800        124.17	    12.207
   5.820        111.67	    11.576
   5.840        128.33	    12.410
   5.860        141.67	    13.038
   5.880        111.67	    11.576
   5.900        140.00	    12.961
   5.920        124.17	    12.207
   5.940        137.50	    12.845
   5.960        132.50	    12.610
   5.980        129.17	    12.450
   6.000        138.33	    12.884
   6.020        105.00	    11.225
   6.040        149.17	    13.379
   6.060        140.83	    13.000
   6.080        148.33	    13.342
   6.100        142.50	    13.077
   6.120        149.17	    13.379
   6.140        181.67	    14.765
   6.160        190.83	    15.133
   6.180        215.00	    16.062
   6.200        263.33	    17.776
   6.220        246.67	    17.205
   6.240        280.83	    18.358
   6.260        295.00	    18.815
   6.280        309.17	    19.261
   6.300        265.00	    17.833
   6.320        270.00	    18.000
   6.340        225.00	    16.432
   6.360        214.17	    16.031
   6.380        182.50	    14.799
   6.400        203.33	    15.620
   6.420        166.67	    14.142
   6.440        155.83	    13.675
   6.460        165.83	    14.107
   6.480        136.67	    12.806
   6.500        125.00	    12.247
   6.520        125.00	    12.247
   6.540         90.83	    10.440
   6.560        123.33	    12.166
   6.580        129.17	    12.450
   6.600        116.67	    11.832
   6.620        107.50	    11.358
   6.640        118.33	    11.916
   6.660        114.17	    11.705
   6.680        113.33	    11.662
   6.700         89.17	    10.344
   6.720        109.17	    11.446
   6.740        152.50	    13.528
   6.760        118.33	    11.916
   6.780        118.33	    11.916
   6.800        103.33	    11.136
   6.820        105.00	    11.225
   6.840        110.00	    11.489
   6.860        120.83	    12.042
   6.880        105.00	    11.225
   6.900         94.17	    10.630
   6.920        108.33	    11.402
   6.940        118.33	    11.916
   6.960        101.67	    11.045
   6.980         98.33	    10.863
   7.000        109.17	    11.446
   7.020        100.00	    10.954
   7.040        100.00	    10.954
   7.060         99.17	    10.909
   7.080        104.17	    11.180
   7.100        110.83	    11.533
   7.120        118.33	    11.916
   7.140         95.00	    10.677
   7.160         95.00	    10.677
   7.180        105.00	    11.225
   7.200        102.50	    11.091
   7.220         90.83	    10.440
   7.240        111.67	    11.576
   7.260        112.50	    11.619
   7.280         88.33	    10.296
   7.300        109.17	    11.446
   7.320         98.33	    10.863
   7.340         93.33	    10.583
   7.360         90.00	    10.392
   7.380        109.17	    11.446
   7.400         90.00	    10.392
   7.420        105.00	    11.225
   7.440         80.00	     9.798
   7.460         95.83	    10.724
   7.480        110.83	    11.533
   7.500        110.83	    11.533
   7.520         92.50	    10.536
   7.540        105.00	    11.225
   7.560         92.50	    10.536
   7.580        103.33	    11.136
   7.600        110.00	    11.489
   7.620         99.17	    10.909
   7.640        100.83	    11.000
   7.660         93.33	    10.583
   7.680         81.67	     9.899
   7.700        100.83	    11.000
   7.720         97.50	    10.817
   7.740        101.67	    11.045
   7.760         95.00	    10.677
   7.780         82.50	     9.950
   7.800        103.33	    11.136
   7.820         84.17	    10.050
   7.840        109.17	    11.446
   7.860         95.00	    10.677
   7.880         91.67	    10.488
   7.900        104.17	    11.180
   7.920         97.50	    10.817
   7.940        103.33	    11.136
   7.960         85.83	    10.149
   7.980         95.00	    10.677
   8.000         99.17	    10.909
   8.020         92.50	    10.536
   8.040         91.67	    10.488
   8.060         90.00	    10.392
   8.080         89.17	    10.344
   8.100         97.50	    10.817
   8.120         90.83	    10.440
   8.140         87.50	    10.247
   8.160        107.50	    11.358
   8.180         90.83	    10.440
   8.200         76.67	     9.592
   8.220         92.50	    10.536
   8.240         95.00	    10.677
   8.260        101.67	    11.045
   8.280         84.17	    10.050
   8.300         83.33	    10.000
   8.320         97.50	    10.817
   8.340         83.33	    10.000
   8.360         98.33	    10.863
   8.380         87.50	    10.247
   8.400         92.50	    10.536
   8.420         90.83	    10.440
   8.440         87.50	    10.247
   8.460         94.17	    10.630
   8.480         93.33	    10.583
   8.500         95.83	    10.724
   8.520        109.17	    11.446
   8.540        105.83	    11.269
   8.560         96.67	    10.770
   8.580        101.67	    11.045
   8.600        105.83	    11.269
   8.620        103.33	    11.136
   8.640        105.00	    11.225
   8.660        120.00	    12.000
   8.680        114.17	    11.705
   8.700        130.83	    12.530
   8.720        140.00	    12.961
   8.740        150.00	    13.416
   8.760        156.67	    13.711
   8.780        203.33	    15.620
   8.800        235.83	    16.823
   8.820        252.50	    17.407
   8.840        280.83	    18.358
   8.860        316.67	    19.494
   8.880        400.00	    21.909
   8.900        450.83	    23.259
   8.920        681.67	    28.601
   8.940        680.83	    28.583
   8.960        530.00	    25.219
   8.980        358.33	    20.736
   9.000        180.83	    14.731
   9.020        127.50	    12.369
   9.040        102.50	    11.091
   9.060         98.33	    10.863
   9.080        104.17	    11.180
   9.100         97.50	    10.817
   9.120         95.00	    10.677
   9.140        107.50	    11.358
   9.160        113.33	    11.662
   9.180        115.83	    11.790
   9.200        134.17	    12.689
   9.220        190.83	    15.133
   9.240        169.17	    14.248
   9.260        120.83	    12.042
   9.280         90.00	    10.392
   9.300        108.33	    11.402
   9.320         75.00	     9.487
   9.340         85.00	    10.100
   9.360         73.33	     9.381
   9.380        105.00	    11.225
   9.400         83.33	    10.000
   9.420         95.00	    10.677
   9.440        103.33	    11.136
   9.460        124.17	    12.207
   9.480        110.00	    11.489
   9.500        104.17	    11.180
   9.520         79.17	     9.747
   9.540         81.67	     9.899
   9.560         92.50	    10.536
   9.580         75.83	     9.539
   9.600         71.67	     9.274
   9.620         84.17	    10.050
   9.640         88.33	    10.296
   9.660         73.33	     9.381
   9.680         84.17	    10.050
   9.700         79.17	     9.747
   9.720         65.00	     8.832
   9.740         76.67	     9.592
   9.760         77.50	     9.644
   9.780         78.33	     9.695
   9.800         90.00	    10.392
   9.820         78.33	     9.695
   9.840         79.17	     9.747
   9.860         75.00	     9.487
   9.880         83.33	    10.000
   9.900         90.83	    10.440
   9.920         71.67	     9.274
   9.940         71.67	     9.274
   9.960         71.67	     9.274
   9.980         85.00	    10.100
  10.000         70.00	     9.165
  10.020         90.83	    10.440
  10.040         74.17	     9.434
  10.060         76.67	     9.592
  10.080         78.33	     9.695
  10.100         79.17	     9.747
  10.120         75.83	     9.539
  10.140         63.33	     8.718
  10.160         70.00	     9.165
  10.180         60.83	     8.544
  10.200         75.00	     9.487
  10.220         58.33	     8.367
  10.240         74.17	     9.434
  10.260         69.17	     9.110
  10.280         64.17	     8.775
  10.300         73.33	     9.381
  10.320         70.83	     9.220
  10.340         71.67	     9.274
  10.360         74.17	     9.434
  10.380         85.00	    10.100
  10.400         78.33	     9.695
  10.420         77.50	     9.644
  10.440         70.83	     9.220
  10.460         80.00	     9.798
  10.480         88.33	    10.296
  10.500        100.00	    10.954
  10.520        145.00	    13.191
  10.540        159.17	    13.820
  10.560        200.83	    15.524
  10.580        165.83	    14.107
  10.600        107.50	    11.358
  10.620         92.50	    10.536
  10.640         68.33	     9.055
  10.660         94.17	    10.630
  10.680         80.00	     9.798
  10.700         63.33	     8.718
  10.720         78.33	     9.695
  10.740         61.67	     8.602
  10.760         73.33	     9.381
  10.780         84.17	    10.050
  10.800         66.67	     8.944
  10.820         66.67	     8.944
  10.840         65.83	     8.888
  10.860         75.83	     9.539
  10.880         77.50	     9.644
  10.900         69.17	     9.110
  10.920         75.00	     9.487
  10.940         65.83	     8.888
  10.960         76.67	     9.592
  10.980         67.50	     9.000
  11.000         72.50	     9.327
  11.020         80.83	     9.849
  11.040         61.67	     8.602
  11.060         80.83	     9.849
  11.080         70.00	     9.165
  11.100         80.00	     9.798
  11.120         67.50	     9.000
  11.140         75.83	     9.539
  11.160         63.33	     8.718
  11.180         60.83	     8.544
  11.200         54.17	     8.062
  11.220         74.17	     9.434
  11.240         78.33	     9.695
  11.260         74.17	     9.434
  11.280         74.17	     9.434
  11.300         63.33	     8.718
  11.320         79.17	     9.747
  11.340         73.33	     9.381
  11.360         65.00	     8.832
  11.380         74.17	     9.434
  11.400         63.33	     8.718
  11.420         65.00	     8.832
  11.440         70.83	     9.220
  11.460         67.50	     9.000
  11.480         77.50	     9.644
  11.500         67.50	     9.000
  11.520         59.17	     8.426
  11.540         61.67	     8.602
  11.560         62.50	     8.660
  11.580         70.83	     9.220
  11.600         77.50	     9.644
  11.620         58.33	     8.367
  11.640         80.83	     9.849
  11.660         70.00	     9.165
  11.680         73.33	     9.381
  11.700         68.33	     9.055
  11.720         62.50	     8.660
  11.740         59.17	     8.426
  11.760         70.83	     9.220
  11.780         74.17	     9.434
  11.800         60.00	     8.485
  11.820         66.67	     8.944
  11.840         85.00	    10.100
  11.860         67.50	     9.000
  11.880         67.50	     9.000
  11.900         90.83	    10.440
  11.920         82.50	     9.950
  11.940         65.00	     8.832
  11.960         70.00	     9.165
  11.980         70.83	     9.220
  12.000         91.67	    10.488
  12.020         88.33	    10.296
  12.040         77.50	     9.644
  12.060         93.33	    10.583
  12.080         98.33	    10.863
  12.100         96.67	    10.770
  12.120         97.50	    10.817
  12.140        135.83	    12.767
  12.160        150.83	    13.454
  12.180        187.50	    15.000
  12.200        306.67	    19.183
  12.220        425.00	    22.583
  12.240        549.17	    25.671
  12.260        474.17	    23.854
  12.280        326.67	    19.799
  12.300        210.83	    15.906
  12.320        154.17	    13.601
  12.340        151.67	    13.491
  12.360        156.67	    13.711
  12.380        165.83	    14.107
  12.400        148.33	    13.342
  12.420        163.33	    14.000
  12.440        148.33	    13.342
  12.460        158.33	    13.784
  12.480        207.50	    15.780
  12.500        200.83	    15.524
  12.520        280.00	    18.330
  12.540        300.83	    19.000
  12.560        265.00	    17.833
  12.580        245.83	    17.176
  12.600        161.67	    13.928
  12.620        109.17	    11.446
  12.640         94.17	    10.630
  12.660         85.83	    10.149
  12.680         56.67	     8.246
  12.700         81.67	     9.899
  12.720         76.67	     9.592
  12.740         70.00	     9.165
  12.760         75.00	     9.487
  12.780         75.00	     9.487
  12.800         84.17	    10.050
  12.820         55.00	     8.124
  12.840         69.17	     9.110
  12.860         62.50	     8.660
  12.880         73.33	     9.381
  12.900         67.50	     9.000
  12.920         64.17	     8.775
  12.940         69.17	     9.110
  12.960         61.67	     8.602
  12.980         71.67	     9.274
  13.000         72.50	     9.327
  13.020         71.67	     9.274
  13.040         75.83	     9.539
  13.060         59.17	     8.426
  13.080         69.17	     9.110
  13.100         69.17	     9.110
  13.120         62.50	     8.660
  13.140         67.50	     9.000
  13.160         70.00	     9.165
  13.180         76.67	     9.592
  13.200         80.00	     9.798
  13.220         54.17	     8.062
  13.240         65.83	     8.888
  13.260         77.50	     9.644
  13.280         68.33	     9.055
  13.300         64.17	     8.775
  13.320         65.83	     8.888
  13.340         64.17	     8.775
  13.360         59.17	     8.426
  13.380         62.50	     8.660
  13.400         62.50	     8.660
  13.420         82.50	     9.950
  13.440         69.17	     9.110
  13.460         79.17	     9.747
  13.480         67.50	     9.000
  13.500         67.50	     9.000
  13.520         80.83	     9.849
  13.540         65.00	     8.832
  13.560         72.50	     9.327
  13.580         70.00	     9.165
  13.600         83.33	    10.000
  13.620         70.83	     9.220
  13.640         66.67	     8.944
  13.660         94.17	    10.630
  13.680         95.83	    10.724
  13.700        105.00	    11.225
  13.720         83.33	    10.000
  13.740         71.67	     9.274
  13.760         65.83	     8.888
  13.780         60.83	     8.544
  13.800         79.17	     9.747
  13.820         65.00	     8.832
  13.840         88.33	    10.296
  13.860         77.50	     9.644
  13.880        121.67	    12.083
  13.900        176.67	    14.560
  13.920        229.17	    16.583
  13.940        194.17	    15.264
  13.960        127.50	    12.369
  13.980         95.00	    10.677
  14.000         70.83	     9.220
  14.020         65.00	     8.832
  14.040         60.83	     8.544
  14.060         69.17	     9.110
  14.080         52.50	     7.937
  14.100         67.50	     9.000
  14.120         70.83	     9.220
  14.140         66.67	     8.944
  14.160         55.83	     8.185
  14.180         70.00	     9.165
  14.200         47.50	     7.550
  14.220         57.50	     8.307
  14.240         60.83	     8.544
  14.260         59.17	     8.426
  14.280         65.83	     8.888
  14.300         60.00	     8.485
  14.320         60.83	     8.544
  14.340         54.17	     8.062
  14.360         58.33	     8.367
  14.380         55.00	     8.124
  14.400         55.83	     8.185
  14.420         46.67	     7.483
  14.440         60.00	     8.485
  14.460         62.50	     8.660
  14.480         42.50	     7.141
  14.500         54.17	     8.062
  14.520         63.33	     8.718
  14.540         67.50	     9.000
  14.560         55.83	     8.185
  14.580         65.83	     8.888
  14.600         65.00	     8.832
  14.620         51.67	     7.874
  14.640         71.67	     9.274
  14.660         56.67	     8.246
  14.680         55.00	     8.124
  14.700         59.17	     8.426
  14.720         57.50	     8.307
  14.740         80.83	     9.849
  14.760         64.17	     8.775
  14.780         50.83	     7.810
  14.800         62.50	     8.660
  14.820         47.50	     7.550
  14.840         53.33	     8.000
  14.860         45.83	     7.416
  14.880         49.17	     7.681
  14.900         54.17	     8.062
  14.920         60.83	     8.544
  14.940         55.00	     8.124
  14.960         63.33	     8.718
  14.980         55.00	     8.124
  15.000         61.67	     8.602
  15.020         74.17	     9.434
  15.040         65.83	     8.888
  15.060         61.67	     8.602
  15.080         63.33	     8.718
  15.100         59.17	     8.426
  15.120         60.83	     8.544
  15.140         56.67	     8.246
  15.160         54.17	     8.062
  15.180         54.17	     8.062
  15.200         63.33	     8.718
  15.220         53.33	     8.000
  15.240         60.83	     8.544
  15.260         57.50	     8.307
  15.280         50.83	     7.810
  15.300         51.67	     7.874
  15.320         63.33	     8.718
  15.340         50.00	     7.746
  15.360         54.17	     8.062
  15.380         55.00	     8.124
  15.400         52.50	     7.937
  15.420         52.50	     7.937
  15.440         52.50	     7.937
  15.460         70.00	     9.165
  15.480         55.83	     8.185
  15.500         55.83	     8.185
  15.520         55.00	     8.124
  15.540         56.67	     8.246
  15.560         53.33	     8.000
  15.580         71.67	     9.274
  15.600         68.33	     9.055
  15.620         51.67	     7.874
  15.640         53.33	     8.000
  15.660         50.00	     7.746
  15.680         53.33	     8.000
  15.700         57.50	     8.307
  15.720         60.00	     8.485
  15.740         55.00	     8.124
  15.760         63.33	     8.718
  15.780         60.83	     8.544
  15.800         69.17	     9.110
  15.820         79.17	     9.747
  15.840         57.50	     8.307
  15.860         46.67	     7.483
  15.880         51.67	     7.874
  15.900         50.00	     7.746
  15.920         55.83	     8.185
  15.940         56.67	     8.246
  15.960         47.50	     7.550
  15.980         55.00	     8.124
  16.000         54.17	     8.062
  16.020         64.17	     8.775
  16.040         52.50	     7.937
  16.060         55.00	     8.124
  16.080         57.50	     8.307
  16.100         62.50	     8.660
  16.120         63.33	     8.718
  16.140         64.17	     8.775
  16.160         65.83	     8.888
  16.180         53.33	     8.000
  16.200         55.00	     8.124
  16.220         49.17	     7.681
  16.240         66.67	     8.944
  16.260         60.00	     8.485
  16.280         55.83	     8.185
  16.300         51.67	     7.874
  16.320         36.67	     6.633
  16.340         57.50	     8.307
  16.360         53.33	     8.000
  16.380         53.33	     8.000
  16.400         64.17	     8.775
  16.420         63.33	     8.718
  16.440         47.50	     7.550
  16.460         60.83	     8.544
  16.480         48.33	     7.616
  16.500         47.50	     7.550
  16.520         51.67	     7.874
  16.540         54.17	     8.062
  16.560         36.67	     6.633
  16.580         60.83	     8.544
  16.600         45.00	     7.348
  16.620         51.67	     7.874
  16.640         37.50	     6.708
  16.660         52.50	     7.937
  16.680         56.67	     8.246
  16.700         45.00	     7.348
  16.720         55.00	     8.124
  16.740         63.33	     8.718
  16.760         50.00	     7.746
  16.780         45.00	     7.348
  16.800         50.00	     7.746
  16.820         58.33	     8.367
  16.840         54.17	     8.062
  16.860         55.83	     8.185
  16.880         52.50	     7.937
  16.900         50.83	     7.810
  16.920         50.00	     7.746
  16.940         55.00	     8.124
  16.960         55.83	     8.185
  16.980         45.83	     7.416
  17.000         62.50	     8.660
  17.020         60.00	     8.485
  17.040         65.00	     8.832
  17.060         55.00	     8.124
  17.080         49.17	     7.681
  17.100         50.00	     7.746
  17.120         50.83	     7.810
  17.140         52.50	     7.937
  17.160         56.67	     8.246
  17.180         59.17	     8.426
  17.200         57.50	     8.307
  17.220         50.83	     7.810
  17.240         55.00	     8.124
  17.260         49.17	     7.681
  17.280         54.17	     8.062
  17.300         48.33	     7.616
  17.320         36.67	     6.633
  17.340         52.50	     7.937
  17.360         43.33	     7.211
  17.380         61.67	     8.602
  17.400         60.00	     8.485
  17.420         47.50	     7.550
  17.440         45.00	     7.348
  17.460         50.83	     7.810
  17.480         50.00	     7.746
  17.500         55.00	     8.124
  17.520         54.17	     8.062
  17.540         45.00	     7.348
  17.560         56.67	     8.246
  17.580         52.50	     7.937
  17.600         51.67	     7.874
  17.620         51.67	     7.874
  17.640         71.67	     9.274
  17.660         60.83	     8.544
  17.680         70.00	     9.165
  17.700         55.00	     8.124
  17.720         65.00	     8.832
  17.740         86.67	    10.198
  17.760         91.67	    10.488
  17.780         97.50	    10.817
  17.800        134.17	    12.689
  17.820        174.17	    14.457
  17.840        218.33	    16.186
  17.860        272.50	    18.083
  17.880        322.50	    19.672
  17.900        265.00	    17.833
  17.920        222.50	    16.340
  17.940        142.50	    13.077
  17.960        101.67	    11.045
  17.980         66.67	     8.944
  18.000         53.33	     8.000
  18.020         60.83	     8.544
  18.040         69.17	     9.110
  18.060         59.17	     8.426
  18.080         52.50	     7.937
  18.100         52.50	     7.937
  18.120         68.33	     9.055
  18.140         48.33	     7.616
  18.160         58.33	     8.367
  18.180         59.17	     8.426
  18.200         55.83	     8.185
  18.220         55.00	     8.124
  18.240         50.00	     7.746
  18.260         67.50	     9.000
  18.280         60.00	     8.485
  18.300         58.33	     8.367
  18.320         59.17	     8.426
  18.340         55.83	     8.185
  18.360         56.67	     8.246
  18.380         65.83	     8.888
  18.400         64.17	     8.775
  18.420         79.17	     9.747
  18.440        103.33	    11.136
  18.460        106.67	    11.314
  18.480         80.83	     9.849
  18.500         92.50	    10.536
  18.520         67.50	     9.000
  18.540         67.50	     9.000
  18.560         62.50	     8.660
  18.580         84.17	    10.050
  18.600         83.33	    10.000
  18.620         78.33	     9.695
  18.640         80.00	     9.798
  18.660         71.67	     9.274
  18.680         70.00	     9.165
  18.700         64.17	     8.775
  18.720         70.00	     9.165
  18.740         80.83	     9.849
  18.760         69.17	     9.110
  18.780         89.17	    10.344
  18.800        110.83	    11.533
  18.820        136.67	    12.806
  18.840        144.17	    13.153
  18.860        130.83	    12.530
  18.880        121.67	    12.083
  18.900         97.50	    10.817
  18.920         83.33	    10.000
  18.940         69.17	     9.110
  18.960         51.67	     7.874
  18.980         43.33	     7.211
  19.000         46.67	     7.483
  19.020         40.83	     7.000
  19.040         58.33	     8.367
  19.060         50.00	     7.746
  19.080         57.50	     8.307
  19.100         55.83	     8.185
  19.120         53.33	     8.000
  19.140         45.83	     7.416
  19.160         68.33	     9.055
  19.180         51.67	     7.874
  19.200         62.50	     8.660
  19.220         52.50	     7.937
  19.240         39.17	     6.856
  19.260         66.67	     8.944
  19.280         50.00	     7.746
  19.300         59.17	     8.426
  19.320         56.67	     8.246
  19.340         66.67	     8.944
  19.360         65.83	     8.888
  19.380         50.00	     7.746
  19.400         49.17	     7.681
  19.420         51.67	     7.874
  19.440         57.50	     8.307
  19.460         60.83	     8.544
  19.480         46.67	     7.483
  19.500         45.83	     7.416
  19.520         47.50	     7.550
  19.540         50.83	     7.810
  19.560         49.17	     7.681
  19.580         37.50	     6.708
  19.600         52.50	     7.937
  19.620         45.83	     7.416
  19.640         57.50	     8.307
  19.660         60.00	     8.485
  19.680         67.50	     9.000
  19.700         55.83	     8.185
  19.720         59.17	     8.426
  19.740         71.67	     9.274
  19.760         65.83	     8.888
  19.780         64.17	     8.775
  19.800         52.50	     7.937
  19.820         60.00	     8.485
  19.840         66.67	     8.944
  19.860         60.83	     8.544
  19.880         65.00	     8.832
  19.900         75.83	     9.539
  19.920         76.67	     9.592
  19.940         65.00	     8.832
  19.960         56.67	     8.246
  19.980         63.33	     8.718
  20.000         58.33	     8.367
  20.020         60.00	     8.485
  20.040         57.50	     8.307
  20.060         57.50	     8.307
  20.080         60.83	     8.544
  20.100         55.83	     8.185
  20.120         60.00	     8.485
  20.140         55.83	     8.185
  20.160         67.50	     9.000
  20.180         52.50	     7.937
  20.200         52.50	     7.937
  20.220         50.00	     7.746
  20.240         54.17	     8.062
  20.260         53.33	     8.000
  20.280         61.67	     8.602
  20.300         50.83	     7.810
  20.320         41.67	     7.071
  20.340         51.67	     7.874
  20.360         44.17	     7.280
  20.380         49.17	     7.681
  20.400         50.83	     7.810
  20.420         62.50	     8.660
  20.440         55.00	     8.124
  20.460         44.17	     7.280
  20.480         40.83	     7.000
  20.500         45.83	     7.416
  20.520         55.00	     8.124
  20.540         54.17	     8.062
  20.560         55.00	     8.124
  20.580         50.00	     7.746
  20.600         52.50	     7.937
  20.620         48.33	     7.616
  20.640         48.33	     7.616
  20.660         66.67	     8.944
  20.680         69.17	     9.110
  20.700         69.17	     9.110
  20.720         65.00	     8.832
  20.740         64.17	     8.775
  20.760         75.00	     9.487
  20.780         71.67	     9.274
  20.800        113.33	    11.662
  20.820        142.50	    13.077
  20.840        199.17	    15.460
  20.860        271.67	    18.055
  20.880        371.67	    21.119
  20.900        400.00	    21.909
  20.920        316.67	    19.494
  20.940        282.50	    18.412
  20.960        221.67	    16.310
  20.980        181.67	    14.765
  21.000        131.67	    12.570
  21.020        197.50	    15.395
  21.040        220.83	    16.279
  21.060        210.83	    15.906
  21.080        171.67	    14.353
  21.100        122.50	    12.124
  21.120         98.33	    10.863
  21.140         94.17	    10.630
  21.160         65.83	     8.888
  21.180         56.67	     8.246
  21.200         55.00	     8.124
  21.220         46.67	     7.483
  21.240         55.00	     8.124
  21.260         45.00	     7.348
  21.280         65.00	     8.832
  21.300         48.33	     7.616
  21.320         56.67	     8.246
  21.340         54.17	     8.062
  21.360         56.67	     8.246
  21.380         43.33	     7.211
  21.400         52.50	     7.937
  21.420         39.17	     6.856
  21.440         43.33	     7.211
  21.460         45.83	     7.416
  21.480         48.33	     7.616
  21.500         46.67	     7.483
  21.520         58.33	     8.367
  21.540         46.67	     7.483
  21.560         46.67	     7.483
  21.580         55.00	     8.124
  21.600         55.83	     8.185
  21.620         46.67	     7.483
  21.640         49.17	     7.681
  21.660         55.00	     8.124
  21.680         50.00	     7.746
  21.700         34.17	     6.403
  21.720         48.33	     7.616
  21.740         41.67	     7.071
  21.760         42.50	     7.141
  21.780         40.83	     7.000
  21.800         50.83	     7.810
  21.820         49.17	     7.681
  21.840         46.67	     7.483
  21.860         50.83	     7.810
  21.880         43.33	     7.211
  21.900         41.67	     7.071
  21.920         69.17	     9.110
  21.940         54.17	     8.062
  21.960         60.00	     8.485
  21.980         72.50	     9.327
  22.000         77.50	     9.644
  22.020        102.50	    11.091
  22.040        195.00	    15.297
  22.060        286.67	    18.547
  22.080        307.50	    19.209
  22.100        402.50	    21.977
  22.120        379.17	    21.331
  22.140        279.17	    18.303
  22.160        240.00	    16.971
  22.180        168.33	    14.213
  22.200         90.83	    10.440
  22.220         65.83	     8.888
  22.240         68.33	     9.055
  22.260         50.83	     7.810
  22.280         51.67	     7.874
  22.300         56.67	     8.246
  22.320         56.67	     8.246
  22.340         74.17	     9.434
  22.360         57.50	     8.307
  22.380         57.50	     8.307
  22.400         61.67	     8.602
  22.420         56.67	     8.246
  22.440         52.50	     7.937
  22.460         53.33	     8.000
  22.480         71.67	     9.274
  22.500         68.33	     9.055
  22.520         50.83	     7.810
  22.540         51.67	     7.874
  22.560         58.33	     8.367
  22.580         51.67	     7.874
  22.600         70.83	     9.220
  22.620         55.83	     8.185
  22.640         56.67	     8.246
  22.660         50.83	     7.810
  22.680         49.17	     7.681
  22.700         54.17	     8.062
  22.720         65.83	     8.888
  22.740         56.67	     8.246
  22.760         50.00	     7.746
  22.780         59.17	     8.426
  22.800         42.50	     7.141
  22.820         50.83	     7.810
  22.840         58.33	     8.367
  22.860         64.17	     8.775
  22.880         65.00	     8.832
  22.900         60.00	     8.485
  22.920         64.17	     8.775
  22.940         65.83	     8.888
  22.960         59.17	     8.426
  22.980         50.83	     7.810
  23.000         65.00	     8.832
  23.020         67.50	     9.000
  23.040         77.50	     9.644
  23.060        100.83	    11.000
  23.080         84.17	    10.050
  23.100         94.17	    10.630
  23.120         82.50	     9.950
  23.140         71.67	     9.274
  23.160         71.67	     9.274
  23.180         56.67	     8.246
  23.200         40.83	     7.000
  23.220         50.83	     7.810
  23.240         60.00	     8.485
  23.260         49.17	     7.681
  23.280         47.50	     7.550
  23.300         50.00	     7.746
  23.320         48.33	     7.616
  23.340         49.17	     7.681
  23.360         66.67	     8.944
  23.380         60.00	     8.485
  23.400         65.83	     8.888
  23.420         50.00	     7.746
  23.440         50.83	     7.810
  23.460         79.17	     9.747
  23.480         65.83	     8.888
  23.500         72.50	     9.327
  23.520         95.00	    10.677
  23.540        119.17	    11.958
  23.560        141.67	    13.038
  23.580        157.50	    13.748
  23.600        179.17	    14.663
  23.620        137.50	    12.845
  23.640        145.83	    13.229
  23.660         94.17	    10.630
  23.680        101.67	    11.045
  23.700         79.17	     9.747
  23.720         98.33	    10.863
  23.740         73.33	     9.381
  23.760         55.83	     8.185
  23.780         71.67	     9.274
  23.800         59.17	     8.426
  23.820         66.67	     8.944
  23.840         65.83	     8.888
  23.860         72.50	     9.327
  23.880         74.17	     9.434
  23.900         70.00	     9.165
  23.920         66.67	     8.944
  23.940         44.17	     7.280
  23.960         64.17	     8.775
  23.980         70.00	     9.165
  24.000         53.33	     8.000
  24.020         72.50	     9.327
  24.040         76.67	     9.592
  24.060         74.17	     9.434
  24.080         95.00	    10.677
  24.100         89.17	    10.344
  24.120         78.33	     9.695
  24.140         70.00	     9.165
  24.160         85.00	    10.100
  24.180         85.00	    10.100
  24.200         96.67	    10.770
  24.220         90.83	    10.440
  24.240         98.33	    10.863
  24.260        117.50	    11.874
  24.280        133.33	    12.649
  24.300        157.50	    13.748
  24.320        147.50	    13.304
  24.340        160.83	    13.892
  24.360        150.00	    13.416
  24.380        121.67	    12.083
  24.400         91.67	    10.488
  24.420         93.33	    10.583
  24.440         86.67	    10.198
  24.460         76.67	     9.592
  24.480         79.17	     9.747
  24.500         69.17	     9.110
  24.520         75.00	     9.487
  24.540        101.67	    11.045
  24.560        122.50	    12.124
  24.580        160.83	    13.892
  24.600        230.00	    16.613
  24.620        274.17	    18.138
  24.640        253.33	    17.436
  24.660        260.83	    17.692
  24.680        260.83	    17.692
  24.700        214.17	    16.031
  24.720        220.83	    16.279
  24.740        174.17	    14.457
  24.760        168.33	    14.213
  24.780        131.67	    12.570
  24.800        109.17	    11.446
  24.820        100.00	    10.954
  24.840        105.83	    11.269
  24.860        114.17	    11.705
  24.880         99.17	    10.909
  24.900        102.50	    11.091
  24.920         95.83	    10.724
  24.940        107.50	    11.358
  24.960         95.83	    10.724
  24.980         85.83	    10.149
  25.000         79.17	     9.747
  25.020        105.83	    11.269
  25.040         92.50	    10.536
  25.060         84.17	    10.050
  25.080        111.67	    11.576
  25.100        115.83	    11.790
  25.120        131.67	    12.570
  25.140        163.33	    14.000
  25.160        193.33	    15.232
  25.180        240.00	    16.971
  25.200        254.17	    17.464
  25.220        270.83	    18.028
  25.240        209.17	    15.843
  25.260        205.83	    15.716
  25.280        160.00	    13.856
  25.300        140.83	    13.000
  25.320        114.17	    11.705
  25.340         92.50	    10.536
  25.360         94.17	    10.630
  25.380        111.67	    11.576
  25.400         90.00	    10.392
  25.420        132.50	    12.610
  25.440         97.50	    10.817
  25.460        116.67	    11.832
  25.480        111.67	    11.576
  25.500         99.17	    10.909
  25.520        126.67	    12.329
  25.540        123.33	    12.166
  25.560        145.00	    13.191
  25.580        137.50	    12.845
  25.600        115.83	    11.790
  25.620        106.67	    11.314
  25.640        119.17	    11.958
  25.660        106.67	    11.314
  25.680        118.33	    11.916
  25.700        114.17	    11.705
  25.720        104.17	    11.180
  25.740         88.33	    10.296
  25.760         81.67	     9.899
  25.780         77.50	     9.644
  25.800         68.33	     9.055
  25.820         76.67	     9.592
  25.840         85.83	    10.149
  25.860         57.50	     8.307
  25.880         52.50	     7.937
  25.900         66.67	     8.944
  25.920         65.00	     8.832
  25.940         55.00	     8.124
  25.960         69.17	     9.110
  25.980         57.50	     8.307
  26.000         69.17	     9.110
  26.020         75.00	     9.487
  26.040         65.00	     8.832
  26.060         65.00	     8.832
  26.080         68.33	     9.055
  26.100         57.50	     8.307
  26.120         65.00	     8.832
  26.140         80.00	     9.798
  26.160         86.67	    10.198
  26.180         87.50	    10.247
  26.200         82.50	     9.950
  26.220         77.50	     9.644
  26.240         81.67	     9.899
  26.260         77.50	     9.644
  26.280         72.50	     9.327
  26.300         65.00	     8.832
  26.320         84.17	    10.050
  26.340         91.67	    10.488
  26.360        106.67	    11.314
  26.380        119.17	    11.958
  26.400        133.33	    12.649
  26.420        163.33	    14.000
  26.440        210.83	    15.906
  26.460        205.83	    15.716
  26.480        225.00	    16.432
  26.500        266.67	    17.889
  26.520        268.33	    17.944
  26.540        304.17	    19.105
  26.560        366.67	    20.976
  26.580        450.00	    23.238
  26.600        555.83	    25.826
  26.620        812.50	    31.225
  26.640       1411.67	    41.158
  26.660       2690.83	    56.824
  26.680       3836.67	    67.853
  26.700       3772.50	    67.283
  26.720       2639.17	    56.276
  26.740       2245.83	    51.913
  26.760       2198.33	    51.361
  26.780       1320.00	    39.799
  26.800        652.50	    27.982
  26.820        448.33	    23.195
  26.840        490.00	    24.249
  26.860        539.17	    25.436
  26.880        626.67	    27.423
  26.900        803.33	    31.048
  26.920        859.17	    32.109
  26.940        841.67	    31.780
  26.960        655.00	    28.036
  26.980        540.00	    25.456
  27.000        478.33	    23.958
  27.020        360.83	    20.809
  27.040        240.83	    17.000
  27.060        195.83	    15.330
  27.080        195.00	    15.297
  27.100        196.67	    15.362
  27.120        180.83	    14.731
  27.140        185.83	    14.933
  27.160        160.83	    13.892
  27.180        134.17	    12.689
  27.200        118.33	    11.916
  27.220        106.67	    11.314
  27.240        112.50	    11.619
  27.260         86.67	    10.198
  27.280        105.00	    11.225
  27.300         93.33	    10.583
  27.320         71.67	     9.274
  27.340         85.00	    10.100
  27.360         78.33	     9.695
  27.380         92.50	    10.536
  27.400         89.17	    10.344
  27.420        134.17	    12.689
  27.440        161.67	    13.928
  27.460        180.83	    14.731
  27.480        210.83	    15.906
  27.500        278.33	    18.276
  27.520        382.50	    21.424
  27.540        534.17	    25.318
  27.560        605.83	    26.963
  27.580        765.83	    30.315
  27.600        790.83	    30.806
  27.620        538.33	    25.417
  27.640        394.17	    21.749
  27.660        382.50	    21.424
  27.680        357.50	    20.712
  27.700        237.50	    16.882
  27.720        233.33	    16.733
  27.740        285.83	    18.520
  27.760        363.33	    20.881
  27.780        315.83	    19.468
  27.800        427.50	    22.650
  27.820        397.50	    21.840
  27.840        424.17	    22.561
  27.860        385.83	    21.517
  27.880        379.17	    21.331
  27.900        441.67	    23.022
  27.920        858.33	    32.094
  27.940       1222.50	    38.301
  27.960       1511.67	    42.591
  27.980       1748.33	    45.804
  28.000       1420.83	    41.292
  28.020       1042.50	    35.369
  28.040        945.00	    33.675
  28.060        782.50	    30.643
  28.080        475.00	    23.875
  28.100        262.50	    17.748
  28.120        210.00	    15.875
  28.140        181.67	    14.765
  28.160        197.50	    15.395
  28.180        177.50	    14.595
  28.200        152.50	    13.528
  28.220        157.50	    13.748
  28.240        134.17	    12.689
  28.260        140.00	    12.961
  28.280        135.00	    12.728
  28.300        142.50	    13.077
  28.320        105.00	    11.225
  28.340        120.83	    12.042
  28.360        115.00	    11.747
  28.380        110.00	    11.489
  28.400         99.17	    10.909
  28.420         77.50	     9.644
  28.440         83.33	    10.000
  28.460         71.67	     9.274
  28.480         70.83	     9.220
  28.500         61.67	     8.602
  28.520         69.17	     9.110
  28.540         70.83	     9.220
  28.560         94.17	    10.630
  28.580         90.83	    10.440
  28.600         90.00	    10.392
  28.620         81.67	     9.899
  28.640        105.83	    11.269
  28.660         95.83	    10.724
  28.680         88.33	    10.296
  28.700         97.50	    10.817
  28.720         91.67	    10.488
  28.740         76.67	     9.592
  28.760         92.50	    10.536
  28.780         66.67	     8.944
  28.800         69.17	     9.110
  28.820         77.50	     9.644
  28.840         69.17	     9.110
  28.860         64.17	     8.775
  28.880         65.83	     8.888
  28.900         60.83	     8.544
  28.920         70.83	     9.220
  28.940         58.33	     8.367
  28.960         53.33	     8.000
  28.980         54.17	     8.062
  29.000         49.17	     7.681
  29.020         58.33	     8.367
  29.040         49.17	     7.681
  29.060         46.67	     7.483
  29.080         47.50	     7.550
  29.100         40.00	     6.928
  29.120         63.33	     8.718
  29.140         55.00	     8.124
  29.160         56.67	     8.246
  29.180         49.17	     7.681
  29.200         65.00	     8.832
  29.220         57.50	     8.307
  29.240         58.33	     8.367
  29.260         66.67	     8.944
  29.280         51.67	     7.874
  29.300         50.83	     7.810
  29.320         49.17	     7.681
  29.340         60.00	     8.485
  29.360         62.50	     8.660
  29.380         49.17	     7.681
  29.400         52.50	     7.937
  29.420         45.83	     7.416
  29.440         48.33	     7.616
  29.460         51.67	     7.874
  29.480         60.00	     8.485
  29.500         68.33	     9.055
  29.520         58.33	     8.367
  29.540         56.67	     8.246
  29.560         59.17	     8.426
  29.580         45.00	     7.348
  29.600         55.00	     8.124
  29.620         45.83	     7.416
  29.640         49.17	     7.681
  29.660         52.50	     7.937
  29.680         63.33	     8.718
  29.700         64.17	     8.775
  29.720         68.33	     9.055
  29.740         79.17	     9.747
  29.760        111.67	    11.576
  29.780        115.83	    11.790
  29.800         95.00	    10.677
  29.820        126.67	    12.329
  29.840        124.17	    12.207
  29.860        122.50	    12.124
  29.880        104.17	    11.180
  29.900        113.33	    11.662
  29.920        109.17	    11.446
  29.940        100.83	    11.000
  29.960        100.83	    11.000
  29.980         85.83	    10.149
  30.000         75.00	     9.487
  30.020         90.83	    10.440
  30.040         85.83	    10.149
  30.060         89.17	    10.344
  30.080         98.33	    10.863
  30.100        112.50	    11.619
  30.120        143.33	    13.115
  30.140        163.33	    14.000
  30.160        167.50	    14.177
  30.180        204.17	    15.652
  30.200        171.67	    14.353
  30.220        141.67	    13.038
  30.240        170.00	    14.283
  30.260        220.83	    16.279
  30.280        207.50	    15.780
  30.300        158.33	    13.784
  30.320        135.00	    12.728
  30.340        122.50	    12.124
  30.360        130.83	    12.530
  30.380         92.50	    10.536
  30.400         94.17	    10.630
  30.420         93.33	    10.583
  30.440        108.33	    11.402
  30.460        123.33	    12.166
  30.480        120.83	    12.042
  30.500        119.17	    11.958
  30.520        115.83	    11.790
  30.540        130.00	    12.490
  30.560        106.67	    11.314
  30.580        110.83	    11.533
  30.600         79.17	     9.747
  30.620         60.83	     8.544
  30.640         77.50	     9.644
  30.660         68.33	     9.055
  30.680         60.83	     8.544
  30.700         53.33	     8.000
  30.720         50.00	     7.746
  30.740         46.67	     7.483
  30.760         69.17	     9.110
  30.780         53.33	     8.000
  30.800         66.67	     8.944
  30.820         79.17	     9.747
  30.840         85.83	    10.149
  30.860         96.67	    10.770
  30.880         75.00	     9.487
  30.900         88.33	    10.296
  30.920         79.17	     9.747
  30.940         89.17	    10.344
  30.960         70.83	     9.220
  30.980         56.67	     8.246
  31.000         59.17	     8.426
  31.020         60.83	     8.544
  31.040         64.17	     8.775
  31.060         65.83	     8.888
  31.080         54.17	     8.062
  31.100         55.00	     8.124
  31.120         62.50	     8.660
  31.140         70.00	     9.165
  31.160         53.33	     8.000
  31.180         76.67	     9.592
  31.200         79.17	     9.747
  31.220         90.83	    10.440
  31.240         85.83	    10.149
  31.260        109.17	    11.446
  31.280        100.83	    11.000
  31.300         99.17	    10.909
  31.320         88.33	    10.296
  31.340         87.50	    10.247
  31.360         80.83	     9.849
  31.380         75.83	     9.539
  31.400         66.67	     8.944
  31.420         75.00	     9.487
  31.440         50.83	     7.810
  31.460         78.33	     9.695
  31.480         62.50	     8.660
  31.500         80.00	     9.798
  31.520         55.83	     8.185
  31.540         70.83	     9.220
  31.560         66.67	     8.944
  31.580         93.33	    10.583
  31.600         87.50	    10.247
  31.620         75.00	     9.487
  31.640         96.67	    10.770
  31.660         95.00	    10.677
  31.680         65.83	     8.888
  31.700         70.83	     9.220
  31.720         74.17	     9.434
  31.740         67.50	     9.000
  31.760         55.83	     8.185
  31.780         65.00	     8.832
  31.800         66.67	     8.944
  31.820         50.83	     7.810
  31.840         47.50	     7.550
  31.860         59.17	     8.426
  31.880         47.50	     7.550
  31.900         69.17	     9.110
  31.920         77.50	     9.644
  31.940         58.33	     8.367
  31.960         61.67	     8.602
  31.980         77.50	     9.644
  32.000         64.17	     8.775
  32.020         45.83	     7.416
  32.040         50.83	     7.810
  32.060         54.17	     8.062
  32.080         70.83	     9.220
  32.100         68.33	     9.055
  32.120         55.83	     8.185
  32.140         64.17	     8.775
  32.160         72.50	     9.327
  32.180         69.17	     9.110
  32.200         49.17	     7.681
  32.220         68.33	     9.055
  32.240         65.00	     8.832
  32.260         52.50	     7.937
  32.280         51.67	     7.874
  32.300         55.00	     8.124
  32.320         61.67	     8.602
  32.340         58.33	     8.367
  32.360         55.83	     8.185
  32.380         48.33	     7.616
  32.400         47.50	     7.550
  32.420         30.00	     6.000
  32.440         33.33	     6.325
  32.460         43.33	     7.211
  32.480         41.67	     7.071
  32.500         43.33	     7.211
  32.520         36.67	     6.633
  32.540         35.00	     6.481
  32.560         31.67	     6.164
  32.580         42.50	     7.141
  32.600         45.00	     7.348
  32.620         40.83	     7.000
  32.640         39.17	     6.856
  32.660         43.33	     7.211
  32.680         34.17	     6.403
  32.700         34.17	     6.403
  32.720         39.17	     6.856
  32.740         31.67	     6.164
  32.760         31.67	     6.164
  32.780         42.50	     7.141
  32.800         34.17	     6.403
  32.820         40.83	     7.000
  32.840         43.33	     7.211
  32.860         26.67	     5.657
  32.880         43.33	     7.211
  32.900         41.67	     7.071
  32.920         33.33	     6.325
  32.940         38.33	     6.782
  32.960         44.17	     7.280
  32.980         50.83	     7.810
  33.000         49.17	     7.681
  33.020         46.67	     7.483
  33.040         36.67	     6.633
  33.060         52.50	     7.937
  33.080         52.50	     7.937
  33.100         67.50	     9.000
  33.120         53.33	     8.000
  33.140         50.83	     7.810
  33.160         46.67	     7.483
  33.180         60.00	     8.485
  33.200         50.00	     7.746
  33.220         50.83	     7.810
  33.240         32.50	     6.245
  33.260         49.17	     7.681
  33.280         45.83	     7.416
  33.300         43.33	     7.211
  33.320         33.33	     6.325
  33.340         31.67	     6.164
  33.360         35.83	     6.557
  33.380         36.67	     6.633
  33.400         56.67	     8.246
  33.420         39.17	     6.856
  33.440         35.83	     6.557
  33.460         39.17	     6.856
  33.480         40.83	     7.000
  33.500         32.50	     6.245
  33.520         54.17	     8.062
  33.540         40.00	     6.928
  33.560         45.00	     7.348
  33.580         46.67	     7.483
  33.600         34.17	     6.403
  33.620         34.17	     6.403
  33.640         39.17	     6.856
  33.660         33.33	     6.325
  33.680         48.33	     7.616
  33.700         33.33	     6.325
  33.720         45.83	     7.416
  33.740         41.67	     7.071
  33.760         45.83	     7.416
  33.780         41.67	     7.071
  33.800         38.33	     6.782
  33.820         36.67	     6.633
  33.840         44.17	     7.280
  33.860         47.50	     7.550
  33.880         42.50	     7.141
  33.900         37.50	     6.708
  33.920         51.67	     7.874
  33.940         55.00	     8.124
  33.960         80.83	     9.849
  33.980         77.50	     9.644
  34.000         77.50	     9.644
  34.020         60.83	     8.544
  34.040         60.83	     8.544
  34.060         55.00	     8.124
  34.080         69.17	     9.110
  34.100         60.00	     8.485
  34.120         52.50	     7.937
  34.140         42.50	     7.141
  34.160         51.67	     7.874
  34.180         51.67	     7.874
  34.200         59.17	     8.426
  34.220         40.00	     6.928
  34.240         35.00	     6.481
  34.260         39.17	     6.856
  34.280         42.50	     7.141
  34.300         49.17	     7.681
  34.320         46.67	     7.483
  34.340         53.33	     8.000
  34.360         53.33	     8.000
  34.380         53.33	     8.000
  34.400         60.00	     8.485
  34.420         58.33	     8.367
  34.440         52.50	     7.937
  34.460         64.17	     8.775
  34.480         65.00	     8.832
  34.500         72.50	     9.327
  34.520         85.83	    10.149
  34.540         63.33	     8.718
  34.560         79.17	     9.747
  34.580         93.33	    10.583
  34.600         87.50	    10.247
  34.620         80.00	     9.798
  34.640         74.17	     9.434
  34.660         78.33	     9.695
  34.680         74.17	     9.434
  34.700         73.33	     9.381
  34.720         72.50	     9.327
  34.740         61.67	     8.602
  34.760         70.00	     9.165
  34.780         65.83	     8.888
  34.800         59.17	     8.426
  34.820         65.83	     8.888
  34.840         68.33	     9.055
  34.860         76.67	     9.592
  34.880         84.17	    10.050
  34.900         81.67	     9.899
  34.920        104.17	    11.180
  34.940         76.67	     9.592
  34.960         99.17	    10.909
  34.980        107.50	    11.358
  35.000        110.00	    11.489
  35.020         95.00	    10.677
  35.040        121.67	    12.083
  35.060        133.33	    12.649
  35.080        102.50	    11.091
  35.100        124.17	    12.207
  35.120        100.83	    11.000
  35.140        104.17	    11.180
  35.160         90.83	    10.440
  35.180         88.33	    10.296
  35.200         91.67	    10.488
  35.220         73.33	     9.381
  35.240         70.00	     9.165
  35.260         76.67	     9.592
  35.280         60.00	     8.485
  35.300         69.17	     9.110
  35.320         54.17	     8.062
  35.340         64.17	     8.775
  35.360         48.33	     7.616
  35.380         47.50	     7.550
  35.400         73.33	     9.381
  35.420         66.67	     8.944
  35.440         64.17	     8.775
  35.460         59.17	     8.426
  35.480         67.50	     9.000
  35.500         80.83	     9.849
  35.520         88.33	    10.296
  35.540         95.83	    10.724
  35.560        110.83	    11.533
  35.580        126.67	    12.329
  35.600        101.67	    11.045
  35.620        106.67	    11.314
  35.640         94.17	    10.630
  35.660        110.00	    11.489
  35.680        105.00	    11.225
  35.700         75.83	     9.539
  35.720         75.83	     9.539
  35.740         64.17	     8.775
  35.760         65.00	     8.832
  35.780         65.00	     8.832
  35.800         60.83	     8.544
  35.820         57.50	     8.307
  35.840         51.67	     7.874
  35.860         52.50	     7.937
  35.880         49.17	     7.681
  35.900         59.17	     8.426
  35.920         53.33	     8.000
  35.940         60.00	     8.485
  35.960         70.83	     9.220
  35.980         57.50	     8.307
  36.000         50.83	     7.810
  36.020         39.17	     6.856
  36.040         52.50	     7.937
  36.060         78.33	     9.695
  36.080         74.17	     9.434
  36.100         65.83	     8.888
  36.120         81.67	     9.899
  36.140         96.67	    10.770
  36.160         90.83	    10.440
  36.180         85.83	    10.149
  36.200         85.00	    10.100
  36.220         80.00	     9.798
  36.240         51.67	     7.874
  36.260         64.17	     8.775
  36.280         65.00	     8.832
  36.300         55.83	     8.185
  36.320         46.67	     7.483
  36.340         39.17	     6.856
  36.360         44.17	     7.280
  36.380         41.67	     7.071
  36.400         54.17	     8.062
  36.420         42.50	     7.141
  36.440         63.33	     8.718
  36.460         66.67	     8.944
  36.480         64.17	     8.775
  36.500         85.83	    10.149
  36.520        100.83	    11.000
  36.540        130.83	    12.530
  36.560        223.33	    16.371
  36.580        267.50	    17.916
  36.600        257.50	    17.578
  36.620        209.17	    15.843
  36.640        156.67	    13.711
  36.660        159.17	    13.820
  36.680        190.83	    15.133
  36.700        164.17	    14.036
  36.720        130.00	    12.490
  36.740         90.83	    10.440
  36.760         74.17	     9.434
  36.780         79.17	     9.747
  36.800         66.67	     8.944
  36.820         60.00	     8.485
  36.840         59.17	     8.426
  36.860         60.83	     8.544
  36.880         63.33	     8.718
  36.900         53.33	     8.000
  36.920         50.00	     7.746
  36.940         49.17	     7.681
  36.960         47.50	     7.550
  36.980         40.83	     7.000
  37.000         46.67	     7.483
  37.020         54.17	     8.062
  37.040         45.83	     7.416
  37.060         54.17	     8.062
  37.080         45.83	     7.416
  37.100         51.67	     7.874
  37.120         47.50	     7.550
  37.140         49.17	     7.681
  37.160         52.50	     7.937
  37.180         58.33	     8.367
  37.200         65.00	     8.832
  37.220         65.83	     8.888
  37.240         61.67	     8.602
  37.260         50.00	     7.746
  37.280         51.67	     7.874
  37.300         56.67	     8.246
  37.320         45.00	     7.348
  37.340         67.50	     9.000
  37.360         60.83	     8.544
  37.380         66.67	     8.944
  37.400         57.50	     8.307
  37.420         61.67	     8.602
  37.440         67.50	     9.000
  37.460         72.50	     9.327
  37.480         75.00	     9.487
  37.500         77.50	     9.644
  37.520         59.17	     8.426
  37.540         88.33	    10.296
  37.560         73.33	     9.381
  37.580         65.00	     8.832
  37.600         68.33	     9.055
  37.620         66.67	     8.944
  37.640         65.00	     8.832
  37.660         75.83	     9.539
  37.680         65.83	     8.888
  37.700         85.83	    10.149
  37.720         60.83	     8.544
  37.740         82.50	     9.950
  37.760         71.67	     9.274
  37.780         89.17	    10.344
  37.800         72.50	     9.327
  37.820         80.83	     9.849
  37.840         87.50	    10.247
  37.860         62.50	     8.660
  37.880         54.17	     8.062
  37.900         47.50	     7.550
  37.920         57.50	     8.307
  37.940         56.67	     8.246
  37.960         46.67	     7.483
  37.980         42.50	     7.141
  38.000         33.33	     6.325
  38.020         36.67	     6.633
  38.040         40.00	     6.928
  38.060         34.17	     6.403
  38.080         40.83	     7.000
  38.100         32.50	     6.245
  38.120         26.67	     5.657
  38.140         36.67	     6.633
  38.160         28.33	     5.831
  38.180         21.67	     5.099
  38.200         32.50	     6.245
  38.220         45.83	     7.416
  38.240         34.17	     6.403
  38.260         32.50	     6.245
  38.280         34.17	     6.403
  38.300         31.67	     6.164
  38.320         42.50	     7.141
  38.340         36.67	     6.633
  38.360         31.67	     6.164
  38.380         37.50	     6.708
  38.400         40.00	     6.928
  38.420         35.00	     6.481
  38.440         22.50	     5.196
  38.460         21.67	     5.099
  38.480         41.67	     7.071
  38.500         44.17	     7.280
  38.520         42.50	     7.141
  38.540         42.50	     7.141
  38.560         48.33	     7.616
  38.580         47.50	     7.550
  38.600         32.50	     6.245
  38.620         46.67	     7.483
  38.640         60.00	     8.485
  38.660         56.67	     8.246
  38.680         61.67	     8.602
  38.700         62.50	     8.660
  38.720         72.50	     9.327
  38.740         60.83	     8.544
  38.760         53.33	     8.000
  38.780         55.83	     8.185
  38.800         60.00	     8.485
  38.820         60.83	     8.544
  38.840         69.17	     9.110
  38.860         55.83	     8.185
  38.880         65.83	     8.888
  38.900         67.50	     9.000
  38.920         45.83	     7.416
  38.940         57.50	     8.307
  38.960         70.83	     9.220
  38.980         57.50	     8.307
  39.000         40.00	     6.928
  39.020         45.00	     7.348
  39.040         31.67	     6.164
  39.060         45.00	     7.348
  39.080         38.33	     6.782
  39.100         35.00	     6.481
  39.120         45.83	     7.416
  39.140         41.67	     7.071
  39.160         37.50	     6.708
  39.180         40.83	     7.000
  39.200         50.83	     7.810
  39.220         40.00	     6.928
  39.240         32.50	     6.245
  39.260         45.00	     7.348
  39.280         39.17	     6.856
  39.300         37.50	     6.708
  39.320         40.83	     7.000
  39.340         45.83	     7.416
  39.360         55.00	     8.124
  39.380         60.83	     8.544
  39.400         49.17	     7.681
  39.420         55.00	     8.124
  39.440         88.33	    10.296
  39.460        121.67	    12.083
  39.480        195.00	    15.297
  39.500        220.00	    16.248
  39.520        193.33	    15.232
  39.540        135.00	    12.728
  39.560        137.50	    12.845
  39.580        151.67	    13.491
  39.600        140.83	    13.000
  39.620        121.67	    12.083
  39.640        115.83	    11.790
  39.660         78.33	     9.695
  39.680         64.17	     8.775
  39.700         43.33	     7.211
  39.720         64.17	     8.775
  39.740         53.33	     8.000
  39.760         55.83	     8.185
  39.780         62.50	     8.660
  39.800         45.83	     7.416
  39.820         60.83	     8.544
  39.840         45.00	     7.348
  39.860         44.17	     7.280
  39.880         51.67	     7.874
  39.900         48.33	     7.616
  39.920         35.83	     6.557
  39.940         53.33	     8.000
  39.960         38.33	     6.782
  39.980         46.67	     7.483
  40.000         32.50	     6.245
  40.020         47.50	     7.550
  40.040         45.00	     7.348
  40.060         36.67	     6.633
  40.080         35.83	     6.557
  40.100         44.17	     7.280
  40.120         30.00	     6.000
  40.140         46.67	     7.483
  40.160         46.67	     7.483
  40.180         41.67	     7.071
  40.200         45.00	     7.348
  40.220         42.50	     7.141
  40.240         51.67	     7.874
  40.260         74.17	     9.434
  40.280        102.50	    11.091
  40.300        140.83	    13.000
  40.320        207.50	    15.780
  40.340        274.17	    18.138
  40.360        216.67	    16.125
  40.380        152.50	    13.528
  40.400        132.50	    12.610
  40.420        130.83	    12.530
  40.440        139.17	    12.923
  40.460        132.50	    12.610
  40.480         90.83	    10.440
  40.500         63.33	     8.718
  40.520         36.67	     6.633
  40.540         47.50	     7.550
  40.560         50.00	     7.746
  40.580         44.17	     7.280
  40.600         37.50	     6.708
  40.620         41.67	     7.071
  40.640         36.67	     6.633
  40.660         43.33	     7.211
  40.680         35.00	     6.481
  40.700         35.00	     6.481
  40.720         41.67	     7.071
  40.740         30.83	     6.083
  40.760         36.67	     6.633
  40.780         50.00	     7.746
  40.800         42.50	     7.141
  40.820         33.33	     6.325
  40.840         52.50	     7.937
  40.860         45.00	     7.348
  40.880         37.50	     6.708
  40.900         47.50	     7.550
  40.920         45.00	     7.348
  40.940         45.83	     7.416
  40.960         41.67	     7.071
  40.980         45.83	     7.416
  41.000         40.83	     7.000
  41.020         41.67	     7.071
  41.040         42.50	     7.141
  41.060         35.83	     6.557
  41.080         38.33	     6.782
  41.100         46.67	     7.483
  41.120         28.33	     5.831
  41.140         35.83	     6.557
  41.160         42.50	     7.141
  41.180         40.00	     6.928
  41.200         46.67	     7.483
  41.220         50.83	     7.810
  41.240         45.00	     7.348
  41.260         50.83	     7.810
  41.280         50.83	     7.810
  41.300         44.17	     7.280
  41.320         35.83	     6.557
  41.340         43.33	     7.211
  41.360         38.33	     6.782
  41.380         47.50	     7.550
  41.400         37.50	     6.708
  41.420         38.33	     6.782
  41.440         32.50	     6.245
  41.460         31.67	     6.164
  41.480         40.00	     6.928
  41.500         37.50	     6.708
  41.520         48.33	     7.616
  41.540         47.50	     7.550
  41.560         53.33	     8.000
  41.580         55.83	     8.185
  41.600         40.00	     6.928
  41.620         42.50	     7.141
  41.640         56.67	     8.246
  41.660         49.17	     7.681
  41.680         48.33	     7.616
  41.700         77.50	     9.644
  41.720         70.00	     9.165
  41.740         72.50	     9.327
  41.760         90.00	    10.392
  41.780         70.83	     9.220
  41.800         64.17	     8.775
  41.820         70.00	     9.165
  41.840         87.50	    10.247
  41.860         64.17	     8.775
  41.880         68.33	     9.055
  41.900         62.50	     8.660
  41.920         56.67	     8.246
  41.940         62.50	     8.660
  41.960         60.83	     8.544
  41.980         54.17	     8.062
  42.000         60.00	     8.485
  42.020         55.00	     8.124
  42.040         43.33	     7.211
  42.060         37.50	     6.708
  42.080         50.00	     7.746
  42.100         56.67	     8.246
  42.120         51.67	     7.874
  42.140         51.67	     7.874
  42.160         40.00	     6.928
  42.180         34.17	     6.403
  42.200         47.50	     7.550
  42.220         54.17	     8.062
  42.240         46.67	     7.483
  42.260         41.67	     7.071
  42.280         50.00	     7.746
  42.300         65.83	     8.888
  42.320         57.50	     8.307
  42.340         64.17	     8.775
  42.360         64.17	     8.775
  42.380         70.00	     9.165
  42.400         71.67	     9.274
  42.420         73.33	     9.381
  42.440        108.33	    11.402
  42.460        126.67	    12.329
  42.480        166.67	    14.142
  42.500        190.83	    15.133
  42.520        167.50	    14.177
  42.540        130.83	    12.530
  42.560        113.33	    11.662
  42.580        128.33	    12.410
  42.600        119.17	    11.958
  42.620        119.17	    11.958
  42.640        105.83	    11.269
  42.660         91.67	    10.488
  42.680         81.67	     9.899
  42.700         70.83	     9.220
  42.720         84.17	    10.050
  42.740         73.33	     9.381
  42.760         91.67	    10.488
  42.780         78.33	     9.695
  42.800         70.00	     9.165
  42.820         78.33	     9.695
  42.840         50.00	     7.746
  42.860         66.67	     8.944
  42.880         71.67	     9.274
  42.900         80.00	     9.798
  42.920         76.67	     9.592
  42.940         81.67	     9.899
  42.960         60.00	     8.485
  42.980         61.67	     8.602
  43.000         47.50	     7.550
  43.020         55.83	     8.185
  43.040         53.33	     8.000
  43.060         49.17	     7.681
  43.080         37.50	     6.708
  43.100         48.33	     7.616
  43.120         36.67	     6.633
  43.140         36.67	     6.633
  43.160         44.17	     7.280
  43.180         44.17	     7.280
  43.200         41.67	     7.071
  43.220         49.17	     7.681
  43.240         47.50	     7.550
  43.260         54.17	     8.062
  43.280         38.33	     6.782
  43.300         45.00	     7.348
  43.320         55.00	     8.124
  43.340         40.00	     6.928
  43.360         39.17	     6.856
  43.380         55.83	     8.185
  43.400         60.00	     8.485
  43.420         39.17	     6.856
  43.440         43.33	     7.211
  43.460         63.33	     8.718
  43.480         50.00	     7.746
  43.500         59.17	     8.426
  43.520         64.17	     8.775
  43.540         67.50	     9.000
  43.560         72.50	     9.327
  43.580         65.00	     8.832
  43.600         76.67	     9.592
  43.620         77.50	     9.644
  43.640         76.67	     9.592
  43.660         90.00	    10.392
  43.680         60.00	     8.485
  43.700         76.67	     9.592
  43.720         72.50	     9.327
  43.740         75.83	     9.539
  43.760         63.33	     8.718
  43.780         61.67	     8.602
  43.800         62.50	     8.660
  43.820         60.00	     8.485
  43.840         85.00	    10.100
  43.860         75.00	     9.487
  43.880         75.00	     9.487
  43.900         73.33	     9.381
  43.920         73.33	     9.381
  43.940         72.50	     9.327
  43.960         73.33	     9.381
  43.980         60.00	     8.485
  44.000         79.17	     9.747
  44.020         58.33	     8.367
  44.040         53.33	     8.000
  44.060         68.33	     9.055
  44.080         70.00	     9.165
  44.100         64.17	     8.775
  44.120         57.50	     8.307
  44.140         70.83	     9.220
  44.160         85.83	    10.149
  44.180         81.67	     9.899
  44.200         60.00	     8.485
  44.220         70.00	     9.165
  44.240         83.33	    10.000
  44.260         85.00	    10.100
  44.280         80.00	     9.798
  44.300         86.67	    10.198
  44.320         79.17	     9.747
  44.340         82.50	     9.950
  44.360         78.33	     9.695
  44.380        100.00	    10.954
  44.400         99.17	    10.909
  44.420         96.67	    10.770
  44.440         99.17	    10.909
  44.460        123.33	    12.166
  44.480        105.00	    11.225
  44.500        123.33	    12.166
  44.520        113.33	    11.662
  44.540        134.17	    12.689
  44.560        105.00	    11.225
  44.580        105.00	    11.225
  44.600        126.67	    12.329
  44.620        104.17	    11.180
  44.640        116.67	    11.832
  44.660        103.33	    11.136
  44.680         99.17	    10.909
  44.700        101.67	    11.045
  44.720         84.17	    10.050
  44.740         80.83	     9.849
  44.760         93.33	    10.583
  44.780         97.50	    10.817
  44.800         76.67	     9.592
  44.820         75.83	     9.539
  44.840         80.00	     9.798
  44.860         71.67	     9.274
  44.880         68.33	     9.055
  44.900         70.83	     9.220
  44.920         60.83	     8.544
  44.940         71.67	     9.274
  44.960         75.83	     9.539
  44.980         88.33	    10.296
  45.000         67.50	     9.000
  45.020         70.00	     9.165
  45.040         79.17	     9.747
  45.060         77.50	     9.644
  45.080         75.83	     9.539
  45.100         88.33	    10.296
  45.120         67.50	     9.000
  45.140         53.33	     8.000
  45.160         62.50	     8.660
  45.180         62.50	     8.660
  45.200         45.83	     7.416
  45.220         58.33	     8.367
  45.240         65.00	     8.832
  45.260         62.50	     8.660
  45.280         58.33	     8.367
  45.300         55.83	     8.185
  45.320         62.50	     8.660
  45.340         79.17	     9.747
  45.360         70.00	     9.165
  45.380         71.67	     9.274
  45.400         66.67	     8.944
  45.420         80.83	     9.849
  45.440         90.83	    10.440
  45.460        105.83	    11.269
  45.480        110.00	    11.489
  45.500        130.00	    12.490
  45.520        165.00	    14.071
  45.540        215.83	    16.093
  45.560        240.83	    17.000
  45.580        261.67	    17.720
  45.600        333.33	    20.000
  45.620        302.50	    19.053
  45.640        310.83	    19.313
  45.660        297.50	    18.894
  45.680        268.33	    17.944
  45.700        237.50	    16.882
  45.720        214.17	    16.031
  45.740        232.50	    16.703
  45.760        190.83	    15.133
  45.780        199.17	    15.460
  45.800        200.83	    15.524
  45.820        200.83	    15.524
  45.840        252.50	    17.407
  45.860        215.83	    16.093
  45.880        128.33	    12.410
  45.900        115.00	    11.747
  45.920        143.33	    13.115
  45.940        100.83	    11.000
  45.960        135.83	    12.767
  45.980        133.33	    12.649
  46.000         89.17	    10.344
  46.020         47.50	     7.550
  46.040         85.83	    10.149
  46.060         60.00	     8.485
  46.080         60.83	     8.544
  46.100         46.67	     7.483
  46.120         55.00	     8.124
  46.140         54.17	     8.062
  46.160         47.50	     7.550
  46.180         44.17	     7.280
  46.200         45.83	     7.416
  46.220         41.67	     7.071
  46.240         35.00	     6.481
  46.260         43.33	     7.211
  46.280         39.17	     6.856
  46.300         38.33	     6.782
  46.320         33.33	     6.325
  46.340         36.67	     6.633
  46.360         27.50	     5.745
  46.380         43.33	     7.211
  46.400         41.67	     7.071
  46.420         34.17	     6.403
  46.440         28.33	     5.831
  46.460         37.50	     6.708
  46.480         31.67	     6.164
  46.500         33.33	     6.325
  46.520         28.33	     5.831
  46.540         26.67	     5.657
  46.560         30.00	     6.000
  46.580         33.33	     6.325
  46.600         46.67	     7.483
  46.620         34.17	     6.403
  46.640         31.67	     6.164
  46.660         27.50	     5.745
  46.680         31.67	     6.164
  46.700         45.83	     7.416
  46.720         32.50	     6.245
  46.740         44.17	     7.280
  46.760         41.67	     7.071
  46.780         35.83	     6.557
  46.800         44.17	     7.280
  46.820         24.17	     5.385
  46.840         44.17	     7.280
  46.860         32.50	     6.245
  46.880         36.67	     6.633
  46.900         35.83	     6.557
  46.920         40.83	     7.000
  46.940         34.17	     6.403
  46.960         37.50	     6.708
  46.980         29.17	     5.916
  47.000         31.67	     6.164
  47.020         32.50	     6.245
  47.040         47.50	     7.550
  47.060         40.83	     7.000
  47.080         42.50	     7.141
  47.100         44.17	     7.280
  47.120         47.50	     7.550
  47.140         68.33	     9.055
  47.160         70.00	     9.165
  47.180         75.00	     9.487
  47.200         75.00	     9.487
  47.220         71.67	     9.274
  47.240         67.50	     9.000
  47.260         65.83	     8.888
  47.280         61.67	     8.602
  47.300         50.83	     7.810
  47.320         45.83	     7.416
  47.340         53.33	     8.000
  47.360         51.67	     7.874
  47.380         42.50	     7.141
  47.400         42.50	     7.141
  47.420         33.33	     6.325
  47.440         37.50	     6.708
  47.460         43.33	     7.211
  47.480         36.67	     6.633
  47.500         42.50	     7.141
  47.520         39.17	     6.856
  47.540         30.83	     6.083
  47.560         36.67	     6.633
  47.580         25.83	     5.568
  47.600         31.67	     6.164
  47.620         32.50	     6.245
  47.640         30.83	     6.083
  47.660         32.50	     6.245
  47.680         30.83	     6.083
  47.700         31.67	     6.164
  47.720         26.67	     5.657
  47.740         35.83	     6.557
  47.760         34.17	     6.403
  47.780         24.17	     5.385
  47.800         35.83	     6.557
  47.820         40.00	     6.928
  47.840         30.00	     6.000
  47.860         42.50	     7.141
  47.880         39.17	     6.856
  47.900         45.83	     7.416
  47.920         41.67	     7.071
  47.940         32.50	     6.245
  47.960         36.67	     6.633
  47.980         55.00	     8.124
  48.000         50.83	     7.810
  48.020         64.17	     8.775
  48.040         45.00	     7.348
  48.060         50.00	     7.746
  48.080         40.00	     6.928
  48.100         35.83	     6.557
  48.120         44.17	     7.280
  48.140         65.83	     8.888
  48.160         63.33	     8.718
  48.180         46.67	     7.483
  48.200         65.00	     8.832
  48.220         59.17	     8.426
  48.240         57.50	     8.307
  48.260         42.50	     7.141
  48.280         37.50	     6.708
  48.300         52.50	     7.937
  48.320         45.00	     7.348
  48.340         48.33	     7.616
  48.360         41.67	     7.071
  48.380         49.17	     7.681
  48.400         35.83	     6.557
  48.420         41.67	     7.071
  48.440         40.83	     7.000
  48.460         41.67	     7.071
  48.480         40.83	     7.000
  48.500         29.17	     5.916
  48.520         35.83	     6.557
  48.540         31.67	     6.164
  48.560         35.83	     6.557
  48.580         34.17	     6.403
  48.600         32.50	     6.245
  48.620         36.67	     6.633
  48.640         34.17	     6.403
  48.660         38.33	     6.782
  48.680         39.17	     6.856
  48.700         29.17	     5.916
  48.720         35.83	     6.557
  48.740         33.33	     6.325
  48.760         28.33	     5.831
  48.780         41.67	     7.071
  48.800         42.50	     7.141
  48.820         41.67	     7.071
  48.840         42.50	     7.141
  48.860         39.17	     6.856
  48.880         54.17	     8.062
  48.900         41.67	     7.071
  48.920         40.83	     7.000
  48.940         57.50	     8.307
  48.960         50.83	     7.810
  48.980         41.67	     7.071
  49.000         52.50	     7.937
  49.020         54.17	     8.062
  49.040         38.33	     6.782
  49.060         34.17	     6.403
  49.080         46.67	     7.483
  49.100         42.50	     7.141
  49.120         49.17	     7.681
  49.140         51.67	     7.874
  49.160         33.33	     6.325
  49.180         38.33	     6.782
  49.200         30.00	     6.000
  49.220         50.00	     7.746
  49.240         42.50	     7.141
  49.260         64.17	     8.775
  49.280         44.17	     7.280
  49.300         45.00	     7.348
  49.320         40.83	     7.000
  49.340         32.50	     6.245
  49.360         42.50	     7.141
  49.380         31.67	     6.164
  49.400         33.33	     6.325
  49.420         48.33	     7.616
  49.440         55.83	     8.185
  49.460         46.67	     7.483
  49.480         50.00	     7.746
  49.500         41.67	     7.071
  49.520         37.50	     6.708
  49.540         46.67	     7.483
  49.560         34.17	     6.403
  49.580         40.83	     7.000
  49.600         46.67	     7.483
  49.620         51.67	     7.874
  49.640         40.83	     7.000
  49.660         41.67	     7.071
  49.680         50.83	     7.810
  49.700         44.17	     7.280
  49.720         43.33	     7.211
  49.740         42.50	     7.141
  49.760         54.17	     8.062
  49.780         60.00	     8.485
  49.800         70.83	     9.220
  49.820         64.17	     8.775
  49.840         75.00	     9.487
  49.860         60.83	     8.544
  49.880         62.50	     8.660
  49.900         73.33	     9.381
  49.920         80.00	     9.798
  49.940         83.33	    10.000
  49.960         90.83	    10.440
  49.980        105.00	    11.225
  50.000         77.50	     9.644
  50.020         93.33	    10.583
  50.040         86.67	    10.198
  50.060         90.83	    10.440
  50.080        110.83	    11.533
  50.100        150.83	    13.454
  50.120        208.33	    15.811
  50.140        259.17	    17.635
  50.160        372.50	    21.142
  50.180        433.33	    22.804
  50.200        349.17	    20.469
  50.220        207.50	    15.780
  50.240        152.50	    13.528
  50.260        160.00	    13.856
  50.280        197.50	    15.395
  50.300        240.83	    17.000
  50.320        242.50	    17.059
  50.340        178.33	    14.629
  50.360        119.17	    11.958
  50.380        100.83	    11.000
  50.400         87.50	    10.247
  50.420         69.17	     9.110
  50.440         53.33	     8.000
  50.460         57.50	     8.307
  50.480         54.17	     8.062
  50.500         60.83	     8.544
  50.520         65.00	     8.832
  50.540         56.67	     8.246
  50.560         50.00	     7.746
  50.580         60.83	     8.544
  50.600         60.00	     8.485
  50.620         70.83	     9.220
  50.640         74.17	     9.434
  50.660         71.67	     9.274
  50.680         72.50	     9.327
  50.700         63.33	     8.718
  50.720         69.17	     9.110
  50.740         67.50	     9.000
  50.760         59.17	     8.426
  50.780         55.00	     8.124
  50.800         60.00	     8.485
  50.820         41.67	     7.071
  50.840         51.67	     7.874
  50.860         45.00	     7.348
  50.880         47.50	     7.550
  50.900         43.33	     7.211
  50.920         44.17	     7.280
  50.940         54.17	     8.062
  50.960         36.67	     6.633
  50.980         32.50	     6.245
  51.000         45.00	     7.348
  51.020         50.00	     7.746
  51.040         30.83	     6.083
  51.060         47.50	     7.550
  51.080         47.50	     7.550
  51.100         49.17	     7.681
  51.120         52.50	     7.937
  51.140         56.67	     8.246
  51.160         76.67	     9.592
  51.180         87.50	    10.247
  51.200         98.33	    10.863
  51.220         70.00	     9.165
  51.240         62.50	     8.660
  51.260         69.17	     9.110
  51.280         56.67	     8.246
  51.300         70.83	     9.220
  51.320         68.33	     9.055
  51.340         66.67	     8.944
  51.360         63.33	     8.718
  51.380         60.00	     8.485
  51.400         52.50	     7.937
  51.420         49.17	     7.681
  51.440         43.33	     7.211
  51.460         45.00	     7.348
  51.480         40.00	     6.928
  51.500         32.50	     6.245
  51.520         25.00	     5.477
  51.540         36.67	     6.633
  51.560         34.17	     6.403
  51.580         44.17	     7.280
  51.600         30.00	     6.000
  51.620         40.83	     7.000
  51.640         40.00	     6.928
  51.660         32.50	     6.245
  51.680         39.17	     6.856
  51.700         34.17	     6.403
  51.720         36.67	     6.633
  51.740         41.67	     7.071
  51.760         33.33	     6.325
  51.780         31.67	     6.164
  51.800         40.83	     7.000
  51.820         25.83	     5.568
  51.840         32.50	     6.245
  51.860         26.67	     5.657
  51.880         35.83	     6.557
  51.900         35.00	     6.481
  51.920         23.33	     5.292
  51.940         35.00	     6.481
  51.960         33.33	     6.325
  51.980         30.83	     6.083
  52.000         25.83	     5.568
  52.020         29.17	     5.916
  52.040         38.33	     6.782
  52.060         37.50	     6.708
  52.080         25.00	     5.477
  52.100         29.17	     5.916
  52.120         33.33	     6.325
  52.140         38.33	     6.782
  52.160         37.50	     6.708
  52.180         38.33	     6.782
  52.200         45.00	     7.348
  52.220         54.17	     8.062
  52.240         42.50	     7.141
  52.260         33.33	     6.325
  52.280         33.33	     6.325
  52.300         32.50	     6.245
  52.320         41.67	     7.071
  52.340         48.33	     7.616
  52.360         42.50	     7.141
  52.380         42.50	     7.141
  52.400         34.17	     6.403
  52.420         40.83	     7.000
  52.440         27.50	     5.745
  52.460         38.33	     6.782
  52.480         56.67	     8.246
  52.500         44.17	     7.280
  52.520         47.50	     7.550
  52.540         47.50	     7.550
  52.560         55.00	     8.124
  52.580         60.83	     8.544
  52.600         74.17	     9.434
  52.620         75.83	     9.539
  52.640         43.33	     7.211
  52.660         38.33	     6.782
  52.680         46.67	     7.483
  52.700         49.17	     7.681
  52.720         43.33	     7.211
  52.740         59.17	     8.426
  52.760         43.33	     7.211
  52.780         43.33	     7.211
  52.800         35.83	     6.557
  52.820         45.83	     7.416
  52.840         33.33	     6.325
  52.860         53.33	     8.000
  52.880         30.83	     6.083
  52.900         30.83	     6.083
  52.920         44.17	     7.280
  52.940         45.83	     7.416
  52.960         36.67	     6.633
  52.980         34.17	     6.403
  53.000         48.33	     7.616
  53.020         35.83	     6.557
  53.040         40.83	     7.000
  53.060         28.33	     5.831
  53.080         43.33	     7.211
  53.100         49.17	     7.681
  53.120         32.50	     6.245
  53.140         36.67	     6.633
  53.160         36.67	     6.633
  53.180         56.67	     8.246
  53.200         65.83	     8.888
  53.220         66.67	     8.944
  53.240         66.67	     8.944
  53.260         50.83	     7.810
  53.280         60.00	     8.485
  53.300         38.33	     6.782
  53.320         52.50	     7.937
  53.340         50.00	     7.746
  53.360         53.33	     8.000
  53.380         48.33	     7.616
  53.400         41.67	     7.071
  53.420         54.17	     8.062
  53.440         35.00	     6.481
  53.460         35.83	     6.557
  53.480         39.17	     6.856
  53.500         32.50	     6.245
  53.520         32.50	     6.245
  53.540         35.00	     6.481
  53.560         31.67	     6.164
  53.580         28.33	     5.831
  53.600         30.83	     6.083
  53.620         32.50	     6.245
  53.640         26.67	     5.657
  53.660         30.83	     6.083
  53.680         29.17	     5.916
  53.700         27.50	     5.745
  53.720         42.50	     7.141
  53.740         41.67	     7.071
  53.760         37.50	     6.708
  53.780         27.50	     5.745
  53.800         21.67	     5.099
  53.820         36.67	     6.633
  53.840         37.50	     6.708
  53.860         28.33	     5.831
  53.880         19.17	     4.796
  53.900         42.50	     7.141
  53.920         35.83	     6.557
  53.940         33.33	     6.325
  53.960         25.83	     5.568
  53.980         44.17	     7.280
  54.000         40.00	     6.928
  54.020         37.50	     6.708
  54.040         29.17	     5.916
  54.060         27.50	     5.745
  54.080         32.50	     6.245
  54.100         29.17	     5.916
  54.120         31.67	     6.164
  54.140         34.17	     6.403
  54.160         25.00	     5.477
  54.180         35.00	     6.481
  54.200         49.17	     7.681
  54.220         30.83	     6.083
  54.240         32.50	     6.245
  54.260         37.50	     6.708
  54.280         35.83	     6.557
  54.300         40.00	     6.928
  54.320         37.50	     6.708
  54.340         36.67	     6.633
  54.360         30.00	     6.000
  54.380         40.83	     7.000
  54.400         41.67	     7.071
  54.420         37.50	     6.708
  54.440         41.67	     7.071
  54.460         34.17	     6.403
  54.480         35.00	     6.481
  54.500         37.50	     6.708
  54.520         41.67	     7.071
  54.540         45.00	     7.348
  54.560         36.67	     6.633
  54.580         39.17	     6.856
  54.600         31.67	     6.164
  54.620         40.00	     6.928
  54.640         29.17	     5.916
  54.660         45.83	     7.416
  54.680         39.17	     6.856
  54.700         33.33	     6.325
  54.720         45.00	     7.348
  54.740         40.00	     6.928
  54.760         53.33	     8.000
  54.780         44.17	     7.280
  54.800         46.67	     7.483
  54.820         68.33	     9.055
  54.840         78.33	     9.695
  54.860         71.67	     9.274
  54.880        118.33	    11.916
  54.900        170.00	    14.283
  54.920        215.83	    16.093
  54.940        194.17	    15.264
  54.960        129.17	    12.450
  54.980         98.33	    10.863
  55.000         91.67	    10.488
  55.020         93.33	    10.583
  55.040        113.33	    11.662
  55.060        108.33	    11.402
  55.080        123.33	    12.166
  55.100         76.67	     9.592
  55.120         75.83	     9.539
  55.140         55.83	     8.185
  55.160         53.33	     8.000
  55.180         40.83	     7.000
  55.200         51.67	     7.874
  55.220         48.33	     7.616
  55.240         42.50	     7.141
  55.260         45.83	     7.416
  55.280         47.50	     7.550
  55.300         60.00	     8.485
  55.320         80.00	     9.798
  55.340         82.50	     9.950
  55.360        110.83	    11.533
  55.380         92.50	    10.536
  55.400         80.83	     9.849
  55.420         54.17	     8.062
  55.440         64.17	     8.775
  55.460         62.50	     8.660
  55.480         56.67	     8.246
  55.500         75.83	     9.539
  55.520         76.67	     9.592
  55.540         60.83	     8.544
  55.560         50.83	     7.810
  55.580         50.83	     7.810
  55.600         44.17	     7.280
  55.620         50.83	     7.810
  55.640         33.33	     6.325
  55.660         36.67	     6.633
  55.680         45.00	     7.348
  55.700         40.83	     7.000
  55.720         35.83	     6.557
  55.740         38.33	     6.782
  55.760         48.33	     7.616
  55.780         46.67	     7.483
  55.800         55.00	     8.124
  55.820         37.50	     6.708
  55.840         49.17	     7.681
  55.860         45.00	     7.348
  55.880         46.67	     7.483
  55.900         40.83	     7.000
  55.920         44.17	     7.280
  55.940         53.33	     8.000
  55.960         45.00	     7.348
  55.980         44.17	     7.280
  56.000         46.67	     7.483
  56.020         47.50	     7.550
  56.040         49.17	     7.681
  56.060         40.83	     7.000
  56.080         40.83	     7.000
  56.100         30.83	     6.083
  56.120         36.67	     6.633
  56.140         38.33	     6.782
  56.160         40.00	     6.928
  56.180         35.83	     6.557
  56.200         36.67	     6.633
  56.220         43.33	     7.211
  56.240         40.00	     6.928
  56.260         28.33	     5.831
  56.280         26.67	     5.657
  56.300         29.17	     5.916
  56.320         30.00	     6.000
  56.340         31.67	     6.164
  56.360         34.17	     6.403
  56.380         40.83	     7.000
  56.400         34.17	     6.403
  56.420         38.33	     6.782
  56.440         33.33	     6.325
  56.460         45.83	     7.416
  56.480         45.00	     7.348
  56.500         36.67	     6.633
  56.520         39.17	     6.856
  56.540         42.50	     7.141
  56.560         46.67	     7.483
  56.580         31.67	     6.164
  56.600         36.67	     6.633
  56.620         29.17	     5.916
  56.640         32.50	     6.245
  56.660         41.67	     7.071
  56.680         37.50	     6.708
  56.700         44.17	     7.280
  56.720         34.17	     6.403
  56.740         30.00	     6.000
  56.760         37.50	     6.708
  56.780         31.67	     6.164
  56.800         30.00	     6.000
  56.820         40.83	     7.000
  56.840         30.00	     6.000
  56.860         35.83	     6.557
  56.880         50.83	     7.810
  56.900         44.17	     7.280
  56.920         38.33	     6.782
  56.940         37.50	     6.708
  56.960         46.67	     7.483
  56.980         34.17	     6.403
  57.000         45.00	     7.348
  57.020         35.00	     6.481
  57.040         41.67	     7.071
  57.060         37.50	     6.708
  57.080         46.67	     7.483
  57.100         48.33	     7.616
  57.120         34.17	     6.403
  57.140         29.17	     5.916
  57.160         34.17	     6.403
  57.180         44.17	     7.280
  57.200         30.83	     6.083
  57.220         42.50	     7.141
  57.240         55.83	     8.185
  57.260         48.33	     7.616
  57.280         54.17	     8.062
  57.300         45.83	     7.416
  57.320         50.00	     7.746
  57.340         34.17	     6.403
  57.360         35.83	     6.557
  57.380         40.83	     7.000
  57.400         41.67	     7.071
  57.420         42.50	     7.141
  57.440         46.67	     7.483
  57.460         43.33	     7.211
  57.480         40.00	     6.928
  57.500         44.17	     7.280
  57.520         40.00	     6.928
  57.540         31.67	     6.164
  57.560         44.17	     7.280
  57.580         40.83	     7.000
  57.600         35.00	     6.481
  57.620         42.50	     7.141
  57.640         36.67	     6.633
  57.660         35.00	     6.481
  57.680         36.67	     6.633
  57.700         44.17	     7.280
  57.720         50.83	     7.810
  57.740         32.50	     6.245
  57.760         43.33	     7.211
  57.780         33.33	     6.325
  57.800         34.17	     6.403
  57.820         36.67	     6.633
  57.840         43.33	     7.211
  57.860         39.17	     6.856
  57.880         41.67	     7.071
  57.900         32.50	     6.245
  57.920         38.33	     6.782
  57.940         41.67	     7.071
  57.960         42.50	     7.141
  57.980         25.83	     5.568
  58.000         38.33	     6.782
  58.020         31.67	     6.164
  58.040         40.00	     6.928
  58.060         33.33	     6.325
  58.080         50.83	     7.810
  58.100         58.33	     8.367
  58.120         51.67	     7.874
  58.140         45.83	     7.416
  58.160         42.50	     7.141
  58.180         35.00	     6.481
  58.200         45.83	     7.416
  58.220         47.50	     7.550
  58.240         51.67	     7.874
  58.260         46.67	     7.483
  58.280         35.83	     6.557
  58.300         54.17	     8.062
  58.320         47.50	     7.550
  58.340         40.00	     6.928
  58.360         42.50	     7.141
  58.380         36.67	     6.633
  58.400         32.50	     6.245
  58.420         33.33	     6.325
  58.440         36.67	     6.633
  58.460         42.50	     7.141
  58.480         33.33	     6.325
  58.500         41.67	     7.071
  58.520         33.33	     6.325
  58.540         53.33	     8.000
  58.560         35.83	     6.557
  58.580         28.33	     5.831
  58.600         45.00	     7.348
  58.620         45.83	     7.416
  58.640         50.83	     7.810
  58.660         37.50	     6.708
  58.680         35.83	     6.557
  58.700         33.33	     6.325
  58.720         49.17	     7.681
  58.740         43.33	     7.211
  58.760         43.33	     7.211
  58.780         43.33	     7.211
  58.800         35.83	     6.557
  58.820         43.33	     7.211
  58.840         42.50	     7.141
  58.860         40.83	     7.000
  58.880         44.17	     7.280
  58.900         43.33	     7.211
  58.920         35.83	     6.557
  58.940         35.83	     6.557
  58.960         51.67	     7.874
  58.980         41.67	     7.071
  59.000         40.83	     7.000
  59.020         39.17	     6.856
  59.040         35.00	     6.481
  59.060         43.33	     7.211
  59.080         37.50	     6.708
  59.100         40.83	     7.000
  59.120         35.00	     6.481
  59.140         40.83	     7.000
  59.160         55.83	     8.185
  59.180         67.50	     9.000
  59.200         69.17	     9.110
  59.220         99.17	    10.909
  59.240         85.00	    10.100
  59.260         80.83	     9.849
  59.280         52.50	     7.937
  59.300         37.50	     6.708
  59.320         63.33	     8.718
  59.340         62.50	     8.660
  59.360         55.83	     8.185
  59.380         70.00	     9.165
  59.400         66.67	     8.944
  59.420         45.83	     7.416
  59.440         42.50	     7.141
  59.460         40.00	     6.928
  59.480         44.17	     7.280
  59.500         40.83	     7.000
  59.520         49.17	     7.681
  59.540         44.17	     7.280
  59.560         41.67	     7.071
  59.580         45.83	     7.416
  59.600         32.50	     6.245
  59.620         42.50	     7.141
  59.640         44.17	     7.280
  59.660         35.00	     6.481
  59.680         33.33	     6.325
  59.700         43.33	     7.211
  59.720         40.00	     6.928
  59.740         55.00	     8.124
  59.760         43.33	     7.211
  59.780         39.17	     6.856
  59.800         55.83	     8.185
  59.820         43.33	     7.211
  59.840         37.50	     6.708
  59.860         58.33	     8.367
  59.880         60.83	     8.544
  59.900         81.67	     9.899
  59.920        109.17	    11.446
  59.940        160.00	    13.856
  59.960        210.83	    15.906
  59.980        242.50	    17.059
  60.000        248.33	    17.263
  60.020        235.83	    16.823
  60.040        175.00	    14.491
  60.060        114.17	    11.705
  60.080        107.50	    11.358
  60.100        116.67	    11.832
  60.120        140.00	    12.961
  60.140        149.17	    13.379
  60.160        125.00	    12.247
  60.180        154.17	    13.601
  60.200        109.17	    11.446
  60.220         94.17	    10.630
  60.240         69.17	     9.110
  60.260         63.33	     8.718
  60.280         60.83	     8.544
  60.300         54.17	     8.062
  60.320         59.17	     8.426
  60.340         50.83	     7.810
  60.360         52.50	     7.937
  60.380         45.83	     7.416
  60.400         41.67	     7.071
  60.420         45.00	     7.348
  60.440         35.83	     6.557
  60.460         37.50	     6.708
  60.480         35.83	     6.557
  60.500         50.83	     7.810
  60.520         42.50	     7.141
  60.540         41.67	     7.071
  60.560         32.50	     6.245
  60.580         35.00	     6.481
  60.600         44.17	     7.280
  60.620         37.50	     6.708
  60.640         29.17	     5.916
  60.660         47.50	     7.550
  60.680         43.33	     7.211
  60.700         43.33	     7.211
  60.720         45.00	     7.348
  60.740         45.83	     7.416
  60.760         40.00	     6.928
  60.780         50.00	     7.746
  60.800         41.67	     7.071
  60.820         36.67	     6.633
  60.840         50.00	     7.746
  60.860         42.50	     7.141
  60.880         38.33	     6.782
  60.900         45.00	     7.348
  60.920         35.83	     6.557
  60.940         51.67	     7.874
  60.960         37.50	     6.708
  60.980         29.17	     5.916
  61.000         50.00	     7.746
  61.020         36.67	     6.633
  61.040         42.50	     7.141
  61.060         51.67	     7.874
  61.080         39.17	     6.856
  61.100         38.33	     6.782
  61.120         44.17	     7.280
  61.140         43.33	     7.211
  61.160         45.00	     7.348
  61.180         37.50	     6.708
  61.200         40.83	     7.000
  61.220         33.33	     6.325
  61.240         40.00	     6.928
  61.260         35.83	     6.557
  61.280         50.83	     7.810
  61.300         46.67	     7.483
  61.320         36.67	     6.633
  61.340         45.00	     7.348
  61.360         37.50	     6.708
  61.380         44.17	     7.280
  61.400         44.17	     7.280
  61.420         45.00	     7.348
  61.440         52.50	     7.937
  61.460         44.17	     7.280
  61.480         53.33	     8.000
  61.500         62.50	     8.660
  61.520         53.33	     8.000
  61.540         49.17	     7.681
  61.560         54.17	     8.062
  61.580         47.50	     7.550
  61.600         41.67	     7.071
  61.620         53.33	     8.000
  61.640         55.83	     8.185
  61.660         51.67	     7.874
  61.680         64.17	     8.775
  61.700         65.83	     8.888
  61.720         55.83	     8.185
  61.740         59.17	     8.426
  61.760         55.83	     8.185
  61.780         44.17	     7.280
  61.800         38.33	     6.782
  61.820         35.83	     6.557
  61.840         55.00	     8.124
  61.860         48.33	     7.616
  61.880         50.83	     7.810
  61.900         35.00	     6.481
  61.920         48.33	     7.616
  61.940         38.33	     6.782
  61.960         43.33	     7.211
  61.980         38.33	     6.782
  62.000         33.33	     6.325
  62.020         27.50	     5.745
  62.040         48.33	     7.616
  62.060         33.33	     6.325
  62.080         35.00	     6.481
  62.100         44.17	     7.280
  62.120         36.67	     6.633
  62.140         41.67	     7.071
  62.160         32.50	     6.245
  62.180         46.67	     7.483
  62.200         37.50	     6.708
  62.220         35.00	     6.481
  62.240         35.00	     6.481
  62.260         45.00	     7.348
  62.280         31.67	     6.164
  62.300         31.67	     6.164
  62.320         50.00	     7.746
  62.340         35.00	     6.481
  62.360         29.17	     5.916
  62.380         35.83	     6.557
  62.400         36.67	     6.633
  62.420         35.00	     6.481
  62.440         40.83	     7.000
  62.460         34.17	     6.403
  62.480         36.67	     6.633
  62.500         39.17	     6.856
  62.520         29.17	     5.916
  62.540         37.50	     6.708
  62.560         33.33	     6.325
  62.580         30.00	     6.000
  62.600         28.33	     5.831
  62.620         35.83	     6.557
  62.640         38.33	     6.782
  62.660         30.00	     6.000
  62.680         54.17	     8.062
  62.700         46.67	     7.483
  62.720         51.67	     7.874
  62.740         54.17	     8.062
  62.760         41.67	     7.071
  62.780         44.17	     7.280
  62.800         30.83	     6.083
  62.820         41.67	     7.071
  62.840         31.67	     6.164
  62.860         38.33	     6.782
  62.880         45.83	     7.416
  62.900         48.33	     7.616
  62.920         40.83	     7.000
  62.940         42.50	     7.141
  62.960         38.33	     6.782
  62.980         43.33	     7.211
  63.000         39.17	     6.856
  63.020         38.33	     6.782
  63.040         42.50	     7.141
  63.060         46.67	     7.483
  63.080         38.33	     6.782
  63.100         35.00	     6.481
  63.120         47.50	     7.550
  63.140         34.17	     6.403
  63.160         51.67	     7.874
  63.180         38.33	     6.782
  63.200         23.33	     5.292
  63.220         37.50	     6.708
  63.240         42.50	     7.141
  63.260         48.33	     7.616
  63.280         45.00	     7.348
  63.300         38.33	     6.782
  63.320         40.00	     6.928
  63.340         40.83	     7.000
  63.360         43.33	     7.211
  63.380         30.00	     6.000
  63.400         32.50	     6.245
  63.420         40.83	     7.000
  63.440         33.33	     6.325
  63.460         48.33	     7.616
  63.480         43.33	     7.211
  63.500         43.33	     7.211
  63.520         40.00	     6.928
  63.540         49.17	     7.681
  63.560         55.83	     8.185
  63.580         40.83	     7.000
  63.600         42.50	     7.141
  63.620         40.00	     6.928
  63.640         44.17	     7.280
  63.660         45.00	     7.348
  63.680         37.50	     6.708
  63.700         43.33	     7.211
  63.720         50.83	     7.810
  63.740         52.50	     7.937
  63.760         40.83	     7.000
  63.780         46.67	     7.483
  63.800         48.33	     7.616
  63.820         38.33	     6.782
  63.840         38.33	     6.782
  63.860         45.83	     7.416
  63.880         67.50	     9.000
  63.900         55.83	     8.185
  63.920         48.33	     7.616
  63.940         61.67	     8.602
  63.960         47.50	     7.550
  63.980         40.83	     7.000
  64.000         53.33	     8.000
  64.020         51.67	     7.874
  64.040         78.33	     9.695
  64.060         64.17	     8.775
  64.080         76.67	     9.592
  64.100         78.33	     9.695
  64.120         72.50	     9.327
  64.140         57.50	     8.307
  64.160         58.33	     8.367
  64.180         43.33	     7.211
  64.200         60.83	     8.544
  64.220         61.67	     8.602
  64.240         75.00	     9.487
  64.260         73.33	     9.381
  64.280         70.00	     9.165
  64.300         53.33	     8.000
  64.320         55.00	     8.124
  64.340         57.50	     8.307
  64.360         47.50	     7.550
  64.380         45.00	     7.348
  64.400         52.50	     7.937
  64.420         36.67	     6.633
  64.440         51.67	     7.874
  64.460         48.33	     7.616
  64.480         36.67	     6.633
  64.500         45.00	     7.348
  64.520         45.83	     7.416
  64.540         47.50	     7.550
  64.560         35.00	     6.481
  64.580         43.33	     7.211
  64.600         44.17	     7.280
  64.620         37.50	     6.708
  64.640         49.17	     7.681
  64.660         44.17	     7.280
  64.680         35.00	     6.481
  64.700         54.17	     8.062
  64.720         53.33	     8.000
  64.740         50.00	     7.746
  64.760         52.50	     7.937
  64.780         33.33	     6.325
  64.800         62.50	     8.660
  64.820         72.50	     9.327
  64.840         70.00	     9.165
  64.860         61.67	     8.602
  64.880         65.83	     8.888
  64.900         57.50	     8.307
  64.920         59.17	     8.426
  64.940         47.50	     7.550
  64.960         65.00	     8.832
  64.980         59.17	     8.426
  65.000         60.83	     8.544
