
Filename:
	C:\Program Files\Thermo Electron\WinXRD\Datafiles\F_HERMAN\FIEN\15_1_SEPT_FILTER.raw

File Created:
	December 20, 2018 - 04:02 PM

Specimen Id:
	15/1/SEPTEMBRE FILTRE

Specimen Name:
	

Specimen Description:
	

Comment:
Scan Type: 2Theta Scan
Start Angle: 1 deg.
Stop Angle: 65 deg.
Num Points: 3201
Step Size: 0.02 deg.
Scan Rate: 1.000000
Scan Mode: Continuous
Wavelength: 1.540562
\Kalpha1: 1.540562	\Kalpha2: 1.544390	\Kbeta: 1.392218

Optics:
		Detector:
			 Type: Fixed Slits
		Tube: 
			 Type: Fixed Slits


Datas:
 Pos [deg]       Rate [CPS]      ESD [-]

Range 1 ---> Iteration 1
   1.000       1009.17	    34.799
   1.020        723.33	    29.462
   1.040        520.83	    25.000
   1.060        451.67	    23.281
   1.080        498.33	    24.454
   1.100        587.50	    26.552
   1.120        539.17	    25.436
   1.140        453.33	    23.324
   1.160        465.83	    23.643
   1.180        412.50	    22.249
   1.200        439.17	    22.956
   1.220        410.83	    22.204
   1.240        402.50	    21.977
   1.260        409.17	    22.159
   1.280        492.50	    24.310
   1.300        587.50	    26.552
   1.320        680.83	    28.583
   1.340        782.50	    30.643
   1.360       1095.83	    36.263
   1.380       1100.00	    36.332
   1.400       1253.33	    38.781
   1.420       1200.00	    37.947
   1.440       1220.83	    38.275
   1.460       1231.67	    38.445
   1.480       1215.83	    38.197
   1.500       1069.17	    35.819
   1.520       1099.17	    36.318
   1.540       1116.67	    36.606
   1.560       1118.33	    36.633
   1.580       1037.50	    35.285
   1.600        986.67	    34.409
   1.620        913.33	    33.106
   1.640        859.17	    32.109
   1.660        858.33	    32.094
   1.680        801.67	    31.016
   1.700        695.00	    28.879
   1.720        670.83	    28.373
   1.740        666.67	    28.284
   1.760        620.83	    27.295
   1.780        537.50	    25.397
   1.800        506.67	    24.658
   1.820        524.17	    25.080
   1.840        480.00	    24.000
   1.860        470.83	    23.770
   1.880        454.17	    23.345
   1.900        421.67	    22.494
   1.920        410.00	    22.181
   1.940        394.17	    21.749
   1.960        370.00	    21.071
   1.980        416.67	    22.361
   2.000        395.00	    21.772
   2.020        391.67	    21.679
   2.040        360.83	    20.809
   2.060        364.17	    20.905
   2.080        381.67	    21.401
   2.100        334.17	    20.025
   2.120        324.17	    19.723
   2.140        391.67	    21.679
   2.160        327.50	    19.824
   2.180        328.33	    19.849
   2.200        335.00	    20.050
   2.220        332.50	    19.975
   2.240        320.00	    19.596
   2.260        311.67	    19.339
   2.280        291.67	    18.708
   2.300        298.33	    18.921
   2.320        284.17	    18.466
   2.340        280.00	    18.330
   2.360        291.67	    18.708
   2.380        265.83	    17.861
   2.400        299.17	    18.947
   2.420        290.00	    18.655
   2.440        265.00	    17.833
   2.460        275.00	    18.166
   2.480        250.00	    17.321
   2.500        266.67	    17.889
   2.520        263.33	    17.776
   2.540        244.17	    17.117
   2.560        255.83	    17.521
   2.580        274.17	    18.138
   2.600        250.00	    17.321
   2.620        255.83	    17.521
   2.640        258.33	    17.607
   2.660        248.33	    17.263
   2.680        250.83	    17.349
   2.700        245.83	    17.176
   2.720        220.00	    16.248
   2.740        229.17	    16.583
   2.760        227.50	    16.523
   2.780        222.50	    16.340
   2.800        230.00	    16.613
   2.820        207.50	    15.780
   2.840        230.00	    16.613
   2.860        239.17	    16.941
   2.880        215.83	    16.093
   2.900        228.33	    16.553
   2.920        215.00	    16.062
   2.940        234.17	    16.763
   2.960        192.50	    15.199
   2.980        220.00	    16.248
   3.000        199.17	    15.460
   3.020        220.00	    16.248
   3.040        225.83	    16.462
   3.060        188.33	    15.033
   3.080        210.00	    15.875
   3.100        218.33	    16.186
   3.120        194.17	    15.264
   3.140        208.33	    15.811
   3.160        198.33	    15.427
   3.180        177.50	    14.595
   3.200        175.83	    14.526
   3.220        177.50	    14.595
   3.240        180.83	    14.731
   3.260        173.33	    14.422
   3.280        182.50	    14.799
   3.300        190.83	    15.133
   3.320        195.83	    15.330
   3.340        191.67	    15.166
   3.360        150.00	    13.416
   3.380        191.67	    15.166
   3.400        197.50	    15.395
   3.420        191.67	    15.166
   3.440        198.33	    15.427
   3.460        185.00	    14.900
   3.480        169.17	    14.248
   3.500        189.17	    15.067
   3.520        179.17	    14.663
   3.540        160.00	    13.856
   3.560        161.67	    13.928
   3.580        167.50	    14.177
   3.600        165.83	    14.107
   3.620        185.83	    14.933
   3.640        164.17	    14.036
   3.660        138.33	    12.884
   3.680        175.00	    14.491
   3.700        156.67	    13.711
   3.720        166.67	    14.142
   3.740        161.67	    13.928
   3.760        161.67	    13.928
   3.780        142.50	    13.077
   3.800        154.17	    13.601
   3.820        135.83	    12.767
   3.840        158.33	    13.784
   3.860        151.67	    13.491
   3.880        165.00	    14.071
   3.900        145.00	    13.191
   3.920        163.33	    14.000
   3.940        146.67	    13.266
   3.960        148.33	    13.342
   3.980        170.00	    14.283
   4.000        155.83	    13.675
   4.020        142.50	    13.077
   4.040        150.00	    13.416
   4.060        136.67	    12.806
   4.080        160.83	    13.892
   4.100        137.50	    12.845
   4.120        135.00	    12.728
   4.140        128.33	    12.410
   4.160        136.67	    12.806
   4.180        143.33	    13.115
   4.200        118.33	    11.916
   4.220        140.00	    12.961
   4.240        135.83	    12.767
   4.260        114.17	    11.705
   4.280        142.50	    13.077
   4.300        142.50	    13.077
   4.320        130.83	    12.530
   4.340        130.83	    12.530
   4.360        145.00	    13.191
   4.380        140.00	    12.961
   4.400        138.33	    12.884
   4.420        141.67	    13.038
   4.440        136.67	    12.806
   4.460        123.33	    12.166
   4.480        128.33	    12.410
   4.500        149.17	    13.379
   4.520        127.50	    12.369
   4.540        118.33	    11.916
   4.560        121.67	    12.083
   4.580        130.00	    12.490
   4.600        121.67	    12.083
   4.620        115.83	    11.790
   4.640        105.83	    11.269
   4.660        124.17	    12.207
   4.680        100.00	    10.954
   4.700        119.17	    11.958
   4.720        105.83	    11.269
   4.740        129.17	    12.450
   4.760        121.67	    12.083
   4.780        115.83	    11.790
   4.800        110.00	    11.489
   4.820         94.17	    10.630
   4.840        102.50	    11.091
   4.860        109.17	    11.446
   4.880        135.00	    12.728
   4.900         96.67	    10.770
   4.920        125.83	    12.288
   4.940        115.00	    11.747
   4.960        104.17	    11.180
   4.980        125.83	    12.288
   5.000        120.83	    12.042
   5.020         98.33	    10.863
   5.040        114.17	    11.705
   5.060        113.33	    11.662
   5.080        114.17	    11.705
   5.100        102.50	    11.091
   5.120        108.33	    11.402
   5.140        110.00	    11.489
   5.160        101.67	    11.045
   5.180        110.83	    11.533
   5.200        118.33	    11.916
   5.220        100.00	    10.954
   5.240        105.83	    11.269
   5.260        108.33	    11.402
   5.280         91.67	    10.488
   5.300         94.17	    10.630
   5.320        100.00	    10.954
   5.340         86.67	    10.198
   5.360        105.00	    11.225
   5.380        106.67	    11.314
   5.400         86.67	    10.198
   5.420        112.50	    11.619
   5.440        106.67	    11.314
   5.460        115.00	    11.747
   5.480        110.00	    11.489
   5.500        116.67	    11.832
   5.520         84.17	    10.050
   5.540        100.00	    10.954
   5.560         90.00	    10.392
   5.580         80.00	     9.798
   5.600        104.17	    11.180
   5.620         95.00	    10.677
   5.640        107.50	    11.358
   5.660         87.50	    10.247
   5.680        112.50	    11.619
   5.700        115.00	    11.747
   5.720         87.50	    10.247
   5.740        109.17	    11.446
   5.760         93.33	    10.583
   5.780        100.00	    10.954
   5.800        103.33	    11.136
   5.820         92.50	    10.536
   5.840        102.50	    11.091
   5.860        102.50	    11.091
   5.880         82.50	     9.950
   5.900        106.67	    11.314
   5.920        106.67	    11.314
   5.940        117.50	    11.874
   5.960        103.33	    11.136
   5.980        111.67	    11.576
   6.000        121.67	    12.083
   6.020        137.50	    12.845
   6.040        129.17	    12.450
   6.060        115.83	    11.790
   6.080        135.00	    12.728
   6.100        136.67	    12.806
   6.120        126.67	    12.329
   6.140        148.33	    13.342
   6.160        165.00	    14.071
   6.180        140.00	    12.961
   6.200        190.83	    15.133
   6.220        190.00	    15.100
   6.240        224.17	    16.401
   6.260        205.83	    15.716
   6.280        217.50	    16.155
   6.300        235.00	    16.793
   6.320        260.83	    17.692
   6.340        243.33	    17.088
   6.360        223.33	    16.371
   6.380        214.17	    16.031
   6.400        188.33	    15.033
   6.420        164.17	    14.036
   6.440        158.33	    13.784
   6.460        153.33	    13.565
   6.480        125.00	    12.247
   6.500        135.00	    12.728
   6.520        107.50	    11.358
   6.540        111.67	    11.576
   6.560        125.00	    12.247
   6.580        105.00	    11.225
   6.600        108.33	    11.402
   6.620        105.00	    11.225
   6.640         95.83	    10.724
   6.660         87.50	    10.247
   6.680         90.00	    10.392
   6.700         92.50	    10.536
   6.720         86.67	    10.198
   6.740        111.67	    11.576
   6.760        105.00	    11.225
   6.780         95.83	    10.724
   6.800        100.00	    10.954
   6.820        103.33	    11.136
   6.840        103.33	    11.136
   6.860        104.17	    11.180
   6.880         97.50	    10.817
   6.900         90.00	    10.392
   6.920         83.33	    10.000
   6.940        105.83	    11.269
   6.960         92.50	    10.536
   6.980         96.67	    10.770
   7.000         95.00	    10.677
   7.020         88.33	    10.296
   7.040         79.17	     9.747
   7.060         95.00	    10.677
   7.080        102.50	    11.091
   7.100         93.33	    10.583
   7.120        115.83	    11.790
   7.140         83.33	    10.000
   7.160         91.67	    10.488
   7.180        101.67	    11.045
   7.200         85.00	    10.100
   7.220         80.00	     9.798
   7.240         73.33	     9.381
   7.260         89.17	    10.344
   7.280         89.17	    10.344
   7.300        119.17	    11.958
   7.320         84.17	    10.050
   7.340         75.83	     9.539
   7.360         94.17	    10.630
   7.380         85.83	    10.149
   7.400         86.67	    10.198
   7.420         88.33	    10.296
   7.440        108.33	    11.402
   7.460         87.50	    10.247
   7.480         83.33	    10.000
   7.500         93.33	    10.583
   7.520         90.00	    10.392
   7.540         97.50	    10.817
   7.560         83.33	    10.000
   7.580         82.50	     9.950
   7.600         78.33	     9.695
   7.620         73.33	     9.381
   7.640         93.33	    10.583
   7.660         80.83	     9.849
   7.680         65.83	     8.888
   7.700         98.33	    10.863
   7.720         65.83	     8.888
   7.740         70.00	     9.165
   7.760         78.33	     9.695
   7.780         95.83	    10.724
   7.800         73.33	     9.381
   7.820         76.67	     9.592
   7.840         85.00	    10.100
   7.860         77.50	     9.644
   7.880         71.67	     9.274
   7.900         90.83	    10.440
   7.920         74.17	     9.434
   7.940         93.33	    10.583
   7.960         71.67	     9.274
   7.980         85.00	    10.100
   8.000         65.83	     8.888
   8.020         77.50	     9.644
   8.040         80.00	     9.798
   8.060         83.33	    10.000
   8.080         75.83	     9.539
   8.100         85.00	    10.100
   8.120         82.50	     9.950
   8.140         70.00	     9.165
   8.160         75.00	     9.487
   8.180         77.50	     9.644
   8.200         75.83	     9.539
   8.220         70.83	     9.220
   8.240         80.83	     9.849
   8.260         80.83	     9.849
   8.280         66.67	     8.944
   8.300         84.17	    10.050
   8.320         77.50	     9.644
   8.340         90.83	    10.440
   8.360         70.83	     9.220
   8.380         89.17	    10.344
   8.400         76.67	     9.592
   8.420         84.17	    10.050
   8.440         67.50	     9.000
   8.460         81.67	     9.899
   8.480         81.67	     9.899
   8.500         98.33	    10.863
   8.520         77.50	     9.644
   8.540         76.67	     9.592
   8.560         95.00	    10.677
   8.580         88.33	    10.296
   8.600         97.50	    10.817
   8.620         89.17	    10.344
   8.640        104.17	    11.180
   8.660        106.67	    11.314
   8.680        107.50	    11.358
   8.700        121.67	    12.083
   8.720        114.17	    11.705
   8.740        107.50	    11.358
   8.760        150.83	    13.454
   8.780        139.17	    12.923
   8.800        163.33	    14.000
   8.820        176.67	    14.560
   8.840        215.00	    16.062
   8.860        248.33	    17.263
   8.880        266.67	    17.889
   8.900        322.50	    19.672
   8.920        359.17	    20.761
   8.940        494.17	    24.352
   8.960        549.17	    25.671
   8.980        665.00	    28.249
   9.000        668.33	    28.320
   9.020        622.50	    27.331
   9.040        479.17	    23.979
   9.060        283.33	    18.439
   9.080        184.17	    14.866
   9.100        120.00	    12.000
   9.120        124.17	    12.207
   9.140        103.33	    11.136
   9.160        117.50	    11.874
   9.180        105.00	    11.225
   9.200         73.33	     9.381
   9.220         96.67	    10.770
   9.240         90.83	    10.440
   9.260         94.17	    10.630
   9.280        110.83	    11.533
   9.300        104.17	    11.180
   9.320         85.00	    10.100
   9.340         85.83	    10.149
   9.360         91.67	    10.488
   9.380         71.67	     9.274
   9.400         53.33	     8.000
   9.420         70.83	     9.220
   9.440         64.17	     8.775
   9.460         65.83	     8.888
   9.480         80.83	     9.849
   9.500         60.00	     8.485
   9.520         60.00	     8.485
   9.540         93.33	    10.583
   9.560         71.67	     9.274
   9.580         80.83	     9.849
   9.600         64.17	     8.775
   9.620         69.17	     9.110
   9.640         73.33	     9.381
   9.660         68.33	     9.055
   9.680         51.67	     7.874
   9.700         68.33	     9.055
   9.720         60.83	     8.544
   9.740         59.17	     8.426
   9.760         52.50	     7.937
   9.780         54.17	     8.062
   9.800         56.67	     8.246
   9.820         50.00	     7.746
   9.840         50.00	     7.746
   9.860         60.83	     8.544
   9.880         56.67	     8.246
   9.900         49.17	     7.681
   9.920         67.50	     9.000
   9.940         79.17	     9.747
   9.960         49.17	     7.681
   9.980         58.33	     8.367
  10.000         50.00	     7.746
  10.020         47.50	     7.550
  10.040         50.00	     7.746
  10.060         45.00	     7.348
  10.080         43.33	     7.211
  10.100         60.00	     8.485
  10.120         43.33	     7.211
  10.140         36.67	     6.633
  10.160         50.83	     7.810
  10.180         40.00	     6.928
  10.200         37.50	     6.708
  10.220         57.50	     8.307
  10.240         64.17	     8.775
  10.260         64.17	     8.775
  10.280         46.67	     7.483
  10.300         50.00	     7.746
  10.320         47.50	     7.550
  10.340         59.17	     8.426
  10.360         62.50	     8.660
  10.380         43.33	     7.211
  10.400         65.83	     8.888
  10.420         47.50	     7.550
  10.440         45.83	     7.416
  10.460         43.33	     7.211
  10.480         57.50	     8.307
  10.500         65.00	     8.832
  10.520         53.33	     8.000
  10.540         59.17	     8.426
  10.560         65.83	     8.888
  10.580         87.50	    10.247
  10.600         77.50	     9.644
  10.620        123.33	    12.166
  10.640        136.67	    12.806
  10.660        121.67	    12.083
  10.680        106.67	    11.314
  10.700         67.50	     9.000
  10.720         49.17	     7.681
  10.740         51.67	     7.874
  10.760         47.50	     7.550
  10.780         55.83	     8.185
  10.800         59.17	     8.426
  10.820         62.50	     8.660
  10.840         39.17	     6.856
  10.860         60.83	     8.544
  10.880         40.00	     6.928
  10.900         44.17	     7.280
  10.920         42.50	     7.141
  10.940         61.67	     8.602
  10.960         46.67	     7.483
  10.980         47.50	     7.550
  11.000         41.67	     7.071
  11.020         50.00	     7.746
  11.040         44.17	     7.280
  11.060         61.67	     8.602
  11.080         43.33	     7.211
  11.100         51.67	     7.874
  11.120         54.17	     8.062
  11.140         33.33	     6.325
  11.160         46.67	     7.483
  11.180         57.50	     8.307
  11.200         39.17	     6.856
  11.220         35.00	     6.481
  11.240         45.83	     7.416
  11.260         47.50	     7.550
  11.280         49.17	     7.681
  11.300         47.50	     7.550
  11.320         34.17	     6.403
  11.340         47.50	     7.550
  11.360         49.17	     7.681
  11.380         39.17	     6.856
  11.400         45.83	     7.416
  11.420         52.50	     7.937
  11.440         57.50	     8.307
  11.460         50.83	     7.810
  11.480         49.17	     7.681
  11.500         56.67	     8.246
  11.520         36.67	     6.633
  11.540         43.33	     7.211
  11.560         45.00	     7.348
  11.580         50.00	     7.746
  11.600         48.33	     7.616
  11.620         48.33	     7.616
  11.640         51.67	     7.874
  11.660         50.00	     7.746
  11.680         44.17	     7.280
  11.700         40.00	     6.928
  11.720         35.83	     6.557
  11.740         42.50	     7.141
  11.760         52.50	     7.937
  11.780         45.00	     7.348
  11.800         48.33	     7.616
  11.820         47.50	     7.550
  11.840         48.33	     7.616
  11.860         52.50	     7.937
  11.880         50.00	     7.746
  11.900         36.67	     6.633
  11.920         37.50	     6.708
  11.940         44.17	     7.280
  11.960         50.83	     7.810
  11.980         57.50	     8.307
  12.000         55.83	     8.185
  12.020         64.17	     8.775
  12.040         44.17	     7.280
  12.060         65.00	     8.832
  12.080         70.00	     9.165
  12.100         73.33	     9.381
  12.120         75.83	     9.539
  12.140         84.17	    10.050
  12.160         83.33	    10.000
  12.180         93.33	    10.583
  12.200        126.67	    12.329
  12.220        141.67	    13.038
  12.240        165.00	    14.071
  12.260        203.33	    15.620
  12.280        314.17	    19.416
  12.300        352.50	    20.567
  12.320        323.33	    19.698
  12.340        278.33	    18.276
  12.360        197.50	    15.395
  12.380        138.33	    12.884
  12.400        158.33	    13.784
  12.420        144.17	    13.153
  12.440        154.17	    13.601
  12.460        174.17	    14.457
  12.480        181.67	    14.765
  12.500        168.33	    14.213
  12.520        195.00	    15.297
  12.540        215.83	    16.093
  12.560        264.17	    17.804
  12.580        330.00	    19.900
  12.600        400.00	    21.909
  12.620        418.33	    22.405
  12.640        370.83	    21.095
  12.660        275.00	    18.166
  12.680        195.83	    15.330
  12.700        116.67	    11.832
  12.720         87.50	    10.247
  12.740         76.67	     9.592
  12.760         63.33	     8.718
  12.780         68.33	     9.055
  12.800         59.17	     8.426
  12.820         56.67	     8.246
  12.840         58.33	     8.367
  12.860         55.83	     8.185
  12.880         44.17	     7.280
  12.900         57.50	     8.307
  12.920         40.00	     6.928
  12.940         42.50	     7.141
  12.960         42.50	     7.141
  12.980         50.00	     7.746
  13.000         52.50	     7.937
  13.020         48.33	     7.616
  13.040         49.17	     7.681
  13.060         45.00	     7.348
  13.080         40.00	     6.928
  13.100         36.67	     6.633
  13.120         45.83	     7.416
  13.140         46.67	     7.483
  13.160         43.33	     7.211
  13.180         50.83	     7.810
  13.200         39.17	     6.856
  13.220         50.83	     7.810
  13.240         45.00	     7.348
  13.260         48.33	     7.616
  13.280         39.17	     6.856
  13.300         42.50	     7.141
  13.320         57.50	     8.307
  13.340         50.83	     7.810
  13.360         40.00	     6.928
  13.380         46.67	     7.483
  13.400         50.00	     7.746
  13.420         50.00	     7.746
  13.440         47.50	     7.550
  13.460         58.33	     8.367
  13.480         45.83	     7.416
  13.500         45.00	     7.348
  13.520         38.33	     6.782
  13.540         48.33	     7.616
  13.560         46.67	     7.483
  13.580         42.50	     7.141
  13.600         40.83	     7.000
  13.620         43.33	     7.211
  13.640         40.83	     7.000
  13.660         40.83	     7.000
  13.680         40.00	     6.928
  13.700         52.50	     7.937
  13.720         51.67	     7.874
  13.740         41.67	     7.071
  13.760         45.00	     7.348
  13.780         54.17	     8.062
  13.800         37.50	     6.708
  13.820         52.50	     7.937
  13.840         60.83	     8.544
  13.860         46.67	     7.483
  13.880         54.17	     8.062
  13.900         60.83	     8.544
  13.920         72.50	     9.327
  13.940         68.33	     9.055
  13.960         88.33	    10.296
  13.980         80.00	     9.798
  14.000         73.33	     9.381
  14.020         75.83	     9.539
  14.040         68.33	     9.055
  14.060         54.17	     8.062
  14.080         54.17	     8.062
  14.100         49.17	     7.681
  14.120         40.83	     7.000
  14.140         38.33	     6.782
  14.160         56.67	     8.246
  14.180         47.50	     7.550
  14.200         45.00	     7.348
  14.220         50.83	     7.810
  14.240         28.33	     5.831
  14.260         40.83	     7.000
  14.280         48.33	     7.616
  14.300         43.33	     7.211
  14.320         43.33	     7.211
  14.340         43.33	     7.211
  14.360         51.67	     7.874
  14.380         37.50	     6.708
  14.400         43.33	     7.211
  14.420         26.67	     5.657
  14.440         35.00	     6.481
  14.460         25.83	     5.568
  14.480         36.67	     6.633
  14.500         42.50	     7.141
  14.520         30.00	     6.000
  14.540         30.83	     6.083
  14.560         35.00	     6.481
  14.580         35.00	     6.481
  14.600         47.50	     7.550
  14.620         30.00	     6.000
  14.640         38.33	     6.782
  14.660         28.33	     5.831
  14.680         35.00	     6.481
  14.700         34.17	     6.403
  14.720         41.67	     7.071
  14.740         37.50	     6.708
  14.760         35.00	     6.481
  14.780         30.00	     6.000
  14.800         44.17	     7.280
  14.820         41.67	     7.071
  14.840         37.50	     6.708
  14.860         35.83	     6.557
  14.880         35.00	     6.481
  14.900         37.50	     6.708
  14.920         40.00	     6.928
  14.940         43.33	     7.211
  14.960         48.33	     7.616
  14.980         36.67	     6.633
  15.000         36.67	     6.633
  15.020         41.67	     7.071
  15.040         38.33	     6.782
  15.060         39.17	     6.856
  15.080         42.50	     7.141
  15.100         50.00	     7.746
  15.120         48.33	     7.616
  15.140         40.00	     6.928
  15.160         44.17	     7.280
  15.180         40.83	     7.000
  15.200         35.83	     6.557
  15.220         50.83	     7.810
  15.240         40.83	     7.000
  15.260         44.17	     7.280
  15.280         40.83	     7.000
  15.300         34.17	     6.403
  15.320         36.67	     6.633
  15.340         31.67	     6.164
  15.360         35.83	     6.557
  15.380         33.33	     6.325
  15.400         27.50	     5.745
  15.420         35.00	     6.481
  15.440         38.33	     6.782
  15.460         28.33	     5.831
  15.480         37.50	     6.708
  15.500         35.83	     6.557
  15.520         38.33	     6.782
  15.540         39.17	     6.856
  15.560         36.67	     6.633
  15.580         39.17	     6.856
  15.600         32.50	     6.245
  15.620         40.83	     7.000
  15.640         40.00	     6.928
  15.660         34.17	     6.403
  15.680         44.17	     7.280
  15.700         30.00	     6.000
  15.720         35.00	     6.481
  15.740         40.00	     6.928
  15.760         27.50	     5.745
  15.780         30.83	     6.083
  15.800         38.33	     6.782
  15.820         40.83	     7.000
  15.840         53.33	     8.000
  15.860         35.83	     6.557
  15.880         40.83	     7.000
  15.900         40.00	     6.928
  15.920         44.17	     7.280
  15.940         36.67	     6.633
  15.960         37.50	     6.708
  15.980         34.17	     6.403
  16.000         30.00	     6.000
  16.020         33.33	     6.325
  16.040         35.00	     6.481
  16.060         40.83	     7.000
  16.080         36.67	     6.633
  16.100         41.67	     7.071
  16.120         40.00	     6.928
  16.140         32.50	     6.245
  16.160         38.33	     6.782
  16.180         29.17	     5.916
  16.200         38.33	     6.782
  16.220         38.33	     6.782
  16.240         25.00	     5.477
  16.260         31.67	     6.164
  16.280         45.83	     7.416
  16.300         38.33	     6.782
  16.320         22.50	     5.196
  16.340         30.83	     6.083
  16.360         35.83	     6.557
  16.380         35.83	     6.557
  16.400         32.50	     6.245
  16.420         36.67	     6.633
  16.440         34.17	     6.403
  16.460         32.50	     6.245
  16.480         43.33	     7.211
  16.500         31.67	     6.164
  16.520         25.83	     5.568
  16.540         31.67	     6.164
  16.560         33.33	     6.325
  16.580         38.33	     6.782
  16.600         40.00	     6.928
  16.620         34.17	     6.403
  16.640         29.17	     5.916
  16.660         27.50	     5.745
  16.680         31.67	     6.164
  16.700         33.33	     6.325
  16.720         37.50	     6.708
  16.740         48.33	     7.616
  16.760         38.33	     6.782
  16.780         32.50	     6.245
  16.800         20.83	     5.000
  16.820         44.17	     7.280
  16.840         35.83	     6.557
  16.860         29.17	     5.916
  16.880         42.50	     7.141
  16.900         40.00	     6.928
  16.920         25.00	     5.477
  16.940         43.33	     7.211
  16.960         35.00	     6.481
  16.980         33.33	     6.325
  17.000         35.83	     6.557
  17.020         36.67	     6.633
  17.040         32.50	     6.245
  17.060         42.50	     7.141
  17.080         33.33	     6.325
  17.100         39.17	     6.856
  17.120         32.50	     6.245
  17.140         29.17	     5.916
  17.160         34.17	     6.403
  17.180         31.67	     6.164
  17.200         22.50	     5.196
  17.220         36.67	     6.633
  17.240         30.83	     6.083
  17.260         46.67	     7.483
  17.280         35.00	     6.481
  17.300         26.67	     5.657
  17.320         39.17	     6.856
  17.340         30.00	     6.000
  17.360         40.00	     6.928
  17.380         35.83	     6.557
  17.400         35.00	     6.481
  17.420         39.17	     6.856
  17.440         41.67	     7.071
  17.460         37.50	     6.708
  17.480         39.17	     6.856
  17.500         35.83	     6.557
  17.520         35.83	     6.557
  17.540         43.33	     7.211
  17.560         41.67	     7.071
  17.580         38.33	     6.782
  17.600         29.17	     5.916
  17.620         35.00	     6.481
  17.640         42.50	     7.141
  17.660         42.50	     7.141
  17.680         48.33	     7.616
  17.700         37.50	     6.708
  17.720         52.50	     7.937
  17.740         55.00	     8.124
  17.760         62.50	     8.660
  17.780         79.17	     9.747
  17.800         93.33	    10.583
  17.820        115.83	    11.790
  17.840        147.50	    13.304
  17.860        245.83	    17.176
  17.880        269.17	    17.972
  17.900        334.17	    20.025
  17.920        362.50	    20.857
  17.940        383.33	    21.448
  17.960        335.00	    20.050
  17.980        283.33	    18.439
  18.000        224.17	    16.401
  18.020        145.00	    13.191
  18.040         95.00	    10.677
  18.060         67.50	     9.000
  18.080         50.00	     7.746
  18.100         56.67	     8.246
  18.120         58.33	     8.367
  18.140         51.67	     7.874
  18.160         50.83	     7.810
  18.180         40.00	     6.928
  18.200         34.17	     6.403
  18.220         42.50	     7.141
  18.240         45.83	     7.416
  18.260         30.00	     6.000
  18.280         44.17	     7.280
  18.300         45.83	     7.416
  18.320         27.50	     5.745
  18.340         39.17	     6.856
  18.360         58.33	     8.367
  18.380         37.50	     6.708
  18.400         48.33	     7.616
  18.420         57.50	     8.307
  18.440         51.67	     7.874
  18.460         55.00	     8.124
  18.480         70.00	     9.165
  18.500         67.50	     9.000
  18.520         57.50	     8.307
  18.540         85.00	    10.100
  18.560         85.00	    10.100
  18.580         68.33	     9.055
  18.600         50.00	     7.746
  18.620         60.00	     8.485
  18.640         57.50	     8.307
  18.660         65.00	     8.832
  18.680         84.17	    10.050
  18.700         89.17	    10.344
  18.720         71.67	     9.274
  18.740         70.00	     9.165
  18.760         80.00	     9.798
  18.780         85.83	    10.149
  18.800         75.00	     9.487
  18.820        110.00	    11.489
  18.840        122.50	    12.124
  18.860        151.67	    13.491
  18.880        180.00	    14.697
  18.900        179.17	    14.663
  18.920        185.83	    14.933
  18.940        164.17	    14.036
  18.960        125.83	    12.288
  18.980         89.17	    10.344
  19.000         80.83	     9.849
  19.020         60.83	     8.544
  19.040         43.33	     7.211
  19.060         52.50	     7.937
  19.080         62.50	     8.660
  19.100         42.50	     7.141
  19.120         48.33	     7.616
  19.140         54.17	     8.062
  19.160         44.17	     7.280
  19.180         44.17	     7.280
  19.200         50.83	     7.810
  19.220         33.33	     6.325
  19.240         39.17	     6.856
  19.260         38.33	     6.782
  19.280         40.83	     7.000
  19.300         40.00	     6.928
  19.320         38.33	     6.782
  19.340         48.33	     7.616
  19.360         48.33	     7.616
  19.380         35.83	     6.557
  19.400         50.83	     7.810
  19.420         50.83	     7.810
  19.440         35.00	     6.481
  19.460         40.83	     7.000
  19.480         45.83	     7.416
  19.500         40.83	     7.000
  19.520         37.50	     6.708
  19.540         51.67	     7.874
  19.560         51.67	     7.874
  19.580         50.83	     7.810
  19.600         40.83	     7.000
  19.620         42.50	     7.141
  19.640         35.00	     6.481
  19.660         43.33	     7.211
  19.680         48.33	     7.616
  19.700         48.33	     7.616
  19.720         45.00	     7.348
  19.740         47.50	     7.550
  19.760         48.33	     7.616
  19.780         45.00	     7.348
  19.800         53.33	     8.000
  19.820         65.00	     8.832
  19.840         65.00	     8.832
  19.860         60.83	     8.544
  19.880         68.33	     9.055
  19.900         63.33	     8.718
  19.920         65.83	     8.888
  19.940         70.00	     9.165
  19.960         88.33	    10.296
  19.980         66.67	     8.944
  20.000         72.50	     9.327
  20.020         75.83	     9.539
  20.040         62.50	     8.660
  20.060         65.83	     8.888
  20.080         52.50	     7.937
  20.100         48.33	     7.616
  20.120         48.33	     7.616
  20.140         45.00	     7.348
  20.160         38.33	     6.782
  20.180         41.67	     7.071
  20.200         40.83	     7.000
  20.220         44.17	     7.280
  20.240         42.50	     7.141
  20.260         51.67	     7.874
  20.280         35.00	     6.481
  20.300         49.17	     7.681
  20.320         36.67	     6.633
  20.340         35.00	     6.481
  20.360         52.50	     7.937
  20.380         37.50	     6.708
  20.400         35.83	     6.557
  20.420         31.67	     6.164
  20.440         43.33	     7.211
  20.460         37.50	     6.708
  20.480         39.17	     6.856
  20.500         33.33	     6.325
  20.520         35.00	     6.481
  20.540         43.33	     7.211
  20.560         44.17	     7.280
  20.580         25.00	     5.477
  20.600         36.67	     6.633
  20.620         41.67	     7.071
  20.640         48.33	     7.616
  20.660         35.00	     6.481
  20.680         48.33	     7.616
  20.700         45.83	     7.416
  20.720         55.00	     8.124
  20.740         65.83	     8.888
  20.760         55.00	     8.124
  20.780         47.50	     7.550
  20.800         56.67	     8.246
  20.820         59.17	     8.426
  20.840         73.33	     9.381
  20.860         99.17	    10.909
  20.880        128.33	    12.410
  20.900        195.83	    15.330
  20.920        264.17	    17.804
  20.940        406.67	    22.091
  20.960        542.50	    25.515
  20.980        630.83	    27.514
  21.000        695.00	    28.879
  21.020        575.00	    26.268
  21.040        375.00	    21.213
  21.060        306.67	    19.183
  21.080        175.00	    14.491
  21.100        124.17	    12.207
  21.120        121.67	    12.083
  21.140        110.83	    11.533
  21.160        106.67	    11.314
  21.180         93.33	    10.583
  21.200         65.83	     8.888
  21.220         70.83	     9.220
  21.240         55.83	     8.185
  21.260         37.50	     6.708
  21.280         46.67	     7.483
  21.300         36.67	     6.633
  21.320         42.50	     7.141
  21.340         52.50	     7.937
  21.360         50.00	     7.746
  21.380         50.00	     7.746
  21.400         42.50	     7.141
  21.420         40.83	     7.000
  21.440         41.67	     7.071
  21.460         36.67	     6.633
  21.480         30.00	     6.000
  21.500         38.33	     6.782
  21.520         39.17	     6.856
  21.540         40.83	     7.000
  21.560         45.00	     7.348
  21.580         32.50	     6.245
  21.600         39.17	     6.856
  21.620         42.50	     7.141
  21.640         40.83	     7.000
  21.660         45.00	     7.348
  21.680         40.00	     6.928
  21.700         50.83	     7.810
  21.720         53.33	     8.000
  21.740         45.83	     7.416
  21.760         33.33	     6.325
  21.780         50.83	     7.810
  21.800         40.83	     7.000
  21.820         46.67	     7.483
  21.840         39.17	     6.856
  21.860         34.17	     6.403
  21.880         40.83	     7.000
  21.900         42.50	     7.141
  21.920         43.33	     7.211
  21.940         30.83	     6.083
  21.960         46.67	     7.483
  21.980         50.00	     7.746
  22.000         53.33	     8.000
  22.020         50.83	     7.810
  22.040         56.67	     8.246
  22.060        111.67	    11.576
  22.080        180.00	    14.697
  22.100        265.00	    17.833
  22.120        328.33	    19.849
  22.140        371.67	    21.119
  22.160        308.33	    19.235
  22.180        270.83	    18.028
  22.200        205.83	    15.716
  22.220        138.33	    12.884
  22.240        103.33	    11.136
  22.260         62.50	     8.660
  22.280         79.17	     9.747
  22.300         54.17	     8.062
  22.320         57.50	     8.307
  22.340         43.33	     7.211
  22.360         57.50	     8.307
  22.380         50.00	     7.746
  22.400         62.50	     8.660
  22.420         50.83	     7.810
  22.440         42.50	     7.141
  22.460         65.00	     8.832
  22.480         54.17	     8.062
  22.500         60.83	     8.544
  22.520         57.50	     8.307
  22.540         57.50	     8.307
  22.560         60.00	     8.485
  22.580         60.00	     8.485
  22.600         60.83	     8.544
  22.620         59.17	     8.426
  22.640         65.00	     8.832
  22.660         68.33	     9.055
  22.680         50.83	     7.810
  22.700         60.83	     8.544
  22.720         63.33	     8.718
  22.740         43.33	     7.211
  22.760         42.50	     7.141
  22.780         38.33	     6.782
  22.800         56.67	     8.246
  22.820         41.67	     7.071
  22.840         49.17	     7.681
  22.860         54.17	     8.062
  22.880         57.50	     8.307
  22.900         55.83	     8.185
  22.920         75.83	     9.539
  22.940         70.00	     9.165
  22.960         78.33	     9.695
  22.980         70.83	     9.220
  23.000         80.83	     9.849
  23.020         74.17	     9.434
  23.040         90.00	    10.392
  23.060         74.17	     9.434
  23.080         85.83	    10.149
  23.100         83.33	    10.000
  23.120         83.33	    10.000
  23.140         83.33	    10.000
  23.160         90.83	    10.440
  23.180         90.83	    10.440
  23.200         91.67	    10.488
  23.220         76.67	     9.592
  23.240         57.50	     8.307
  23.260         50.83	     7.810
  23.280         61.67	     8.602
  23.300         43.33	     7.211
  23.320         51.67	     7.874
  23.340         57.50	     8.307
  23.360         53.33	     8.000
  23.380         58.33	     8.367
  23.400         55.83	     8.185
  23.420         67.50	     9.000
  23.440         62.50	     8.660
  23.460         51.67	     7.874
  23.480         60.00	     8.485
  23.500         65.83	     8.888
  23.520         50.00	     7.746
  23.540         81.67	     9.899
  23.560        101.67	    11.045
  23.580        108.33	    11.402
  23.600        149.17	    13.379
  23.620        203.33	    15.620
  23.640        327.50	    19.824
  23.660        400.00	    21.909
  23.680        397.50	    21.840
  23.700        282.50	    18.412
  23.720        297.50	    18.894
  23.740        253.33	    17.436
  23.760        180.00	    14.697
  23.780        114.17	    11.705
  23.800         99.17	    10.909
  23.820         91.67	    10.488
  23.840         75.83	     9.539
  23.860         85.00	    10.100
  23.880         91.67	    10.488
  23.900        102.50	    11.091
  23.920         78.33	     9.695
  23.940         80.00	     9.798
  23.960         94.17	    10.630
  23.980         77.50	     9.644
  24.000         95.00	    10.677
  24.020         89.17	    10.344
  24.040         74.17	     9.434
  24.060         69.17	     9.110
  24.080         75.00	     9.487
  24.100         77.50	     9.644
  24.120         68.33	     9.055
  24.140         69.17	     9.110
  24.160         69.17	     9.110
  24.180         61.67	     8.602
  24.200         94.17	    10.630
  24.220         74.17	     9.434
  24.240        106.67	    11.314
  24.260        111.67	    11.576
  24.280        113.33	    11.662
  24.300        127.50	    12.369
  24.320        164.17	    14.036
  24.340        160.83	    13.892
  24.360        216.67	    16.125
  24.380        273.33	    18.111
  24.400        315.83	    19.468
  24.420        325.00	    19.748
  24.440        257.50	    17.578
  24.460        240.83	    17.000
  24.480        205.00	    15.684
  24.500        172.50	    14.387
  24.520        115.83	    11.790
  24.540        103.33	    11.136
  24.560         96.67	    10.770
  24.580        103.33	    11.136
  24.600        125.00	    12.247
  24.620        146.67	    13.266
  24.640        185.00	    14.900
  24.660        212.50	    15.969
  24.680        265.00	    17.833
  24.700        288.33	    18.601
  24.720        282.50	    18.412
  24.740        299.17	    18.947
  24.760        279.17	    18.303
  24.780        271.67	    18.055
  24.800        238.33	    16.912
  24.820        205.83	    15.716
  24.840        187.50	    15.000
  24.860        170.00	    14.283
  24.880        172.50	    14.387
  24.900        143.33	    13.115
  24.920        151.67	    13.491
  24.940        137.50	    12.845
  24.960        130.83	    12.530
  24.980        121.67	    12.083
  25.000        130.00	    12.490
  25.020        125.83	    12.288
  25.040        117.50	    11.874
  25.060        126.67	    12.329
  25.080        125.83	    12.288
  25.100        123.33	    12.166
  25.120        121.67	    12.083
  25.140        131.67	    12.570
  25.160        175.00	    14.491
  25.180        195.83	    15.330
  25.200        234.17	    16.763
  25.220        269.17	    17.972
  25.240        322.50	    19.672
  25.260        394.17	    21.749
  25.280        410.83	    22.204
  25.300        376.67	    21.260
  25.320        353.33	    20.591
  25.340        260.00	    17.664
  25.360        225.00	    16.432
  25.380        157.50	    13.748
  25.400        143.33	    13.115
  25.420        119.17	    11.958
  25.440        145.83	    13.229
  25.460        138.33	    12.884
  25.480        153.33	    13.565
  25.500        128.33	    12.410
  25.520        143.33	    13.115
  25.540        160.00	    13.856
  25.560        121.67	    12.083
  25.580        149.17	    13.379
  25.600        156.67	    13.711
  25.620        198.33	    15.427
  25.640        177.50	    14.595
  25.660        141.67	    13.038
  25.680        146.67	    13.266
  25.700        160.00	    13.856
  25.720        147.50	    13.304
  25.740        133.33	    12.649
  25.760        136.67	    12.806
  25.780        129.17	    12.450
  25.800        130.83	    12.530
  25.820         91.67	    10.488
  25.840         98.33	    10.863
  25.860         92.50	    10.536
  25.880        100.00	    10.954
  25.900         79.17	     9.747
  25.920         75.00	     9.487
  25.940         72.50	     9.327
  25.960         63.33	     8.718
  25.980         70.83	     9.220
  26.000         67.50	     9.000
  26.020         72.50	     9.327
  26.040         56.67	     8.246
  26.060         81.67	     9.899
  26.080         53.33	     8.000
  26.100         53.33	     8.000
  26.120         66.67	     8.944
  26.140         58.33	     8.367
  26.160         55.00	     8.124
  26.180         68.33	     9.055
  26.200         73.33	     9.381
  26.220         75.83	     9.539
  26.240         62.50	     8.660
  26.260         84.17	    10.050
  26.280        100.83	    11.000
  26.300         68.33	     9.055
  26.320         75.00	     9.487
  26.340         89.17	    10.344
  26.360        112.50	    11.619
  26.380        107.50	    11.358
  26.400        115.83	    11.790
  26.420        111.67	    11.576
  26.440        135.83	    12.767
  26.460        150.00	    13.416
  26.480        176.67	    14.560
  26.500        205.83	    15.716
  26.520        204.17	    15.652
  26.540        211.67	    15.937
  26.560        230.83	    16.643
  26.580        243.33	    17.088
  26.600        259.17	    17.635
  26.620        332.50	    19.975
  26.640        360.83	    20.809
  26.660        442.50	    23.043
  26.680        711.67	    29.223
  26.700       1186.67	    37.736
  26.720       1770.83	    46.098
  26.740       2172.50	    51.059
  26.760       2258.33	    52.058
  26.780       1807.50	    46.573
  26.800       1565.00	    43.336
  26.820       1340.00	    40.100
  26.840       1040.83	    35.341
  26.860        765.00	    30.299
  26.880        627.50	    27.441
  26.900        740.83	    29.816
  26.920        882.50	    32.542
  26.940       1045.00	    35.412
  26.960       1186.67	    37.736
  26.980       1232.50	    38.458
  27.000       1155.83	    37.242
  27.020       1008.33	    34.785
  27.040        843.33	    31.812
  27.060        631.67	    27.532
  27.080        461.67	    23.537
  27.100        320.83	    19.621
  27.120        240.00	    16.971
  27.140        196.67	    15.362
  27.160        190.83	    15.133
  27.180        153.33	    13.565
  27.200        150.00	    13.416
  27.220        134.17	    12.689
  27.240        119.17	    11.958
  27.260        102.50	    11.091
  27.280         95.83	    10.724
  27.300         96.67	    10.770
  27.320        105.83	    11.269
  27.340        108.33	    11.402
  27.360        100.83	    11.000
  27.380         82.50	     9.950
  27.400        103.33	    11.136
  27.420         84.17	    10.050
  27.440        102.50	    11.091
  27.460        117.50	    11.874
  27.480        139.17	    12.923
  27.500        121.67	    12.083
  27.520        152.50	    13.528
  27.540        197.50	    15.395
  27.560        216.67	    16.125
  27.580        209.17	    15.843
  27.600        221.67	    16.310
  27.620        255.00	    17.493
  27.640        261.67	    17.720
  27.660        188.33	    15.033
  27.680        169.17	    14.248
  27.700        170.83	    14.318
  27.720        170.00	    14.283
  27.740        148.33	    13.342
  27.760        160.00	    13.856
  27.780        163.33	    14.000
  27.800        189.17	    15.067
  27.820        237.50	    16.882
  27.840        340.00	    20.199
  27.860        347.50	    20.421
  27.880        380.83	    21.378
  27.900        358.33	    20.736
  27.920        412.50	    22.249
  27.940        410.83	    22.204
  27.960        464.17	    23.601
  27.980        499.17	    24.474
  28.000        569.17	    26.134
  28.020        680.00	    28.566
  28.040        685.83	    28.688
  28.060        645.00	    27.821
  28.080        585.83	    26.514
  28.100        501.67	    24.536
  28.120        390.00	    21.633
  28.140        347.50	    20.421
  28.160        245.83	    17.176
  28.180        194.17	    15.264
  28.200        170.83	    14.318
  28.220        195.83	    15.330
  28.240        165.83	    14.107
  28.260        160.83	    13.892
  28.280        146.67	    13.266
  28.300        141.67	    13.038
  28.320        129.17	    12.450
  28.340        134.17	    12.689
  28.360        116.67	    11.832
  28.380        150.00	    13.416
  28.400        136.67	    12.806
  28.420        143.33	    13.115
  28.440        142.50	    13.077
  28.460        117.50	    11.874
  28.480        102.50	    11.091
  28.500         83.33	    10.000
  28.520         87.50	    10.247
  28.540         91.67	    10.488
  28.560         57.50	     8.307
  28.580         85.83	    10.149
  28.600         73.33	     9.381
  28.620         85.00	    10.100
  28.640        100.83	    11.000
  28.660        106.67	    11.314
  28.680        131.67	    12.570
  28.700        130.00	    12.490
  28.720        132.50	    12.610
  28.740        135.00	    12.728
  28.760        150.83	    13.454
  28.780        135.00	    12.728
  28.800        129.17	    12.450
  28.820        130.00	    12.490
  28.840        104.17	    11.180
  28.860        103.33	    11.136
  28.880         79.17	     9.747
  28.900         85.83	    10.149
  28.920         96.67	    10.770
  28.940         68.33	     9.055
  28.960         77.50	     9.644
  28.980         52.50	     7.937
  29.000         59.17	     8.426
  29.020         58.33	     8.367
  29.040         65.00	     8.832
  29.060         65.00	     8.832
  29.080         47.50	     7.550
  29.100         45.83	     7.416
  29.120         51.67	     7.874
  29.140         48.33	     7.616
  29.160         41.67	     7.071
  29.180         49.17	     7.681
  29.200         62.50	     8.660
  29.220         53.33	     8.000
  29.240         41.67	     7.071
  29.260         52.50	     7.937
  29.280         49.17	     7.681
  29.300         41.67	     7.071
  29.320         45.83	     7.416
  29.340         34.17	     6.403
  29.360         40.00	     6.928
  29.380         44.17	     7.280
  29.400         50.00	     7.746
  29.420         55.83	     8.185
  29.440         51.67	     7.874
  29.460         41.67	     7.071
  29.480         45.00	     7.348
  29.500         51.67	     7.874
  29.520         55.83	     8.185
  29.540         40.83	     7.000
  29.560         60.83	     8.544
  29.580         59.17	     8.426
  29.600         41.67	     7.071
  29.620         61.67	     8.602
  29.640         39.17	     6.856
  29.660         47.50	     7.550
  29.680         70.00	     9.165
  29.700         55.00	     8.124
  29.720         84.17	    10.050
  29.740         56.67	     8.246
  29.760         71.67	     9.274
  29.780         69.17	     9.110
  29.800         74.17	     9.434
  29.820         69.17	     9.110
  29.840         92.50	    10.536
  29.860         77.50	     9.644
  29.880        120.00	    12.000
  29.900        120.83	    12.042
  29.920        130.83	    12.530
  29.940        141.67	    13.038
  29.960        145.83	    13.229
  29.980        173.33	    14.422
  30.000        181.67	    14.765
  30.020        205.00	    15.684
  30.040        229.17	    16.583
  30.060        303.33	    19.079
  30.080        269.17	    17.972
  30.100        199.17	    15.460
  30.120        212.50	    15.969
  30.140        207.50	    15.780
  30.160        185.83	    14.933
  30.180        174.17	    14.457
  30.200        164.17	    14.036
  30.220        140.00	    12.961
  30.240        134.17	    12.689
  30.260        100.83	    11.000
  30.280        135.83	    12.767
  30.300        125.83	    12.288
  30.320        115.83	    11.790
  30.340        107.50	    11.358
  30.360        105.00	    11.225
  30.380        105.83	    11.269
  30.400         87.50	    10.247
  30.420         81.67	     9.899
  30.440        100.83	    11.000
  30.460         90.00	    10.392
  30.480         86.67	    10.198
  30.500         86.67	    10.198
  30.520         93.33	    10.583
  30.540        105.00	    11.225
  30.560        142.50	    13.077
  30.580        120.00	    12.000
  30.600        111.67	    11.576
  30.620        112.50	    11.619
  30.640        117.50	    11.874
  30.660        122.50	    12.124
  30.680         92.50	    10.536
  30.700         75.83	     9.539
  30.720         69.17	     9.110
  30.740         65.83	     8.888
  30.760         62.50	     8.660
  30.780         60.83	     8.544
  30.800         67.50	     9.000
  30.820         70.83	     9.220
  30.840         66.67	     8.944
  30.860         62.50	     8.660
  30.880         73.33	     9.381
  30.900         70.83	     9.220
  30.920         85.00	    10.100
  30.940         83.33	    10.000
  30.960         89.17	    10.344
  30.980         86.67	    10.198
  31.000         97.50	    10.817
  31.020         89.17	    10.344
  31.040         85.83	    10.149
  31.060         88.33	    10.296
  31.080         73.33	     9.381
  31.100         81.67	     9.899
  31.120         95.00	    10.677
  31.140         94.17	    10.630
  31.160         85.00	    10.100
  31.180        100.00	    10.954
  31.200         96.67	    10.770
  31.220        109.17	    11.446
  31.240        110.83	    11.533
  31.260        114.17	    11.705
  31.280        130.83	    12.530
  31.300        129.17	    12.450
  31.320        150.00	    13.416
  31.340        190.83	    15.133
  31.360        166.67	    14.142
  31.380        175.00	    14.491
  31.400        151.67	    13.491
  31.420        153.33	    13.565
  31.440        131.67	    12.570
  31.460        128.33	    12.410
  31.480        110.83	    11.533
  31.500         85.00	    10.100
  31.520         83.33	    10.000
  31.540         75.83	     9.539
  31.560         79.17	     9.747
  31.580         82.50	     9.950
  31.600         72.50	     9.327
  31.620         99.17	    10.909
  31.640         75.00	     9.487
  31.660        100.00	    10.954
  31.680        110.83	    11.533
  31.700        114.17	    11.705
  31.720        100.00	    10.954
  31.740         97.50	    10.817
  31.760         92.50	    10.536
  31.780         67.50	     9.000
  31.800         83.33	    10.000
  31.820         70.00	     9.165
  31.840         65.00	     8.832
  31.860         49.17	     7.681
  31.880         54.17	     8.062
  31.900         50.83	     7.810
  31.920         60.83	     8.544
  31.940         74.17	     9.434
  31.960         68.33	     9.055
  31.980         80.83	     9.849
  32.000         75.83	     9.539
  32.020         55.83	     8.185
  32.040         80.00	     9.798
  32.060         93.33	    10.583
  32.080         64.17	     8.775
  32.100         72.50	     9.327
  32.120         90.83	    10.440
  32.140         84.17	    10.050
  32.160        115.83	    11.790
  32.180        100.83	    11.000
  32.200        101.67	    11.045
  32.220        120.83	    12.042
  32.240        110.83	    11.533
  32.260        102.50	    11.091
  32.280         82.50	     9.950
  32.300         81.67	     9.899
  32.320         59.17	     8.426
  32.340         63.33	     8.718
  32.360         53.33	     8.000
  32.380         51.67	     7.874
  32.400         50.83	     7.810
  32.420         55.00	     8.124
  32.440         38.33	     6.782
  32.460         55.83	     8.185
  32.480         45.83	     7.416
  32.500         38.33	     6.782
  32.520         40.83	     7.000
  32.540         27.50	     5.745
  32.560         40.00	     6.928
  32.580         45.00	     7.348
  32.600         35.00	     6.481
  32.620         48.33	     7.616
  32.640         43.33	     7.211
  32.660         27.50	     5.745
  32.680         39.17	     6.856
  32.700         34.17	     6.403
  32.720         35.83	     6.557
  32.740         37.50	     6.708
  32.760         35.00	     6.481
  32.780         45.83	     7.416
  32.800         26.67	     5.657
  32.820         31.67	     6.164
  32.840         26.67	     5.657
  32.860         40.00	     6.928
  32.880         30.00	     6.000
  32.900         31.67	     6.164
  32.920         38.33	     6.782
  32.940         30.83	     6.083
  32.960         45.00	     7.348
  32.980         20.83	     5.000
  33.000         35.83	     6.557
  33.020         46.67	     7.483
  33.040         41.67	     7.071
  33.060         39.17	     6.856
  33.080         40.00	     6.928
  33.100         56.67	     8.246
  33.120         58.33	     8.367
  33.140         57.50	     8.307
  33.160         60.00	     8.485
  33.180         87.50	    10.247
  33.200         64.17	     8.775
  33.220         64.17	     8.775
  33.240         60.00	     8.485
  33.260         52.50	     7.937
  33.280         55.00	     8.124
  33.300         55.00	     8.124
  33.320         44.17	     7.280
  33.340         40.00	     6.928
  33.360         49.17	     7.681
  33.380         37.50	     6.708
  33.400         40.83	     7.000
  33.420         45.00	     7.348
  33.440         45.00	     7.348
  33.460         46.67	     7.483
  33.480         44.17	     7.280
  33.500         30.00	     6.000
  33.520         47.50	     7.550
  33.540         46.67	     7.483
  33.560         50.00	     7.746
  33.580         39.17	     6.856
  33.600         43.33	     7.211
  33.620         46.67	     7.483
  33.640         47.50	     7.550
  33.660         33.33	     6.325
  33.680         51.67	     7.874
  33.700         40.00	     6.928
  33.720         45.00	     7.348
  33.740         45.83	     7.416
  33.760         40.00	     6.928
  33.780         45.00	     7.348
  33.800         41.67	     7.071
  33.820         40.00	     6.928
  33.840         42.50	     7.141
  33.860         35.83	     6.557
  33.880         30.00	     6.000
  33.900         41.67	     7.071
  33.920         33.33	     6.325
  33.940         46.67	     7.483
  33.960         39.17	     6.856
  33.980         51.67	     7.874
  34.000         49.17	     7.681
  34.020         70.83	     9.220
  34.040         71.67	     9.274
  34.060         59.17	     8.426
  34.080         54.17	     8.062
  34.100         65.00	     8.832
  34.120         59.17	     8.426
  34.140         60.83	     8.544
  34.160         58.33	     8.367
  34.180         55.83	     8.185
  34.200         41.67	     7.071
  34.220         53.33	     8.000
  34.240         47.50	     7.550
  34.260         44.17	     7.280
  34.280         65.83	     8.888
  34.300         58.33	     8.367
  34.320         66.67	     8.944
  34.340         44.17	     7.280
  34.360         49.17	     7.681
  34.380         54.17	     8.062
  34.400         48.33	     7.616
  34.420         52.50	     7.937
  34.440         59.17	     8.426
  34.460         58.33	     8.367
  34.480         58.33	     8.367
  34.500         60.00	     8.485
  34.520         76.67	     9.592
  34.540         66.67	     8.944
  34.560         73.33	     9.381
  34.580         72.50	     9.327
  34.600         76.67	     9.592
  34.620         77.50	     9.644
  34.640         90.83	    10.440
  34.660         94.17	    10.630
  34.680         92.50	    10.536
  34.700        102.50	    11.091
  34.720         84.17	    10.050
  34.740         85.00	    10.100
  34.760         88.33	    10.296
  34.780         81.67	     9.899
  34.800         68.33	     9.055
  34.820         72.50	     9.327
  34.840         55.00	     8.124
  34.860         56.67	     8.246
  34.880         76.67	     9.592
  34.900         65.00	     8.832
  34.920         85.00	    10.100
  34.940         72.50	     9.327
  34.960         92.50	    10.536
  34.980         99.17	    10.909
  35.000         90.00	    10.392
  35.020        121.67	    12.083
  35.040        115.00	    11.747
  35.060        141.67	    13.038
  35.080        129.17	    12.450
  35.100        165.83	    14.107
  35.120        160.00	    13.856
  35.140        183.33	    14.832
  35.160        144.17	    13.153
  35.180        128.33	    12.410
  35.200        104.17	    11.180
  35.220        119.17	    11.958
  35.240        112.50	    11.619
  35.260        101.67	    11.045
  35.280         72.50	     9.327
  35.300         65.83	     8.888
  35.320         72.50	     9.327
  35.340         70.00	     9.165
  35.360         74.17	     9.434
  35.380         54.17	     8.062
  35.400         71.67	     9.274
  35.420         57.50	     8.307
  35.440         66.67	     8.944
  35.460         72.50	     9.327
  35.480         71.67	     9.274
  35.500         72.50	     9.327
  35.520         65.00	     8.832
  35.540         70.83	     9.220
  35.560        104.17	    11.180
  35.580         95.00	    10.677
  35.600         87.50	    10.247
  35.620         95.83	    10.724
  35.640        106.67	    11.314
  35.660         95.83	    10.724
  35.680         93.33	    10.583
  35.700        100.83	    11.000
  35.720         79.17	     9.747
  35.740         92.50	    10.536
  35.760         78.33	     9.695
  35.780         89.17	    10.344
  35.800         71.67	     9.274
  35.820         80.83	     9.849
  35.840         73.33	     9.381
  35.860         70.00	     9.165
  35.880         66.67	     8.944
  35.900         64.17	     8.775
  35.920         80.00	     9.798
  35.940         70.83	     9.220
  35.960         69.17	     9.110
  35.980         60.00	     8.485
  36.000         68.33	     9.055
  36.020         66.67	     8.944
  36.040         72.50	     9.327
  36.060         61.67	     8.602
  36.080         81.67	     9.899
  36.100         79.17	     9.747
  36.120        105.00	    11.225
  36.140         95.83	    10.724
  36.160        115.83	    11.790
  36.180        116.67	    11.832
  36.200        132.50	    12.610
  36.220        141.67	    13.038
  36.240        125.00	    12.247
  36.260        118.33	    11.916
  36.280         91.67	    10.488
  36.300         90.83	    10.440
  36.320         80.00	     9.798
  36.340         72.50	     9.327
  36.360         61.67	     8.602
  36.380         50.83	     7.810
  36.400         54.17	     8.062
  36.420         53.33	     8.000
  36.440         49.17	     7.681
  36.460         60.83	     8.544
  36.480         55.83	     8.185
  36.500         69.17	     9.110
  36.520         51.67	     7.874
  36.540         60.00	     8.485
  36.560         65.00	     8.832
  36.580         83.33	    10.000
  36.600        127.50	    12.369
  36.620        154.17	    13.601
  36.640        167.50	    14.177
  36.660        181.67	    14.765
  36.680        150.83	    13.454
  36.700        136.67	    12.806
  36.720        134.17	    12.689
  36.740        130.83	    12.530
  36.760        117.50	    11.874
  36.780         93.33	    10.583
  36.800         95.00	    10.677
  36.820         75.83	     9.539
  36.840         88.33	    10.296
  36.860         60.83	     8.544
  36.880         64.17	     8.775
  36.900         67.50	     9.000
  36.920         51.67	     7.874
  36.940         51.67	     7.874
  36.960         58.33	     8.367
  36.980         35.00	     6.481
  37.000         45.83	     7.416
  37.020         48.33	     7.616
  37.040         59.17	     8.426
  37.060         51.67	     7.874
  37.080         44.17	     7.280
  37.100         52.50	     7.937
  37.120         60.83	     8.544
  37.140         38.33	     6.782
  37.160         57.50	     8.307
  37.180         51.67	     7.874
  37.200         59.17	     8.426
  37.220         50.83	     7.810
  37.240         55.00	     8.124
  37.260         66.67	     8.944
  37.280         57.50	     8.307
  37.300         58.33	     8.367
  37.320         40.83	     7.000
  37.340         53.33	     8.000
  37.360         60.00	     8.485
  37.380         65.83	     8.888
  37.400         68.33	     9.055
  37.420         63.33	     8.718
  37.440         70.00	     9.165
  37.460         76.67	     9.592
  37.480         57.50	     8.307
  37.500         79.17	     9.747
  37.520         71.67	     9.274
  37.540         63.33	     8.718
  37.560         81.67	     9.899
  37.580         80.83	     9.849
  37.600         71.67	     9.274
  37.620         71.67	     9.274
  37.640         81.67	     9.899
  37.660         76.67	     9.592
  37.680         77.50	     9.644
  37.700         62.50	     8.660
  37.720         85.00	    10.100
  37.740         68.33	     9.055
  37.760         90.00	    10.392
  37.780         78.33	     9.695
  37.800         85.00	    10.100
  37.820         95.00	    10.677
  37.840         65.83	     8.888
  37.860         72.50	     9.327
  37.880         76.67	     9.592
  37.900         57.50	     8.307
  37.920         65.00	     8.832
  37.940         50.83	     7.810
  37.960         52.50	     7.937
  37.980         58.33	     8.367
  38.000         55.83	     8.185
  38.020         35.83	     6.557
  38.040         42.50	     7.141
  38.060         35.83	     6.557
  38.080         41.67	     7.071
  38.100         40.00	     6.928
  38.120         48.33	     7.616
  38.140         39.17	     6.856
  38.160         39.17	     6.856
  38.180         40.00	     6.928
  38.200         40.83	     7.000
  38.220         43.33	     7.211
  38.240         40.83	     7.000
  38.260         32.50	     6.245
  38.280         25.83	     5.568
  38.300         36.67	     6.633
  38.320         26.67	     5.657
  38.340         29.17	     5.916
  38.360         25.83	     5.568
  38.380         31.67	     6.164
  38.400         35.00	     6.481
  38.420         38.33	     6.782
  38.440         31.67	     6.164
  38.460         47.50	     7.550
  38.480         45.83	     7.416
  38.500         37.50	     6.708
  38.520         40.00	     6.928
  38.540         42.50	     7.141
  38.560         36.67	     6.633
  38.580         47.50	     7.550
  38.600         47.50	     7.550
  38.620         49.17	     7.681
  38.640         45.83	     7.416
  38.660         43.33	     7.211
  38.680         40.83	     7.000
  38.700         45.00	     7.348
  38.720         50.00	     7.746
  38.740         45.00	     7.348
  38.760         45.00	     7.348
  38.780         38.33	     6.782
  38.800         42.50	     7.141
  38.820         37.50	     6.708
  38.840         48.33	     7.616
  38.860         47.50	     7.550
  38.880         43.33	     7.211
  38.900         55.00	     8.124
  38.920         60.00	     8.485
  38.940         56.67	     8.246
  38.960         65.00	     8.832
  38.980         50.83	     7.810
  39.000         50.83	     7.810
  39.020         46.67	     7.483
  39.040         42.50	     7.141
  39.060         51.67	     7.874
  39.080         46.67	     7.483
  39.100         30.83	     6.083
  39.120         29.17	     5.916
  39.140         31.67	     6.164
  39.160         37.50	     6.708
  39.180         33.33	     6.325
  39.200         35.00	     6.481
  39.220         45.00	     7.348
  39.240         24.17	     5.385
  39.260         34.17	     6.403
  39.280         38.33	     6.782
  39.300         34.17	     6.403
  39.320         46.67	     7.483
  39.340         39.17	     6.856
  39.360         35.00	     6.481
  39.380         46.67	     7.483
  39.400         33.33	     6.325
  39.420         40.00	     6.928
  39.440         47.50	     7.550
  39.460         35.00	     6.481
  39.480         47.50	     7.550
  39.500         54.17	     8.062
  39.520         79.17	     9.747
  39.540        130.00	    12.490
  39.560        144.17	    13.153
  39.580        141.67	    13.038
  39.600        106.67	    11.314
  39.620         84.17	    10.050
  39.640         93.33	    10.583
  39.660        106.67	    11.314
  39.680         99.17	    10.909
  39.700         65.00	     8.832
  39.720         70.83	     9.220
  39.740         67.50	     9.000
  39.760         70.83	     9.220
  39.780         79.17	     9.747
  39.800         45.00	     7.348
  39.820         50.83	     7.810
  39.840         60.00	     8.485
  39.860         45.00	     7.348
  39.880         50.83	     7.810
  39.900         42.50	     7.141
  39.920         55.00	     8.124
  39.940         47.50	     7.550
  39.960         45.00	     7.348
  39.980         45.00	     7.348
  40.000         49.17	     7.681
  40.020         50.83	     7.810
  40.040         60.83	     8.544
  40.060         74.17	     9.434
  40.080         58.33	     8.367
  40.100         48.33	     7.616
  40.120         44.17	     7.280
  40.140         60.00	     8.485
  40.160         50.00	     7.746
  40.180         47.50	     7.550
  40.200         50.00	     7.746
  40.220         46.67	     7.483
  40.240         48.33	     7.616
  40.260         55.83	     8.185
  40.280         49.17	     7.681
  40.300         60.00	     8.485
  40.320         40.83	     7.000
  40.340         80.00	     9.798
  40.360         75.83	     9.539
  40.380        110.83	    11.533
  40.400         95.00	    10.677
  40.420         82.50	     9.950
  40.440         70.83	     9.220
  40.460         49.17	     7.681
  40.480         65.00	     8.832
  40.500         63.33	     8.718
  40.520         70.00	     9.165
  40.540         53.33	     8.000
  40.560         43.33	     7.211
  40.580         43.33	     7.211
  40.600         43.33	     7.211
  40.620         45.83	     7.416
  40.640         36.67	     6.633
  40.660         32.50	     6.245
  40.680         36.67	     6.633
  40.700         39.17	     6.856
  40.720         39.17	     6.856
  40.740         37.50	     6.708
  40.760         46.67	     7.483
  40.780         39.17	     6.856
  40.800         42.50	     7.141
  40.820         41.67	     7.071
  40.840         40.83	     7.000
  40.860         40.83	     7.000
  40.880         45.00	     7.348
  40.900         37.50	     6.708
  40.920         30.83	     6.083
  40.940         31.67	     6.164
  40.960         49.17	     7.681
  40.980         30.00	     6.000
  41.000         37.50	     6.708
  41.020         41.67	     7.071
  41.040         41.67	     7.071
  41.060         52.50	     7.937
  41.080         42.50	     7.141
  41.100         50.83	     7.810
  41.120         41.67	     7.071
  41.140         36.67	     6.633
  41.160         40.83	     7.000
  41.180         35.83	     6.557
  41.200         30.00	     6.000
  41.220         55.00	     8.124
  41.240         40.83	     7.000
  41.260         39.17	     6.856
  41.280         47.50	     7.550
  41.300         40.83	     7.000
  41.320         49.17	     7.681
  41.340         35.83	     6.557
  41.360         60.83	     8.544
  41.380         43.33	     7.211
  41.400         45.83	     7.416
  41.420         56.67	     8.246
  41.440         50.00	     7.746
  41.460         49.17	     7.681
  41.480         50.00	     7.746
  41.500         35.00	     6.481
  41.520         45.00	     7.348
  41.540         42.50	     7.141
  41.560         37.50	     6.708
  41.580         36.67	     6.633
  41.600         35.83	     6.557
  41.620         43.33	     7.211
  41.640         49.17	     7.681
  41.660         47.50	     7.550
  41.680         44.17	     7.280
  41.700         34.17	     6.403
  41.720         45.00	     7.348
  41.740         52.50	     7.937
  41.760         54.17	     8.062
  41.780         54.17	     8.062
  41.800         74.17	     9.434
  41.820         83.33	    10.000
  41.840         80.00	     9.798
  41.860         78.33	     9.695
  41.880         65.00	     8.832
  41.900         67.50	     9.000
  41.920         55.00	     8.124
  41.940         74.17	     9.434
  41.960         55.00	     8.124
  41.980         70.00	     9.165
  42.000         55.83	     8.185
  42.020         65.00	     8.832
  42.040         61.67	     8.602
  42.060         56.67	     8.246
  42.080         63.33	     8.718
  42.100         56.67	     8.246
  42.120         64.17	     8.775
  42.140         51.67	     7.874
  42.160         63.33	     8.718
  42.180         53.33	     8.000
  42.200         55.00	     8.124
  42.220         59.17	     8.426
  42.240         52.50	     7.937
  42.260         41.67	     7.071
  42.280         61.67	     8.602
  42.300         45.00	     7.348
  42.320         63.33	     8.718
  42.340         55.83	     8.185
  42.360         53.33	     8.000
  42.380         55.83	     8.185
  42.400         60.83	     8.544
  42.420         70.00	     9.165
  42.440         73.33	     9.381
  42.460         81.67	     9.899
  42.480         89.17	    10.344
  42.500        114.17	    11.705
  42.520        171.67	    14.353
  42.540        194.17	    15.264
  42.560        216.67	    16.125
  42.580        160.83	    13.892
  42.600        129.17	    12.450
  42.620        106.67	    11.314
  42.640        119.17	    11.958
  42.660        155.00	    13.638
  42.680        115.83	    11.790
  42.700         98.33	    10.863
  42.720         70.00	     9.165
  42.740         67.50	     9.000
  42.760         65.00	     8.832
  42.780         59.17	     8.426
  42.800         67.50	     9.000
  42.820         58.33	     8.367
  42.840         49.17	     7.681
  42.860         45.83	     7.416
  42.880         48.33	     7.616
  42.900         43.33	     7.211
  42.920         40.00	     6.928
  42.940         42.50	     7.141
  42.960         56.67	     8.246
  42.980         46.67	     7.483
  43.000         39.17	     6.856
  43.020         35.83	     6.557
  43.040         42.50	     7.141
  43.060         50.00	     7.746
  43.080         50.83	     7.810
  43.100         35.83	     6.557
  43.120         40.83	     7.000
  43.140         37.50	     6.708
  43.160         31.67	     6.164
  43.180         48.33	     7.616
  43.200         43.33	     7.211
  43.220         36.67	     6.633
  43.240         39.17	     6.856
  43.260         39.17	     6.856
  43.280         25.83	     5.568
  43.300         30.83	     6.083
  43.320         40.00	     6.928
  43.340         32.50	     6.245
  43.360         40.83	     7.000
  43.380         25.83	     5.568
  43.400         30.00	     6.000
  43.420         30.83	     6.083
  43.440         36.67	     6.633
  43.460         38.33	     6.782
  43.480         39.17	     6.856
  43.500         38.33	     6.782
  43.520         25.83	     5.568
  43.540         42.50	     7.141
  43.560         31.67	     6.164
  43.580         47.50	     7.550
  43.600         39.17	     6.856
  43.620         48.33	     7.616
  43.640         50.00	     7.746
  43.660         40.83	     7.000
  43.680         45.83	     7.416
  43.700         38.33	     6.782
  43.720         50.00	     7.746
  43.740         56.67	     8.246
  43.760         41.67	     7.071
  43.780         53.33	     8.000
  43.800         45.83	     7.416
  43.820         34.17	     6.403
  43.840         45.00	     7.348
  43.860         39.17	     6.856
  43.880         40.83	     7.000
  43.900         30.00	     6.000
  43.920         49.17	     7.681
  43.940         40.00	     6.928
  43.960         53.33	     8.000
  43.980         66.67	     8.944
  44.000         73.33	     9.381
  44.020         43.33	     7.211
  44.040         50.00	     7.746
  44.060         50.00	     7.746
  44.080         55.00	     8.124
  44.100         59.17	     8.426
  44.120         41.67	     7.071
  44.140         31.67	     6.164
  44.160         45.00	     7.348
  44.180         45.83	     7.416
  44.200         34.17	     6.403
  44.220         31.67	     6.164
  44.240         40.00	     6.928
  44.260         50.83	     7.810
  44.280         56.67	     8.246
  44.300         53.33	     8.000
  44.320         55.00	     8.124
  44.340         53.33	     8.000
  44.360         39.17	     6.856
  44.380         50.00	     7.746
  44.400         46.67	     7.483
  44.420         50.00	     7.746
  44.440         41.67	     7.071
  44.460         42.50	     7.141
  44.480         38.33	     6.782
  44.500         26.67	     5.657
  44.520         43.33	     7.211
  44.540         40.00	     6.928
  44.560         38.33	     6.782
  44.580         43.33	     7.211
  44.600         40.00	     6.928
  44.620         34.17	     6.403
  44.640         32.50	     6.245
  44.660         43.33	     7.211
  44.680         45.00	     7.348
  44.700         43.33	     7.211
  44.720         39.17	     6.856
  44.740         54.17	     8.062
  44.760         46.67	     7.483
  44.780         34.17	     6.403
  44.800         50.83	     7.810
  44.820         60.00	     8.485
  44.840         45.83	     7.416
  44.860         52.50	     7.937
  44.880         66.67	     8.944
  44.900         61.67	     8.602
  44.920         53.33	     8.000
  44.940         65.00	     8.832
  44.960         62.50	     8.660
  44.980         68.33	     9.055
  45.000         73.33	     9.381
  45.020         68.33	     9.055
  45.040         73.33	     9.381
  45.060         67.50	     9.000
  45.080         70.83	     9.220
  45.100         65.83	     8.888
  45.120         66.67	     8.944
  45.140         69.17	     9.110
  45.160         56.67	     8.246
  45.180         66.67	     8.944
  45.200         57.50	     8.307
  45.220         69.17	     9.110
  45.240         71.67	     9.274
  45.260         54.17	     8.062
  45.280         67.50	     9.000
  45.300         67.50	     9.000
  45.320         73.33	     9.381
  45.340         60.00	     8.485
  45.360         76.67	     9.592
  45.380         85.83	    10.149
  45.400         79.17	     9.747
  45.420         92.50	    10.536
  45.440         92.50	    10.536
  45.460        114.17	    11.705
  45.480        120.83	    12.042
  45.500        142.50	    13.077
  45.520        183.33	    14.832
  45.540        227.50	    16.523
  45.560        231.67	    16.673
  45.580        277.50	    18.248
  45.600        321.67	    19.647
  45.620        333.33	    20.000
  45.640        365.83	    20.952
  45.660        400.00	    21.909
  45.680        416.67	    22.361
  45.700        428.33	    22.672
  45.720        430.00	    22.716
  45.740        362.50	    20.857
  45.760        305.83	    19.157
  45.780        271.67	    18.055
  45.800        235.83	    16.823
  45.820        260.00	    17.664
  45.840        202.50	    15.588
  45.860        215.00	    16.062
  45.880        170.00	    14.283
  45.900        165.83	    14.107
  45.920        157.50	    13.748
  45.940        101.67	    11.045
  45.960        110.83	    11.533
  45.980         97.50	    10.817
  46.000         82.50	     9.950
  46.020         99.17	    10.909
  46.040         94.17	    10.630
  46.060         80.00	     9.798
  46.080         71.67	     9.274
  46.100         58.33	     8.367
  46.120         56.67	     8.246
  46.140         53.33	     8.000
  46.160         54.17	     8.062
  46.180         60.83	     8.544
  46.200         69.17	     9.110
  46.220         51.67	     7.874
  46.240         51.67	     7.874
  46.260         55.83	     8.185
  46.280         50.00	     7.746
  46.300         47.50	     7.550
  46.320         35.83	     6.557
  46.340         35.00	     6.481
  46.360         48.33	     7.616
  46.380         35.00	     6.481
  46.400         41.67	     7.071
  46.420         41.67	     7.071
  46.440         40.00	     6.928
  46.460         37.50	     6.708
  46.480         30.83	     6.083
  46.500         42.50	     7.141
  46.520         32.50	     6.245
  46.540         35.83	     6.557
  46.560         29.17	     5.916
  46.580         26.67	     5.657
  46.600         43.33	     7.211
  46.620         48.33	     7.616
  46.640         42.50	     7.141
  46.660         50.83	     7.810
  46.680         30.83	     6.083
  46.700         48.33	     7.616
  46.720         45.00	     7.348
  46.740         40.00	     6.928
  46.760         40.83	     7.000
  46.780         43.33	     7.211
  46.800         44.17	     7.280
  46.820         34.17	     6.403
  46.840         35.00	     6.481
  46.860         26.67	     5.657
  46.880         43.33	     7.211
  46.900         50.00	     7.746
  46.920         33.33	     6.325
  46.940         33.33	     6.325
  46.960         40.00	     6.928
  46.980         31.67	     6.164
  47.000         43.33	     7.211
  47.020         32.50	     6.245
  47.040         32.50	     6.245
  47.060         32.50	     6.245
  47.080         39.17	     6.856
  47.100         44.17	     7.280
  47.120         44.17	     7.280
  47.140         44.17	     7.280
  47.160         45.83	     7.416
  47.180         48.33	     7.616
  47.200         54.17	     8.062
  47.220         46.67	     7.483
  47.240         55.83	     8.185
  47.260         55.00	     8.124
  47.280         47.50	     7.550
  47.300         54.17	     8.062
  47.320         41.67	     7.071
  47.340         51.67	     7.874
  47.360         52.50	     7.937
  47.380         54.17	     8.062
  47.400         40.00	     6.928
  47.420         42.50	     7.141
  47.440         42.50	     7.141
  47.460         32.50	     6.245
  47.480         32.50	     6.245
  47.500         30.83	     6.083
  47.520         33.33	     6.325
  47.540         30.00	     6.000
  47.560         39.17	     6.856
  47.580         28.33	     5.831
  47.600         38.33	     6.782
  47.620         30.83	     6.083
  47.640         37.50	     6.708
  47.660         35.00	     6.481
  47.680         39.17	     6.856
  47.700         32.50	     6.245
  47.720         29.17	     5.916
  47.740         35.83	     6.557
  47.760         38.33	     6.782
  47.780         44.17	     7.280
  47.800         36.67	     6.633
  47.820         43.33	     7.211
  47.840         31.67	     6.164
  47.860         30.83	     6.083
  47.880         34.17	     6.403
  47.900         26.67	     5.657
  47.920         38.33	     6.782
  47.940         32.50	     6.245
  47.960         28.33	     5.831
  47.980         20.00	     4.899
  48.000         37.50	     6.708
  48.020         41.67	     7.071
  48.040         53.33	     8.000
  48.060         47.50	     7.550
  48.080         50.83	     7.810
  48.100         44.17	     7.280
  48.120         57.50	     8.307
  48.140         53.33	     8.000
  48.160         48.33	     7.616
  48.180         65.83	     8.888
  48.200         74.17	     9.434
  48.220         75.83	     9.539
  48.240         86.67	    10.198
  48.260         75.00	     9.487
  48.280         70.00	     9.165
  48.300         67.50	     9.000
  48.320         68.33	     9.055
  48.340         65.83	     8.888
  48.360         61.67	     8.602
  48.380         75.00	     9.487
  48.400         69.17	     9.110
  48.420         60.00	     8.485
  48.440         43.33	     7.211
  48.460         59.17	     8.426
  48.480         57.50	     8.307
  48.500         50.83	     7.810
  48.520         44.17	     7.280
  48.540         43.33	     7.211
  48.560         41.67	     7.071
  48.580         45.83	     7.416
  48.600         31.67	     6.164
  48.620         30.00	     6.000
  48.640         39.17	     6.856
  48.660         42.50	     7.141
  48.680         33.33	     6.325
  48.700         44.17	     7.280
  48.720         37.50	     6.708
  48.740         30.00	     6.000
  48.760         47.50	     7.550
  48.780         40.83	     7.000
  48.800         38.33	     6.782
  48.820         42.50	     7.141
  48.840         46.67	     7.483
  48.860         33.33	     6.325
  48.880         34.17	     6.403
  48.900         45.83	     7.416
  48.920         35.00	     6.481
  48.940         34.17	     6.403
  48.960         31.67	     6.164
  48.980         35.00	     6.481
  49.000         44.17	     7.280
  49.020         36.67	     6.633
  49.040         31.67	     6.164
  49.060         28.33	     5.831
  49.080         36.67	     6.633
  49.100         40.00	     6.928
  49.120         40.83	     7.000
  49.140         35.00	     6.481
  49.160         35.00	     6.481
  49.180         46.67	     7.483
  49.200         43.33	     7.211
  49.220         26.67	     5.657
  49.240         35.83	     6.557
  49.260         37.50	     6.708
  49.280         50.00	     7.746
  49.300         56.67	     8.246
  49.320         57.50	     8.307
  49.340         39.17	     6.856
  49.360         51.67	     7.874
  49.380         40.00	     6.928
  49.400         55.83	     8.185
  49.420         35.00	     6.481
  49.440         35.83	     6.557
  49.460         49.17	     7.681
  49.480         50.83	     7.810
  49.500         35.00	     6.481
  49.520         46.67	     7.483
  49.540         44.17	     7.280
  49.560         48.33	     7.616
  49.580         42.50	     7.141
  49.600         47.50	     7.550
  49.620         50.00	     7.746
  49.640         40.00	     6.928
  49.660         40.83	     7.000
  49.680         45.83	     7.416
  49.700         32.50	     6.245
  49.720         42.50	     7.141
  49.740         47.50	     7.550
  49.760         46.67	     7.483
  49.780         50.83	     7.810
  49.800         56.67	     8.246
  49.820         42.50	     7.141
  49.840         52.50	     7.937
  49.860         61.67	     8.602
  49.880         73.33	     9.381
  49.900         80.83	     9.849
  49.920         64.17	     8.775
  49.940         63.33	     8.718
  49.960         63.33	     8.718
  49.980         65.83	     8.888
  50.000         82.50	     9.950
  50.020         95.00	    10.677
  50.040         74.17	     9.434
  50.060         81.67	     9.899
  50.080         72.50	     9.327
  50.100         95.00	    10.677
  50.120         83.33	    10.000
  50.140        100.83	    11.000
  50.160         98.33	    10.863
  50.180        149.17	    13.379
  50.200        201.67	    15.556
  50.220        223.33	    16.371
  50.240        245.83	    17.176
  50.260        248.33	    17.263
  50.280        181.67	    14.765
  50.300        136.67	    12.806
  50.320        133.33	    12.649
  50.340        150.83	    13.454
  50.360        132.50	    12.610
  50.380        180.00	    14.697
  50.400        124.17	    12.207
  50.420        104.17	    11.180
  50.440         65.83	     8.888
  50.460         49.17	     7.681
  50.480         50.00	     7.746
  50.500         44.17	     7.280
  50.520         45.00	     7.348
  50.540         50.83	     7.810
  50.560         51.67	     7.874
  50.580         41.67	     7.071
  50.600         50.83	     7.810
  50.620         48.33	     7.616
  50.640         54.17	     8.062
  50.660         75.83	     9.539
  50.680         80.00	     9.798
  50.700         84.17	    10.050
  50.720         75.00	     9.487
  50.740         52.50	     7.937
  50.760         65.00	     8.832
  50.780         59.17	     8.426
  50.800         68.33	     9.055
  50.820         63.33	     8.718
  50.840         75.83	     9.539
  50.860         55.83	     8.185
  50.880         55.00	     8.124
  50.900         41.67	     7.071
  50.920         41.67	     7.071
  50.940         39.17	     6.856
  50.960         44.17	     7.280
  50.980         37.50	     6.708
  51.000         37.50	     6.708
  51.020         30.83	     6.083
  51.040         38.33	     6.782
  51.060         32.50	     6.245
  51.080         35.83	     6.557
  51.100         20.83	     5.000
  51.120         35.00	     6.481
  51.140         36.67	     6.633
  51.160         42.50	     7.141
  51.180         40.83	     7.000
  51.200         55.83	     8.185
  51.220         52.50	     7.937
  51.240         86.67	    10.198
  51.260         78.33	     9.695
  51.280         70.00	     9.165
  51.300         60.00	     8.485
  51.320         55.00	     8.124
  51.340         60.83	     8.544
  51.360         47.50	     7.550
  51.380         62.50	     8.660
  51.400         65.83	     8.888
  51.420         58.33	     8.367
  51.440         49.17	     7.681
  51.460         57.50	     8.307
  51.480         62.50	     8.660
  51.500         40.00	     6.928
  51.520         50.83	     7.810
  51.540         34.17	     6.403
  51.560         35.00	     6.481
  51.580         38.33	     6.782
  51.600         37.50	     6.708
  51.620         45.83	     7.416
  51.640         48.33	     7.616
  51.660         42.50	     7.141
  51.680         30.00	     6.000
  51.700         27.50	     5.745
  51.720         39.17	     6.856
  51.740         30.00	     6.000
  51.760         35.83	     6.557
  51.780         26.67	     5.657
  51.800         28.33	     5.831
  51.820         35.00	     6.481
  51.840         28.33	     5.831
  51.860         45.00	     7.348
  51.880         53.33	     8.000
  51.900         52.50	     7.937
  51.920         49.17	     7.681
  51.940         39.17	     6.856
  51.960         33.33	     6.325
  51.980         39.17	     6.856
  52.000         33.33	     6.325
  52.020         33.33	     6.325
  52.040         31.67	     6.164
  52.060         37.50	     6.708
  52.080         34.17	     6.403
  52.100         31.67	     6.164
  52.120         35.00	     6.481
  52.140         30.83	     6.083
  52.160         42.50	     7.141
  52.180         37.50	     6.708
  52.200         36.67	     6.633
  52.220         41.67	     7.071
  52.240         55.00	     8.124
  52.260         55.83	     8.185
  52.280         55.00	     8.124
  52.300         39.17	     6.856
  52.320         38.33	     6.782
  52.340         32.50	     6.245
  52.360         37.50	     6.708
  52.380         53.33	     8.000
  52.400         43.33	     7.211
  52.420         39.17	     6.856
  52.440         40.00	     6.928
  52.460         40.00	     6.928
  52.480         25.83	     5.568
  52.500         46.67	     7.483
  52.520         45.00	     7.348
  52.540         42.50	     7.141
  52.560         40.83	     7.000
  52.580         56.67	     8.246
  52.600         51.67	     7.874
  52.620         40.83	     7.000
  52.640         41.67	     7.071
  52.660         39.17	     6.856
  52.680         32.50	     6.245
  52.700         45.00	     7.348
  52.720         45.83	     7.416
  52.740         35.83	     6.557
  52.760         40.83	     7.000
  52.780         47.50	     7.550
  52.800         40.00	     6.928
  52.820         33.33	     6.325
  52.840         29.17	     5.916
  52.860         39.17	     6.856
  52.880         44.17	     7.280
  52.900         37.50	     6.708
  52.920         50.83	     7.810
  52.940         42.50	     7.141
  52.960         50.83	     7.810
  52.980         52.50	     7.937
  53.000         45.00	     7.348
  53.020         37.50	     6.708
  53.040         43.33	     7.211
  53.060         41.67	     7.071
  53.080         59.17	     8.426
  53.100         48.33	     7.616
  53.120         40.83	     7.000
  53.140         49.17	     7.681
  53.160         37.50	     6.708
  53.180         42.50	     7.141
  53.200         25.00	     5.477
  53.220         35.83	     6.557
  53.240         38.33	     6.782
  53.260         44.17	     7.280
  53.280         39.17	     6.856
  53.300         35.83	     6.557
  53.320         51.67	     7.874
  53.340         59.17	     8.426
  53.360         45.83	     7.416
  53.380         49.17	     7.681
  53.400         39.17	     6.856
  53.420         46.67	     7.483
  53.440         47.50	     7.550
  53.460         47.50	     7.550
  53.480         36.67	     6.633
  53.500         50.00	     7.746
  53.520         40.00	     6.928
  53.540         38.33	     6.782
  53.560         41.67	     7.071
  53.580         49.17	     7.681
  53.600         53.33	     8.000
  53.620         42.50	     7.141
  53.640         32.50	     6.245
  53.660         33.33	     6.325
  53.680         37.50	     6.708
  53.700         45.83	     7.416
  53.720         41.67	     7.071
  53.740         35.00	     6.481
  53.760         48.33	     7.616
  53.780         41.67	     7.071
  53.800         40.00	     6.928
  53.820         26.67	     5.657
  53.840         33.33	     6.325
  53.860         42.50	     7.141
  53.880         47.50	     7.550
  53.900         42.50	     7.141
  53.920         31.67	     6.164
  53.940         38.33	     6.782
  53.960         44.17	     7.280
  53.980         35.00	     6.481
  54.000         39.17	     6.856
  54.020         40.83	     7.000
  54.040         35.83	     6.557
  54.060         44.17	     7.280
  54.080         31.67	     6.164
  54.100         39.17	     6.856
  54.120         35.00	     6.481
  54.140         34.17	     6.403
  54.160         37.50	     6.708
  54.180         26.67	     5.657
  54.200         28.33	     5.831
  54.220         25.00	     5.477
  54.240         36.67	     6.633
  54.260         33.33	     6.325
  54.280         42.50	     7.141
  54.300         35.83	     6.557
  54.320         43.33	     7.211
  54.340         42.50	     7.141
  54.360         43.33	     7.211
  54.380         36.67	     6.633
  54.400         40.00	     6.928
  54.420         42.50	     7.141
  54.440         36.67	     6.633
  54.460         45.83	     7.416
  54.480         35.83	     6.557
  54.500         46.67	     7.483
  54.520         42.50	     7.141
  54.540         45.00	     7.348
  54.560         38.33	     6.782
  54.580         40.00	     6.928
  54.600         39.17	     6.856
  54.620         38.33	     6.782
  54.640         50.83	     7.810
  54.660         32.50	     6.245
  54.680         48.33	     7.616
  54.700         36.67	     6.633
  54.720         45.00	     7.348
  54.740         50.00	     7.746
  54.760         45.83	     7.416
  54.780         32.50	     6.245
  54.800         55.83	     8.185
  54.820         49.17	     7.681
  54.840         50.00	     7.746
  54.860         48.33	     7.616
  54.880         49.17	     7.681
  54.900         50.00	     7.746
  54.920         66.67	     8.944
  54.940         83.33	    10.000
  54.960        109.17	    11.446
  54.980        102.50	    11.091
  55.000         83.33	    10.000
  55.020         55.00	     8.124
  55.040         67.50	     9.000
  55.060         64.17	     8.775
  55.080         70.00	     9.165
  55.100         88.33	    10.296
  55.120         76.67	     9.592
  55.140         76.67	     9.592
  55.160         72.50	     9.327
  55.180         65.00	     8.832
  55.200         56.67	     8.246
  55.220         44.17	     7.280
  55.240         60.83	     8.544
  55.260         52.50	     7.937
  55.280         65.00	     8.832
  55.300         51.67	     7.874
  55.320         75.00	     9.487
  55.340         63.33	     8.718
  55.360         66.67	     8.944
  55.380         71.67	     9.274
  55.400         70.00	     9.165
  55.420         90.83	    10.440
  55.440         75.83	     9.539
  55.460         65.00	     8.832
  55.480         70.83	     9.220
  55.500         66.67	     8.944
  55.520         66.67	     8.944
  55.540         55.00	     8.124
  55.560         65.83	     8.888
  55.580         80.00	     9.798
  55.600         64.17	     8.775
  55.620         65.00	     8.832
  55.640         56.67	     8.246
  55.660         51.67	     7.874
  55.680         62.50	     8.660
  55.700         54.17	     8.062
  55.720         56.67	     8.246
  55.740         69.17	     9.110
  55.760         67.50	     9.000
  55.780         61.67	     8.602
  55.800         65.83	     8.888
  55.820         66.67	     8.944
  55.840         68.33	     9.055
  55.860         75.83	     9.539
  55.880         86.67	    10.198
  55.900         78.33	     9.695
  55.920         85.83	    10.149
  55.940         86.67	    10.198
  55.960         77.50	     9.644
  55.980         80.83	     9.849
  56.000         96.67	    10.770
  56.020         65.83	     8.888
  56.040         72.50	     9.327
  56.060         71.67	     9.274
  56.080         66.67	     8.944
  56.100         48.33	     7.616
  56.120         58.33	     8.367
  56.140         56.67	     8.246
  56.160         65.00	     8.832
  56.180         48.33	     7.616
  56.200         55.83	     8.185
  56.220         42.50	     7.141
  56.240         40.00	     6.928
  56.260         37.50	     6.708
  56.280         46.67	     7.483
  56.300         41.67	     7.071
  56.320         38.33	     6.782
  56.340         43.33	     7.211
  56.360         34.17	     6.403
  56.380         40.00	     6.928
  56.400         38.33	     6.782
  56.420         42.50	     7.141
  56.440         31.67	     6.164
  56.460         35.83	     6.557
  56.480         39.17	     6.856
  56.500         41.67	     7.071
  56.520         44.17	     7.280
  56.540         33.33	     6.325
  56.560         37.50	     6.708
  56.580         33.33	     6.325
  56.600         40.00	     6.928
  56.620         30.00	     6.000
  56.640         40.00	     6.928
  56.660         42.50	     7.141
  56.680         44.17	     7.280
  56.700         46.67	     7.483
  56.720         29.17	     5.916
  56.740         31.67	     6.164
  56.760         47.50	     7.550
  56.780         42.50	     7.141
  56.800         42.50	     7.141
  56.820         36.67	     6.633
  56.840         38.33	     6.782
  56.860         41.67	     7.071
  56.880         40.83	     7.000
  56.900         40.83	     7.000
  56.920         47.50	     7.550
  56.940         35.83	     6.557
  56.960         45.83	     7.416
  56.980         94.17	    10.630
  57.000        183.33	    14.832
  57.020        191.67	    15.166
  57.040         95.00	    10.677
  57.060         60.83	     8.544
  57.080         47.50	     7.550
  57.100         50.00	     7.746
  57.120         53.33	     8.000
  57.140         82.50	     9.950
  57.160        113.33	    11.662
  57.180         77.50	     9.644
  57.200         46.67	     7.483
  57.220         33.33	     6.325
  57.240         50.00	     7.746
  57.260         41.67	     7.071
  57.280         31.67	     6.164
  57.300         50.00	     7.746
  57.320         48.33	     7.616
  57.340         40.83	     7.000
  57.360         49.17	     7.681
  57.380         36.67	     6.633
  57.400         41.67	     7.071
  57.420         35.00	     6.481
  57.440         34.17	     6.403
  57.460         28.33	     5.831
  57.480         42.50	     7.141
  57.500         38.33	     6.782
  57.520         43.33	     7.211
  57.540         33.33	     6.325
  57.560         40.00	     6.928
  57.580         32.50	     6.245
  57.600         41.67	     7.071
  57.620         37.50	     6.708
  57.640         40.83	     7.000
  57.660         39.17	     6.856
  57.680         39.17	     6.856
  57.700         46.67	     7.483
  57.720         45.83	     7.416
  57.740         41.67	     7.071
  57.760         46.67	     7.483
  57.780         35.83	     6.557
  57.800         43.33	     7.211
  57.820         35.83	     6.557
  57.840         35.83	     6.557
  57.860         34.17	     6.403
  57.880         42.50	     7.141
  57.900         35.00	     6.481
  57.920         26.67	     5.657
  57.940         35.00	     6.481
  57.960         30.83	     6.083
  57.980         43.33	     7.211
  58.000         23.33	     5.292
  58.020         36.67	     6.633
  58.040         45.83	     7.416
  58.060         39.17	     6.856
  58.080         45.00	     7.348
  58.100         46.67	     7.483
  58.120         32.50	     6.245
  58.140         36.67	     6.633
  58.160         42.50	     7.141
  58.180         39.17	     6.856
  58.200         43.33	     7.211
  58.220         41.67	     7.071
  58.240         41.67	     7.071
  58.260         37.50	     6.708
  58.280         33.33	     6.325
  58.300         37.50	     6.708
  58.320         46.67	     7.483
  58.340         38.33	     6.782
  58.360         34.17	     6.403
  58.380         35.00	     6.481
  58.400         40.83	     7.000
  58.420         43.33	     7.211
  58.440         46.67	     7.483
  58.460         39.17	     6.856
  58.480         43.33	     7.211
  58.500         41.67	     7.071
  58.520         32.50	     6.245
  58.540         30.00	     6.000
  58.560         35.00	     6.481
  58.580         32.50	     6.245
  58.600         46.67	     7.483
  58.620         34.17	     6.403
  58.640         35.83	     6.557
  58.660         41.67	     7.071
  58.680         42.50	     7.141
  58.700         40.83	     7.000
  58.720         35.83	     6.557
  58.740         53.33	     8.000
  58.760         60.00	     8.485
  58.780         60.00	     8.485
  58.800         55.00	     8.124
  58.820         55.83	     8.185
  58.840         45.00	     7.348
  58.860         58.33	     8.367
  58.880         59.17	     8.426
  58.900         45.83	     7.416
  58.920         63.33	     8.718
  58.940         44.17	     7.280
  58.960         52.50	     7.937
  58.980         54.17	     8.062
  59.000         43.33	     7.211
  59.020         59.17	     8.426
  59.040         50.83	     7.810
  59.060         43.33	     7.211
  59.080         52.50	     7.937
  59.100         41.67	     7.071
  59.120         41.67	     7.071
  59.140         50.83	     7.810
  59.160         49.17	     7.681
  59.180         59.17	     8.426
  59.200         56.67	     8.246
  59.220         48.33	     7.616
  59.240         41.67	     7.071
  59.260         58.33	     8.367
  59.280         45.83	     7.416
  59.300         66.67	     8.944
  59.320         75.83	     9.539
  59.340         65.83	     8.888
  59.360         68.33	     9.055
  59.380         41.67	     7.071
  59.400         62.50	     8.660
  59.420         61.67	     8.602
  59.440         56.67	     8.246
  59.460         43.33	     7.211
  59.480         70.00	     9.165
  59.500         46.67	     7.483
  59.520         60.83	     8.544
  59.540         47.50	     7.550
  59.560         44.17	     7.280
  59.580         46.67	     7.483
  59.600         50.83	     7.810
  59.620         41.67	     7.071
  59.640         33.33	     6.325
  59.660         47.50	     7.550
  59.680         36.67	     6.633
  59.700         47.50	     7.550
  59.720         49.17	     7.681
  59.740         42.50	     7.141
  59.760         50.00	     7.746
  59.780         40.83	     7.000
  59.800         40.00	     6.928
  59.820         38.33	     6.782
  59.840         40.83	     7.000
  59.860         45.00	     7.348
  59.880         60.00	     8.485
  59.900         50.83	     7.810
  59.920         46.67	     7.483
  59.940         59.17	     8.426
  59.960         83.33	    10.000
  59.980         72.50	     9.327
  60.000        100.00	    10.954
  60.020        164.17	    14.036
  60.040        243.33	    17.088
  60.060        274.17	    18.138
  60.080        248.33	    17.263
  60.100        166.67	    14.142
  60.120         96.67	    10.770
  60.140         97.50	    10.817
  60.160        100.83	    11.000
  60.180        110.00	    11.489
  60.200        151.67	    13.491
  60.220        160.00	    13.856
  60.240        154.17	    13.601
  60.260        120.00	    12.000
  60.280        107.50	    11.358
  60.300         67.50	     9.000
  60.320         65.83	     8.888
  60.340         61.67	     8.602
  60.360         67.50	     9.000
  60.380         60.83	     8.544
  60.400         53.33	     8.000
  60.420         45.00	     7.348
  60.440         55.83	     8.185
  60.460         45.00	     7.348
  60.480         55.00	     8.124
  60.500         30.00	     6.000
  60.520         45.00	     7.348
  60.540         60.00	     8.485
  60.560         51.67	     7.874
  60.580         55.83	     8.185
  60.600         38.33	     6.782
  60.620         40.00	     6.928
  60.640         47.50	     7.550
  60.660         45.00	     7.348
  60.680         47.50	     7.550
  60.700         39.17	     6.856
  60.720         60.00	     8.485
  60.740         62.50	     8.660
  60.760         52.50	     7.937
  60.780         50.00	     7.746
  60.800         55.00	     8.124
  60.820         55.83	     8.185
  60.840         55.00	     8.124
  60.860         55.83	     8.185
  60.880         64.17	     8.775
  60.900         69.17	     9.110
  60.920         59.17	     8.426
  60.940         67.50	     9.000
  60.960         70.00	     9.165
  60.980         59.17	     8.426
  61.000         70.00	     9.165
  61.020         72.50	     9.327
  61.040         56.67	     8.246
  61.060         58.33	     8.367
  61.080         55.83	     8.185
  61.100         51.67	     7.874
  61.120         60.83	     8.544
  61.140         64.17	     8.775
  61.160         56.67	     8.246
  61.180         45.83	     7.416
  61.200         56.67	     8.246
  61.220         50.83	     7.810
  61.240         58.33	     8.367
  61.260         51.67	     7.874
  61.280         55.83	     8.185
  61.300         50.00	     7.746
  61.320         48.33	     7.616
  61.340         47.50	     7.550
  61.360         47.50	     7.550
  61.380         55.83	     8.185
  61.400         67.50	     9.000
  61.420         60.83	     8.544
  61.440         51.67	     7.874
  61.460         60.83	     8.544
  61.480         46.67	     7.483
  61.500         56.67	     8.246
  61.520         47.50	     7.550
  61.540         54.17	     8.062
  61.560         55.83	     8.185
  61.580         50.00	     7.746
  61.600         80.83	     9.849
  61.620         61.67	     8.602
  61.640         59.17	     8.426
  61.660         63.33	     8.718
  61.680         71.67	     9.274
  61.700         62.50	     8.660
  61.720         61.67	     8.602
  61.740         60.00	     8.485
  61.760         52.50	     7.937
  61.780         50.00	     7.746
  61.800         57.50	     8.307
  61.820         67.50	     9.000
  61.840         64.17	     8.775
  61.860         58.33	     8.367
  61.880         60.00	     8.485
  61.900         46.67	     7.483
  61.920         60.00	     8.485
  61.940         50.00	     7.746
  61.960         60.00	     8.485
  61.980         61.67	     8.602
  62.000         57.50	     8.307
  62.020         55.00	     8.124
  62.040         64.17	     8.775
  62.060         54.17	     8.062
  62.080         41.67	     7.071
  62.100         49.17	     7.681
  62.120         46.67	     7.483
  62.140         45.83	     7.416
  62.160         55.00	     8.124
  62.180         37.50	     6.708
  62.200         43.33	     7.211
  62.220         45.83	     7.416
  62.240         53.33	     8.000
  62.260         45.83	     7.416
  62.280         41.67	     7.071
  62.300         39.17	     6.856
  62.320         48.33	     7.616
  62.340         39.17	     6.856
  62.360         49.17	     7.681
  62.380         40.83	     7.000
  62.400         36.67	     6.633
  62.420         29.17	     5.916
  62.440         36.67	     6.633
  62.460         39.17	     6.856
  62.480         35.00	     6.481
  62.500         39.17	     6.856
  62.520         28.33	     5.831
  62.540         35.83	     6.557
  62.560         40.00	     6.928
  62.580         38.33	     6.782
  62.600         35.00	     6.481
  62.620         35.83	     6.557
  62.640         46.67	     7.483
  62.660         40.83	     7.000
  62.680         39.17	     6.856
  62.700         30.83	     6.083
  62.720         31.67	     6.164
  62.740         35.83	     6.557
  62.760         38.33	     6.782
  62.780         30.83	     6.083
  62.800         45.00	     7.348
  62.820         35.00	     6.481
  62.840         49.17	     7.681
  62.860         48.33	     7.616
  62.880         48.33	     7.616
  62.900         35.00	     6.481
  62.920         45.83	     7.416
  62.940         31.67	     6.164
  62.960         48.33	     7.616
  62.980         51.67	     7.874
  63.000         42.50	     7.141
  63.020         41.67	     7.071
  63.040         36.67	     6.633
  63.060         30.83	     6.083
  63.080         38.33	     6.782
  63.100         34.17	     6.403
  63.120         35.00	     6.481
  63.140         30.00	     6.000
  63.160         27.50	     5.745
  63.180         35.00	     6.481
  63.200         47.50	     7.550
  63.220         35.83	     6.557
  63.240         30.00	     6.000
  63.260         31.67	     6.164
  63.280         37.50	     6.708
  63.300         30.83	     6.083
  63.320         35.00	     6.481
  63.340         42.50	     7.141
  63.360         37.50	     6.708
  63.380         33.33	     6.325
  63.400         44.17	     7.280
  63.420         45.83	     7.416
  63.440         36.67	     6.633
  63.460         45.00	     7.348
  63.480         45.00	     7.348
  63.500         45.00	     7.348
  63.520         48.33	     7.616
  63.540         45.83	     7.416
  63.560         50.00	     7.746
  63.580         48.33	     7.616
  63.600         55.00	     8.124
  63.620         42.50	     7.141
  63.640         57.50	     8.307
  63.660         34.17	     6.403
  63.680         30.83	     6.083
  63.700         40.00	     6.928
  63.720         40.83	     7.000
  63.740         37.50	     6.708
  63.760         39.17	     6.856
  63.780         49.17	     7.681
  63.800         46.67	     7.483
  63.820         55.00	     8.124
  63.840         54.17	     8.062
  63.860         40.83	     7.000
  63.880         42.50	     7.141
  63.900         46.67	     7.483
  63.920         41.67	     7.071
  63.940         58.33	     8.367
  63.960         45.83	     7.416
  63.980         42.50	     7.141
  64.000         57.50	     8.307
  64.020         71.67	     9.274
  64.040         45.00	     7.348
  64.060         70.83	     9.220
  64.080         84.17	    10.050
  64.100         67.50	     9.000
  64.120         85.00	    10.100
  64.140         78.33	     9.695
  64.160         70.83	     9.220
  64.180         72.50	     9.327
  64.200         60.83	     8.544
  64.220         60.00	     8.485
  64.240         54.17	     8.062
  64.260         67.50	     9.000
  64.280         78.33	     9.695
  64.300         78.33	     9.695
  64.320         79.17	     9.747
  64.340         46.67	     7.483
  64.360         66.67	     8.944
  64.380         55.83	     8.185
  64.400         60.83	     8.544
  64.420         64.17	     8.775
  64.440         72.50	     9.327
  64.460         63.33	     8.718
  64.480         65.00	     8.832
  64.500         65.83	     8.888
  64.520         74.17	     9.434
  64.540         50.00	     7.746
  64.560         55.00	     8.124
  64.580         51.67	     7.874
  64.600         55.83	     8.185
  64.620         56.67	     8.246
  64.640         53.33	     8.000
  64.660         46.67	     7.483
  64.680         53.33	     8.000
  64.700         46.67	     7.483
  64.720         45.83	     7.416
  64.740         47.50	     7.550
  64.760         41.67	     7.071
  64.780         50.83	     7.810
  64.800         46.67	     7.483
  64.820         43.33	     7.211
  64.840         38.33	     6.782
  64.860         47.50	     7.550
  64.880         44.17	     7.280
  64.900         41.67	     7.071
  64.920         50.00	     7.746
  64.940         44.17	     7.280
  64.960         41.67	     7.071
  64.980         45.83	     7.416
  65.000         52.50	     7.937
