
Filename:
	C:\Program Files\Thermo Electron\WinXRD\Datafiles\F_HERMAN\FIEN\1_5_SEPT_FILTER.raw

File Created:
	December 18, 2018 - 06:12 PM

Specimen Id:
	1.5 SEPTEMBER AG  FILTER

Specimen Name:
	

Specimen Description:
	

Comment:
Scan Type: 2Theta Scan
Start Angle: 1 deg.
Stop Angle: 65 deg.
Num Points: 3201
Step Size: 0.02 deg.
Scan Rate: 1.000000
Scan Mode: Continuous
Wavelength: 1.540562
\Kalpha1: 1.540562	\Kalpha2: 1.544390	\Kbeta: 1.392218

Optics:
		Detector:
			 Type: Fixed Slits
		Tube: 
			 Type: Fixed Slits


Datas:
 Pos [deg]       Rate [CPS]      ESD [-]

Range 1 ---> Iteration 1
   1.000        865.00	    32.218
   1.020        800.00	    30.984
   1.040        560.83	    25.942
   1.060        572.50	    26.211
   1.080        485.00	    24.125
   1.100        424.17	    22.561
   1.120        384.17	    21.471
   1.140        376.67	    21.260
   1.160        410.00	    22.181
   1.180        403.33	    22.000
   1.200        460.00	    23.495
   1.220        376.67	    21.260
   1.240        363.33	    20.881
   1.260        386.67	    21.541
   1.280        463.33	    23.580
   1.300        540.83	    25.475
   1.320        608.33	    27.019
   1.340        780.00	    30.594
   1.360        899.17	    32.848
   1.380       1109.17	    36.483
   1.400       1228.33	    38.393
   1.420       1180.00	    37.630
   1.440       1219.17	    38.249
   1.460       1064.17	    35.735
   1.480       1075.00	    35.917
   1.500       1090.00	    36.166
   1.520       1065.00	    35.749
   1.540       1052.50	    35.539
   1.560        940.83	    33.601
   1.580        950.00	    33.764
   1.600        845.83	    31.859
   1.620        834.17	    31.639
   1.640        792.50	    30.838
   1.660        756.67	    30.133
   1.680        729.17	    29.580
   1.700        640.83	    27.731
   1.720        566.67	    26.077
   1.740        535.83	    25.357
   1.760        511.67	    24.779
   1.780        514.17	    24.839
   1.800        455.00	    23.367
   1.820        412.50	    22.249
   1.840        404.17	    22.023
   1.860        377.50	    21.284
   1.880        360.83	    20.809
   1.900        343.33	    20.298
   1.920        373.33	    21.166
   1.940        350.00	    20.494
   1.960        365.00	    20.928
   1.980        363.33	    20.881
   2.000        322.50	    19.672
   2.020        341.67	    20.248
   2.040        317.50	    19.519
   2.060        303.33	    19.079
   2.080        322.50	    19.672
   2.100        280.83	    18.358
   2.120        285.00	    18.493
   2.140        268.33	    17.944
   2.160        265.00	    17.833
   2.180        288.33	    18.601
   2.200        266.67	    17.889
   2.220        261.67	    17.720
   2.240        241.67	    17.029
   2.260        262.50	    17.748
   2.280        274.17	    18.138
   2.300        252.50	    17.407
   2.320        252.50	    17.407
   2.340        239.17	    16.941
   2.360        238.33	    16.912
   2.380        235.83	    16.823
   2.400        231.67	    16.673
   2.420        214.17	    16.031
   2.440        210.83	    15.906
   2.460        226.67	    16.492
   2.480        234.17	    16.763
   2.500        238.33	    16.912
   2.520        207.50	    15.780
   2.540        216.67	    16.125
   2.560        199.17	    15.460
   2.580        196.67	    15.362
   2.600        216.67	    16.125
   2.620        204.17	    15.652
   2.640        192.50	    15.199
   2.660        191.67	    15.166
   2.680        196.67	    15.362
   2.700        210.83	    15.906
   2.720        204.17	    15.652
   2.740        210.00	    15.875
   2.760        201.67	    15.556
   2.780        196.67	    15.362
   2.800        195.00	    15.297
   2.820        164.17	    14.036
   2.840        177.50	    14.595
   2.860        192.50	    15.199
   2.880        185.83	    14.933
   2.900        185.83	    14.933
   2.920        180.00	    14.697
   2.940        167.50	    14.177
   2.960        176.67	    14.560
   2.980        179.17	    14.663
   3.000        177.50	    14.595
   3.020        169.17	    14.248
   3.040        172.50	    14.387
   3.060        170.83	    14.318
   3.080        198.33	    15.427
   3.100        155.00	    13.638
   3.120        167.50	    14.177
   3.140        180.00	    14.697
   3.160        165.83	    14.107
   3.180        142.50	    13.077
   3.200        193.33	    15.232
   3.220        160.83	    13.892
   3.240        160.83	    13.892
   3.260        165.83	    14.107
   3.280        160.83	    13.892
   3.300        129.17	    12.450
   3.320        152.50	    13.528
   3.340        157.50	    13.748
   3.360        134.17	    12.689
   3.380        145.83	    13.229
   3.400        143.33	    13.115
   3.420        156.67	    13.711
   3.440        134.17	    12.689
   3.460        134.17	    12.689
   3.480        122.50	    12.124
   3.500        135.00	    12.728
   3.520        130.83	    12.530
   3.540        138.33	    12.884
   3.560        138.33	    12.884
   3.580        156.67	    13.711
   3.600        120.83	    12.042
   3.620        134.17	    12.689
   3.640        135.83	    12.767
   3.660        146.67	    13.266
   3.680        136.67	    12.806
   3.700        138.33	    12.884
   3.720        129.17	    12.450
   3.740        141.67	    13.038
   3.760        136.67	    12.806
   3.780        122.50	    12.124
   3.800        124.17	    12.207
   3.820        148.33	    13.342
   3.840        146.67	    13.266
   3.860        119.17	    11.958
   3.880        114.17	    11.705
   3.900        125.00	    12.247
   3.920        123.33	    12.166
   3.940        124.17	    12.207
   3.960        132.50	    12.610
   3.980        122.50	    12.124
   4.000        113.33	    11.662
   4.020        141.67	    13.038
   4.040        113.33	    11.662
   4.060        124.17	    12.207
   4.080        105.00	    11.225
   4.100        119.17	    11.958
   4.120        110.00	    11.489
   4.140        123.33	    12.166
   4.160         95.00	    10.677
   4.180        116.67	    11.832
   4.200        117.50	    11.874
   4.220        116.67	    11.832
   4.240        120.00	    12.000
   4.260        127.50	    12.369
   4.280        110.83	    11.533
   4.300        104.17	    11.180
   4.320         91.67	    10.488
   4.340        116.67	    11.832
   4.360        108.33	    11.402
   4.380         97.50	    10.817
   4.400        110.83	    11.533
   4.420        116.67	    11.832
   4.440        100.83	    11.000
   4.460        108.33	    11.402
   4.480        114.17	    11.705
   4.500         98.33	    10.863
   4.520         91.67	    10.488
   4.540         99.17	    10.909
   4.560        110.83	    11.533
   4.580        101.67	    11.045
   4.600        109.17	    11.446
   4.620         84.17	    10.050
   4.640         98.33	    10.863
   4.660        101.67	    11.045
   4.680        100.83	    11.000
   4.700         95.83	    10.724
   4.720         88.33	    10.296
   4.740        107.50	    11.358
   4.760        111.67	    11.576
   4.780        100.00	    10.954
   4.800         95.83	    10.724
   4.820        103.33	    11.136
   4.840         81.67	     9.899
   4.860         95.00	    10.677
   4.880         91.67	    10.488
   4.900         90.00	    10.392
   4.920         83.33	    10.000
   4.940         91.67	    10.488
   4.960         88.33	    10.296
   4.980         80.00	     9.798
   5.000         97.50	    10.817
   5.020         89.17	    10.344
   5.040         78.33	     9.695
   5.060         90.83	    10.440
   5.080        108.33	    11.402
   5.100         80.00	     9.798
   5.120         83.33	    10.000
   5.140         70.00	     9.165
   5.160         89.17	    10.344
   5.180         84.17	    10.050
   5.200         77.50	     9.644
   5.220         76.67	     9.592
   5.240         72.50	     9.327
   5.260         76.67	     9.592
   5.280         72.50	     9.327
   5.300         84.17	    10.050
   5.320         85.00	    10.100
   5.340         80.83	     9.849
   5.360         80.83	     9.849
   5.380         90.83	    10.440
   5.400         71.67	     9.274
   5.420         80.00	     9.798
   5.440         68.33	     9.055
   5.460         70.00	     9.165
   5.480         80.83	     9.849
   5.500         74.17	     9.434
   5.520         79.17	     9.747
   5.540         84.17	    10.050
   5.560         74.17	     9.434
   5.580         72.50	     9.327
   5.600         57.50	     8.307
   5.620         87.50	    10.247
   5.640         75.00	     9.487
   5.660         66.67	     8.944
   5.680         70.83	     9.220
   5.700         82.50	     9.950
   5.720         80.83	     9.849
   5.740         75.00	     9.487
   5.760         78.33	     9.695
   5.780         80.00	     9.798
   5.800         62.50	     8.660
   5.820         85.00	    10.100
   5.840         70.00	     9.165
   5.860         77.50	     9.644
   5.880         51.67	     7.874
   5.900         71.67	     9.274
   5.920         86.67	    10.198
   5.940         76.67	     9.592
   5.960         63.33	     8.718
   5.980         64.17	     8.775
   6.000         80.83	     9.849
   6.020         79.17	     9.747
   6.040         70.00	     9.165
   6.060         89.17	    10.344
   6.080         77.50	     9.644
   6.100         82.50	     9.950
   6.120         75.83	     9.539
   6.140         71.67	     9.274
   6.160         75.83	     9.539
   6.180         79.17	     9.747
   6.200         71.67	     9.274
   6.220         72.50	     9.327
   6.240         83.33	    10.000
   6.260         75.83	     9.539
   6.280         88.33	    10.296
   6.300         75.00	     9.487
   6.320         75.83	     9.539
   6.340         61.67	     8.602
   6.360         87.50	    10.247
   6.380         81.67	     9.899
   6.400         68.33	     9.055
   6.420         85.83	    10.149
   6.440         80.00	     9.798
   6.460         89.17	    10.344
   6.480         80.00	     9.798
   6.500         85.83	    10.149
   6.520         81.67	     9.899
   6.540         74.17	     9.434
   6.560         88.33	    10.296
   6.580         73.33	     9.381
   6.600         76.67	     9.592
   6.620         75.83	     9.539
   6.640         62.50	     8.660
   6.660         75.83	     9.539
   6.680         67.50	     9.000
   6.700         63.33	     8.718
   6.720         70.00	     9.165
   6.740         61.67	     8.602
   6.760         62.50	     8.660
   6.780         60.00	     8.485
   6.800         62.50	     8.660
   6.820         55.83	     8.185
   6.840         67.50	     9.000
   6.860         67.50	     9.000
   6.880         55.83	     8.185
   6.900         53.33	     8.000
   6.920         62.50	     8.660
   6.940         57.50	     8.307
   6.960         62.50	     8.660
   6.980         60.83	     8.544
   7.000         65.83	     8.888
   7.020         56.67	     8.246
   7.040         62.50	     8.660
   7.060         55.00	     8.124
   7.080         65.00	     8.832
   7.100         59.17	     8.426
   7.120         54.17	     8.062
   7.140         65.00	     8.832
   7.160         50.00	     7.746
   7.180         50.83	     7.810
   7.200         50.00	     7.746
   7.220         58.33	     8.367
   7.240         59.17	     8.426
   7.260         62.50	     8.660
   7.280         64.17	     8.775
   7.300         61.67	     8.602
   7.320         66.67	     8.944
   7.340         55.83	     8.185
   7.360         45.83	     7.416
   7.380         59.17	     8.426
   7.400         39.17	     6.856
   7.420         56.67	     8.246
   7.440         50.00	     7.746
   7.460         59.17	     8.426
   7.480         58.33	     8.367
   7.500         53.33	     8.000
   7.520         50.00	     7.746
   7.540         44.17	     7.280
   7.560         66.67	     8.944
   7.580         56.67	     8.246
   7.600         59.17	     8.426
   7.620         55.00	     8.124
   7.640         56.67	     8.246
   7.660         58.33	     8.367
   7.680         36.67	     6.633
   7.700         50.00	     7.746
   7.720         57.50	     8.307
   7.740         53.33	     8.000
   7.760         62.50	     8.660
   7.780         45.00	     7.348
   7.800         55.00	     8.124
   7.820         59.17	     8.426
   7.840         45.00	     7.348
   7.860         49.17	     7.681
   7.880         64.17	     8.775
   7.900         48.33	     7.616
   7.920         49.17	     7.681
   7.940         55.00	     8.124
   7.960         45.00	     7.348
   7.980         50.83	     7.810
   8.000         39.17	     6.856
   8.020         52.50	     7.937
   8.040         47.50	     7.550
   8.060         48.33	     7.616
   8.080         57.50	     8.307
   8.100         50.83	     7.810
   8.120         50.00	     7.746
   8.140         48.33	     7.616
   8.160         53.33	     8.000
   8.180         55.83	     8.185
   8.200         55.83	     8.185
   8.220         58.33	     8.367
   8.240         40.00	     6.928
   8.260         55.00	     8.124
   8.280         50.83	     7.810
   8.300         42.50	     7.141
   8.320         49.17	     7.681
   8.340         33.33	     6.325
   8.360         55.00	     8.124
   8.380         55.00	     8.124
   8.400         55.00	     8.124
   8.420         41.67	     7.071
   8.440         48.33	     7.616
   8.460         56.67	     8.246
   8.480         42.50	     7.141
   8.500         44.17	     7.280
   8.520         40.83	     7.000
   8.540         52.50	     7.937
   8.560         41.67	     7.071
   8.580         47.50	     7.550
   8.600         49.17	     7.681
   8.620         42.50	     7.141
   8.640         54.17	     8.062
   8.660         55.83	     8.185
   8.680         44.17	     7.280
   8.700         30.83	     6.083
   8.720         45.83	     7.416
   8.740         65.83	     8.888
   8.760         45.83	     7.416
   8.780         44.17	     7.280
   8.800         49.17	     7.681
   8.820         68.33	     9.055
   8.840         61.67	     8.602
   8.860         55.00	     8.124
   8.880         59.17	     8.426
   8.900         57.50	     8.307
   8.920         43.33	     7.211
   8.940         62.50	     8.660
   8.960         48.33	     7.616
   8.980         50.00	     7.746
   9.000         55.83	     8.185
   9.020         58.33	     8.367
   9.040         70.00	     9.165
   9.060         78.33	     9.695
   9.080         68.33	     9.055
   9.100         74.17	     9.434
   9.120         77.50	     9.644
   9.140        105.00	    11.225
   9.160        130.00	    12.490
   9.180        125.83	    12.288
   9.200        110.83	    11.533
   9.220        101.67	    11.045
   9.240         84.17	    10.050
   9.260         76.67	     9.592
   9.280         85.83	    10.149
   9.300         84.17	    10.050
   9.320         67.50	     9.000
   9.340         61.67	     8.602
   9.360         59.17	     8.426
   9.380         50.83	     7.810
   9.400         57.50	     8.307
   9.420         46.67	     7.483
   9.440         54.17	     8.062
   9.460         50.83	     7.810
   9.480         45.83	     7.416
   9.500         42.50	     7.141
   9.520         39.17	     6.856
   9.540         48.33	     7.616
   9.560         43.33	     7.211
   9.580         48.33	     7.616
   9.600         47.50	     7.550
   9.620         39.17	     6.856
   9.640         53.33	     8.000
   9.660         43.33	     7.211
   9.680         39.17	     6.856
   9.700         38.33	     6.782
   9.720         31.67	     6.164
   9.740         55.00	     8.124
   9.760         35.83	     6.557
   9.780         39.17	     6.856
   9.800         41.67	     7.071
   9.820         33.33	     6.325
   9.840         42.50	     7.141
   9.860         35.83	     6.557
   9.880         43.33	     7.211
   9.900         35.83	     6.557
   9.920         35.83	     6.557
   9.940         41.67	     7.071
   9.960         42.50	     7.141
   9.980         40.83	     7.000
  10.000         42.50	     7.141
  10.020         27.50	     5.745
  10.040         43.33	     7.211
  10.060         39.17	     6.856
  10.080         36.67	     6.633
  10.100         39.17	     6.856
  10.120         43.33	     7.211
  10.140         32.50	     6.245
  10.160         29.17	     5.916
  10.180         35.83	     6.557
  10.200         44.17	     7.280
  10.220         35.83	     6.557
  10.240         35.83	     6.557
  10.260         41.67	     7.071
  10.280         37.50	     6.708
  10.300         30.83	     6.083
  10.320         35.83	     6.557
  10.340         32.50	     6.245
  10.360         35.00	     6.481
  10.380         31.67	     6.164
  10.400         35.83	     6.557
  10.420         34.17	     6.403
  10.440         32.50	     6.245
  10.460         31.67	     6.164
  10.480         34.17	     6.403
  10.500         34.17	     6.403
  10.520         47.50	     7.550
  10.540         35.83	     6.557
  10.560         30.00	     6.000
  10.580         38.33	     6.782
  10.600         30.83	     6.083
  10.620         43.33	     7.211
  10.640         33.33	     6.325
  10.660         45.00	     7.348
  10.680         38.33	     6.782
  10.700         40.83	     7.000
  10.720         45.83	     7.416
  10.740         37.50	     6.708
  10.760         53.33	     8.000
  10.780         50.83	     7.810
  10.800         40.00	     6.928
  10.820         58.33	     8.367
  10.840         55.00	     8.124
  10.860         57.50	     8.307
  10.880         45.00	     7.348
  10.900         40.83	     7.000
  10.920         47.50	     7.550
  10.940         52.50	     7.937
  10.960         28.33	     5.831
  10.980         27.50	     5.745
  11.000         32.50	     6.245
  11.020         31.67	     6.164
  11.040         33.33	     6.325
  11.060         39.17	     6.856
  11.080         33.33	     6.325
  11.100         38.33	     6.782
  11.120         36.67	     6.633
  11.140         28.33	     5.831
  11.160         30.83	     6.083
  11.180         40.00	     6.928
  11.200         35.83	     6.557
  11.220         33.33	     6.325
  11.240         41.67	     7.071
  11.260         37.50	     6.708
  11.280         40.00	     6.928
  11.300         32.50	     6.245
  11.320         38.33	     6.782
  11.340         36.67	     6.633
  11.360         38.33	     6.782
  11.380         34.17	     6.403
  11.400         40.00	     6.928
  11.420         39.17	     6.856
  11.440         29.17	     5.916
  11.460         42.50	     7.141
  11.480         35.00	     6.481
  11.500         36.67	     6.633
  11.520         28.33	     5.831
  11.540         41.67	     7.071
  11.560         35.83	     6.557
  11.580         29.17	     5.916
  11.600         31.67	     6.164
  11.620         29.17	     5.916
  11.640         30.00	     6.000
  11.660         34.17	     6.403
  11.680         35.83	     6.557
  11.700         31.67	     6.164
  11.720         29.17	     5.916
  11.740         24.17	     5.385
  11.760         31.67	     6.164
  11.780         33.33	     6.325
  11.800         33.33	     6.325
  11.820         21.67	     5.099
  11.840         30.00	     6.000
  11.860         31.67	     6.164
  11.880         37.50	     6.708
  11.900         30.00	     6.000
  11.920         29.17	     5.916
  11.940         32.50	     6.245
  11.960         31.67	     6.164
  11.980         24.17	     5.385
  12.000         36.67	     6.633
  12.020         40.00	     6.928
  12.040         25.83	     5.568
  12.060         30.83	     6.083
  12.080         29.17	     5.916
  12.100         28.33	     5.831
  12.120         24.17	     5.385
  12.140         38.33	     6.782
  12.160         25.83	     5.568
  12.180         27.50	     5.745
  12.200         30.83	     6.083
  12.220         35.00	     6.481
  12.240         35.83	     6.557
  12.260         40.00	     6.928
  12.280         29.17	     5.916
  12.300         34.17	     6.403
  12.320         29.17	     5.916
  12.340         37.50	     6.708
  12.360         49.17	     7.681
  12.380         44.17	     7.280
  12.400         61.67	     8.602
  12.420         70.00	     9.165
  12.440         85.83	    10.149
  12.460         89.17	    10.344
  12.480        114.17	    11.705
  12.500        100.00	    10.954
  12.520         91.67	    10.488
  12.540         85.00	    10.100
  12.560         95.83	    10.724
  12.580         80.83	     9.849
  12.600         88.33	    10.296
  12.620         68.33	     9.055
  12.640         70.83	     9.220
  12.660         67.50	     9.000
  12.680         59.17	     8.426
  12.700         59.17	     8.426
  12.720         54.17	     8.062
  12.740         80.83	     9.849
  12.760         87.50	    10.247
  12.780         84.17	    10.050
  12.800         86.67	    10.198
  12.820         76.67	     9.592
  12.840         82.50	     9.950
  12.860         76.67	     9.592
  12.880         68.33	     9.055
  12.900         56.67	     8.246
  12.920         55.83	     8.185
  12.940         49.17	     7.681
  12.960         35.00	     6.481
  12.980         34.17	     6.403
  13.000         35.83	     6.557
  13.020         32.50	     6.245
  13.040         26.67	     5.657
  13.060         25.00	     5.477
  13.080         29.17	     5.916
  13.100         34.17	     6.403
  13.120         27.50	     5.745
  13.140         27.50	     5.745
  13.160         25.83	     5.568
  13.180         27.50	     5.745
  13.200         30.83	     6.083
  13.220         31.67	     6.164
  13.240         31.67	     6.164
  13.260         24.17	     5.385
  13.280         32.50	     6.245
  13.300         25.00	     5.477
  13.320         24.17	     5.385
  13.340         30.00	     6.000
  13.360         28.33	     5.831
  13.380         34.17	     6.403
  13.400         35.00	     6.481
  13.420         27.50	     5.745
  13.440         20.00	     4.899
  13.460         26.67	     5.657
  13.480         36.67	     6.633
  13.500         25.83	     5.568
  13.520         30.83	     6.083
  13.540         30.83	     6.083
  13.560         28.33	     5.831
  13.580         28.33	     5.831
  13.600         25.00	     5.477
  13.620         30.00	     6.000
  13.640         32.50	     6.245
  13.660         30.00	     6.000
  13.680         29.17	     5.916
  13.700         25.83	     5.568
  13.720         33.33	     6.325
  13.740         26.67	     5.657
  13.760         29.17	     5.916
  13.780         25.83	     5.568
  13.800         31.67	     6.164
  13.820         29.17	     5.916
  13.840         32.50	     6.245
  13.860         22.50	     5.196
  13.880         32.50	     6.245
  13.900         22.50	     5.196
  13.920         31.67	     6.164
  13.940         24.17	     5.385
  13.960         25.00	     5.477
  13.980         20.83	     5.000
  14.000         34.17	     6.403
  14.020         20.83	     5.000
  14.040         35.00	     6.481
  14.060         28.33	     5.831
  14.080         34.17	     6.403
  14.100         25.00	     5.477
  14.120         34.17	     6.403
  14.140         40.00	     6.928
  14.160         50.00	     7.746
  14.180         37.50	     6.708
  14.200         25.83	     5.568
  14.220         26.67	     5.657
  14.240         38.33	     6.782
  14.260         29.17	     5.916
  14.280         24.17	     5.385
  14.300         30.00	     6.000
  14.320         29.17	     5.916
  14.340         28.33	     5.831
  14.360         18.33	     4.690
  14.380         32.50	     6.245
  14.400         32.50	     6.245
  14.420         31.67	     6.164
  14.440         31.67	     6.164
  14.460         35.00	     6.481
  14.480         24.17	     5.385
  14.500         20.83	     5.000
  14.520         33.33	     6.325
  14.540         20.83	     5.000
  14.560         25.83	     5.568
  14.580         16.67	     4.472
  14.600         19.17	     4.796
  14.620         33.33	     6.325
  14.640         25.83	     5.568
  14.660         28.33	     5.831
  14.680         26.67	     5.657
  14.700         19.17	     4.796
  14.720         20.83	     5.000
  14.740         35.83	     6.557
  14.760         23.33	     5.292
  14.780         22.50	     5.196
  14.800         17.50	     4.583
  14.820         19.17	     4.796
  14.840         29.17	     5.916
  14.860         25.83	     5.568
  14.880         24.17	     5.385
  14.900         24.17	     5.385
  14.920         15.83	     4.359
  14.940         17.50	     4.583
  14.960         23.33	     5.292
  14.980         18.33	     4.690
  15.000         26.67	     5.657
  15.020         29.17	     5.916
  15.040         32.50	     6.245
  15.060         26.67	     5.657
  15.080         23.33	     5.292
  15.100         28.33	     5.831
  15.120         24.17	     5.385
  15.140         27.50	     5.745
  15.160         22.50	     5.196
  15.180         21.67	     5.099
  15.200         38.33	     6.782
  15.220         24.17	     5.385
  15.240         35.83	     6.557
  15.260         24.17	     5.385
  15.280         28.33	     5.831
  15.300         30.00	     6.000
  15.320         26.67	     5.657
  15.340         24.17	     5.385
  15.360         20.00	     4.899
  15.380         20.83	     5.000
  15.400         32.50	     6.245
  15.420         25.00	     5.477
  15.440         27.50	     5.745
  15.460         23.33	     5.292
  15.480         22.50	     5.196
  15.500         29.17	     5.916
  15.520         25.00	     5.477
  15.540         15.83	     4.359
  15.560         17.50	     4.583
  15.580         27.50	     5.745
  15.600         25.00	     5.477
  15.620         27.50	     5.745
  15.640         26.67	     5.657
  15.660         22.50	     5.196
  15.680         25.00	     5.477
  15.700         25.83	     5.568
  15.720         20.00	     4.899
  15.740         26.67	     5.657
  15.760         21.67	     5.099
  15.780         26.67	     5.657
  15.800         24.17	     5.385
  15.820         25.83	     5.568
  15.840         25.83	     5.568
  15.860         25.00	     5.477
  15.880         26.67	     5.657
  15.900         20.00	     4.899
  15.920         25.00	     5.477
  15.940         19.17	     4.796
  15.960         24.17	     5.385
  15.980         19.17	     4.796
  16.000         20.00	     4.899
  16.020         20.00	     4.899
  16.040         23.33	     5.292
  16.060         24.17	     5.385
  16.080         22.50	     5.196
  16.100         17.50	     4.583
  16.120         20.83	     5.000
  16.140         27.50	     5.745
  16.160         19.17	     4.796
  16.180         26.67	     5.657
  16.200         17.50	     4.583
  16.220         27.50	     5.745
  16.240         25.00	     5.477
  16.260         23.33	     5.292
  16.280         20.83	     5.000
  16.300         26.67	     5.657
  16.320         17.50	     4.583
  16.340         17.50	     4.583
  16.360         24.17	     5.385
  16.380         20.00	     4.899
  16.400         25.83	     5.568
  16.420         18.33	     4.690
  16.440         20.83	     5.000
  16.460         26.67	     5.657
  16.480         16.67	     4.472
  16.500         18.33	     4.690
  16.520         16.67	     4.472
  16.540         21.67	     5.099
  16.560         25.00	     5.477
  16.580         24.17	     5.385
  16.600         35.00	     6.481
  16.620         32.50	     6.245
  16.640         32.50	     6.245
  16.660         30.00	     6.000
  16.680         25.00	     5.477
  16.700         33.33	     6.325
  16.720         21.67	     5.099
  16.740         29.17	     5.916
  16.760         28.33	     5.831
  16.780         25.00	     5.477
  16.800         29.17	     5.916
  16.820         25.83	     5.568
  16.840         30.00	     6.000
  16.860         25.00	     5.477
  16.880         22.50	     5.196
  16.900         24.17	     5.385
  16.920         14.17	     4.123
  16.940         29.17	     5.916
  16.960         27.50	     5.745
  16.980         20.83	     5.000
  17.000         23.33	     5.292
  17.020         26.67	     5.657
  17.040         25.83	     5.568
  17.060         24.17	     5.385
  17.080         24.17	     5.385
  17.100         24.17	     5.385
  17.120         15.00	     4.243
  17.140         19.17	     4.796
  17.160         15.83	     4.359
  17.180         24.17	     5.385
  17.200         19.17	     4.796
  17.220         10.83	     3.606
  17.240         15.83	     4.359
  17.260         30.00	     6.000
  17.280         18.33	     4.690
  17.300         22.50	     5.196
  17.320         21.67	     5.099
  17.340         20.83	     5.000
  17.360         30.00	     6.000
  17.380         28.33	     5.831
  17.400         24.17	     5.385
  17.420         25.83	     5.568
  17.440         18.33	     4.690
  17.460         24.17	     5.385
  17.480         21.67	     5.099
  17.500         24.17	     5.385
  17.520         21.67	     5.099
  17.540         21.67	     5.099
  17.560         20.00	     4.899
  17.580         22.50	     5.196
  17.600         27.50	     5.745
  17.620         22.50	     5.196
  17.640         30.83	     6.083
  17.660         20.00	     4.899
  17.680         18.33	     4.690
  17.700         29.17	     5.916
  17.720         24.17	     5.385
  17.740         23.33	     5.292
  17.760         20.00	     4.899
  17.780         25.00	     5.477
  17.800         24.17	     5.385
  17.820         19.17	     4.796
  17.840         26.67	     5.657
  17.860         30.00	     6.000
  17.880         15.83	     4.359
  17.900         24.17	     5.385
  17.920         27.50	     5.745
  17.940         29.17	     5.916
  17.960         24.17	     5.385
  17.980         29.17	     5.916
  18.000         35.83	     6.557
  18.020         35.83	     6.557
  18.040         50.83	     7.810
  18.060         57.50	     8.307
  18.080         63.33	     8.718
  18.100         59.17	     8.426
  18.120         80.83	     9.849
  18.140         64.17	     8.775
  18.160         63.33	     8.718
  18.180         60.83	     8.544
  18.200         47.50	     7.550
  18.220         46.67	     7.483
  18.240         48.33	     7.616
  18.260         39.17	     6.856
  18.280         28.33	     5.831
  18.300         30.00	     6.000
  18.320         30.83	     6.083
  18.340         22.50	     5.196
  18.360         25.00	     5.477
  18.380         27.50	     5.745
  18.400         23.33	     5.292
  18.420         28.33	     5.831
  18.440         35.83	     6.557
  18.460         25.00	     5.477
  18.480         29.17	     5.916
  18.500         25.00	     5.477
  18.520         21.67	     5.099
  18.540         20.00	     4.899
  18.560         26.67	     5.657
  18.580         15.83	     4.359
  18.600         26.67	     5.657
  18.620         30.83	     6.083
  18.640         30.83	     6.083
  18.660         32.50	     6.245
  18.680         23.33	     5.292
  18.700         34.17	     6.403
  18.720         26.67	     5.657
  18.740         15.00	     4.243
  18.760         25.00	     5.477
  18.780         20.00	     4.899
  18.800         24.17	     5.385
  18.820         19.17	     4.796
  18.840         30.83	     6.083
  18.860         34.17	     6.403
  18.880         27.50	     5.745
  18.900         26.67	     5.657
  18.920         24.17	     5.385
  18.940         30.00	     6.000
  18.960         32.50	     6.245
  18.980         28.33	     5.831
  19.000         42.50	     7.141
  19.020         32.50	     6.245
  19.040         45.00	     7.348
  19.060         47.50	     7.550
  19.080         60.00	     8.485
  19.100         43.33	     7.211
  19.120         52.50	     7.937
  19.140         42.50	     7.141
  19.160         43.33	     7.211
  19.180         46.67	     7.483
  19.200         31.67	     6.164
  19.220         41.67	     7.071
  19.240         35.83	     6.557
  19.260         41.67	     7.071
  19.280         21.67	     5.099
  19.300         34.17	     6.403
  19.320         31.67	     6.164
  19.340         27.50	     5.745
  19.360         35.00	     6.481
  19.380         21.67	     5.099
  19.400         20.83	     5.000
  19.420         30.00	     6.000
  19.440         35.83	     6.557
  19.460         25.00	     5.477
  19.480         31.67	     6.164
  19.500         42.50	     7.141
  19.520         30.83	     6.083
  19.540         45.83	     7.416
  19.560         30.83	     6.083
  19.580         29.17	     5.916
  19.600         33.33	     6.325
  19.620         29.17	     5.916
  19.640         39.17	     6.856
  19.660         30.83	     6.083
  19.680         36.67	     6.633
  19.700         33.33	     6.325
  19.720         29.17	     5.916
  19.740         29.17	     5.916
  19.760         29.17	     5.916
  19.780         29.17	     5.916
  19.800         25.00	     5.477
  19.820         28.33	     5.831
  19.840         33.33	     6.325
  19.860         35.00	     6.481
  19.880         41.67	     7.071
  19.900         22.50	     5.196
  19.920         36.67	     6.633
  19.940         42.50	     7.141
  19.960         49.17	     7.681
  19.980         50.83	     7.810
  20.000         47.50	     7.550
  20.020         57.50	     8.307
  20.040         50.00	     7.746
  20.060         56.67	     8.246
  20.080         75.00	     9.487
  20.100         62.50	     8.660
  20.120         80.00	     9.798
  20.140         80.00	     9.798
  20.160         66.67	     8.944
  20.180         53.33	     8.000
  20.200         66.67	     8.944
  20.220         68.33	     9.055
  20.240         54.17	     8.062
  20.260         47.50	     7.550
  20.280         44.17	     7.280
  20.300         48.33	     7.616
  20.320         42.50	     7.141
  20.340         31.67	     6.164
  20.360         39.17	     6.856
  20.380         38.33	     6.782
  20.400         34.17	     6.403
  20.420         37.50	     6.708
  20.440         25.83	     5.568
  20.460         35.00	     6.481
  20.480         29.17	     5.916
  20.500         25.83	     5.568
  20.520         36.67	     6.633
  20.540         29.17	     5.916
  20.560         40.83	     7.000
  20.580         26.67	     5.657
  20.600         34.17	     6.403
  20.620         30.83	     6.083
  20.640         25.00	     5.477
  20.660         27.50	     5.745
  20.680         30.83	     6.083
  20.700         27.50	     5.745
  20.720         35.00	     6.481
  20.740         29.17	     5.916
  20.760         25.83	     5.568
  20.780         21.67	     5.099
  20.800         26.67	     5.657
  20.820         32.50	     6.245
  20.840         20.83	     5.000
  20.860         24.17	     5.385
  20.880         33.33	     6.325
  20.900         41.67	     7.071
  20.920         42.50	     7.141
  20.940         42.50	     7.141
  20.960         38.33	     6.782
  20.980         34.17	     6.403
  21.000         44.17	     7.280
  21.020         57.50	     8.307
  21.040         52.50	     7.937
  21.060        105.00	    11.225
  21.080        101.67	    11.045
  21.100        130.00	    12.490
  21.120        190.83	    15.133
  21.140        168.33	    14.213
  21.160        205.00	    15.684
  21.180        256.67	    17.550
  21.200        211.67	    15.937
  21.220        183.33	    14.832
  21.240        180.00	    14.697
  21.260        134.17	    12.689
  21.280        120.83	    12.042
  21.300         79.17	     9.747
  21.320         71.67	     9.274
  21.340         60.83	     8.544
  21.360         48.33	     7.616
  21.380         40.83	     7.000
  21.400         37.50	     6.708
  21.420         40.83	     7.000
  21.440         26.67	     5.657
  21.460         36.67	     6.633
  21.480         32.50	     6.245
  21.500         28.33	     5.831
  21.520         30.83	     6.083
  21.540         25.00	     5.477
  21.560         32.50	     6.245
  21.580         36.67	     6.633
  21.600         28.33	     5.831
  21.620         35.83	     6.557
  21.640         35.00	     6.481
  21.660         35.83	     6.557
  21.680         32.50	     6.245
  21.700         29.17	     5.916
  21.720         29.17	     5.916
  21.740         34.17	     6.403
  21.760         35.83	     6.557
  21.780         35.83	     6.557
  21.800         34.17	     6.403
  21.820         36.67	     6.633
  21.840         35.83	     6.557
  21.860         31.67	     6.164
  21.880         36.67	     6.633
  21.900         40.00	     6.928
  21.920         26.67	     5.657
  21.940         45.00	     7.348
  21.960         29.17	     5.916
  21.980         42.50	     7.141
  22.000         29.17	     5.916
  22.020         28.33	     5.831
  22.040         33.33	     6.325
  22.060         38.33	     6.782
  22.080         39.17	     6.856
  22.100         29.17	     5.916
  22.120         38.33	     6.782
  22.140         38.33	     6.782
  22.160         36.67	     6.633
  22.180         43.33	     7.211
  22.200         30.83	     6.083
  22.220         38.33	     6.782
  22.240         82.50	     9.950
  22.260         77.50	     9.644
  22.280        114.17	    11.705
  22.300        140.00	    12.961
  22.320        245.00	    17.146
  22.340        485.83	    24.145
  22.360        514.17	    24.839
  22.380        345.00	    20.347
  22.400        346.67	    20.396
  22.420        297.50	    18.894
  22.440        156.67	    13.711
  22.460         86.67	    10.198
  22.480         78.33	     9.695
  22.500         69.17	     9.110
  22.520         50.83	     7.810
  22.540         39.17	     6.856
  22.560         34.17	     6.403
  22.580         33.33	     6.325
  22.600         40.00	     6.928
  22.620         39.17	     6.856
  22.640         37.50	     6.708
  22.660         48.33	     7.616
  22.680         40.00	     6.928
  22.700         48.33	     7.616
  22.720         48.33	     7.616
  22.740         48.33	     7.616
  22.760         59.17	     8.426
  22.780         53.33	     8.000
  22.800         48.33	     7.616
  22.820         45.83	     7.416
  22.840         32.50	     6.245
  22.860         48.33	     7.616
  22.880         49.17	     7.681
  22.900         36.67	     6.633
  22.920         29.17	     5.916
  22.940         40.00	     6.928
  22.960         35.83	     6.557
  22.980         33.33	     6.325
  23.000         23.33	     5.292
  23.020         40.83	     7.000
  23.040         35.00	     6.481
  23.060         36.67	     6.633
  23.080         41.67	     7.071
  23.100         55.83	     8.185
  23.120         62.50	     8.660
  23.140         71.67	     9.274
  23.160         81.67	     9.899
  23.180         83.33	    10.000
  23.200         62.50	     8.660
  23.220         74.17	     9.434
  23.240         95.00	    10.677
  23.260         78.33	     9.695
  23.280         70.83	     9.220
  23.300         75.83	     9.539
  23.320         69.17	     9.110
  23.340         56.67	     8.246
  23.360         55.00	     8.124
  23.380         63.33	     8.718
  23.400         51.67	     7.874
  23.420         50.00	     7.746
  23.440         35.00	     6.481
  23.460         45.83	     7.416
  23.480         45.83	     7.416
  23.500         33.33	     6.325
  23.520         37.50	     6.708
  23.540         35.83	     6.557
  23.560         34.17	     6.403
  23.580         35.83	     6.557
  23.600         33.33	     6.325
  23.620         30.00	     6.000
  23.640         40.00	     6.928
  23.660         35.00	     6.481
  23.680         35.83	     6.557
  23.700         42.50	     7.141
  23.720         39.17	     6.856
  23.740         53.33	     8.000
  23.760         67.50	     9.000
  23.780         85.00	    10.100
  23.800         98.33	    10.863
  23.820        111.67	    11.576
  23.840        142.50	    13.077
  23.860        197.50	    15.395
  23.880        370.00	    21.071
  23.900        372.50	    21.142
  23.920        375.00	    21.213
  23.940        320.83	    19.621
  23.960        302.50	    19.053
  23.980        211.67	    15.937
  24.000        147.50	    13.304
  24.020        113.33	    11.662
  24.040         98.33	    10.863
  24.060         81.67	     9.899
  24.080         78.33	     9.695
  24.100         78.33	     9.695
  24.120         74.17	     9.434
  24.140         70.00	     9.165
  24.160         71.67	     9.274
  24.180         60.83	     8.544
  24.200         71.67	     9.274
  24.220         65.00	     8.832
  24.240         70.00	     9.165
  24.260         64.17	     8.775
  24.280         53.33	     8.000
  24.300         48.33	     7.616
  24.320         75.83	     9.539
  24.340         64.17	     8.775
  24.360         60.00	     8.485
  24.380         45.00	     7.348
  24.400         70.00	     9.165
  24.420         74.17	     9.434
  24.440         60.00	     8.485
  24.460         76.67	     9.592
  24.480         85.83	    10.149
  24.500         96.67	    10.770
  24.520        117.50	    11.874
  24.540        100.83	    11.000
  24.560        104.17	    11.180
  24.580        114.17	    11.705
  24.600        123.33	    12.166
  24.620        139.17	    12.923
  24.640        100.83	    11.000
  24.660        109.17	    11.446
  24.680        111.67	    11.576
  24.700         77.50	     9.644
  24.720         84.17	    10.050
  24.740         72.50	     9.327
  24.760         80.83	     9.849
  24.780         69.17	     9.110
  24.800         75.83	     9.539
  24.820         76.67	     9.592
  24.840         98.33	    10.863
  24.860         98.33	    10.863
  24.880        110.00	    11.489
  24.900        123.33	    12.166
  24.920        119.17	    11.958
  24.940        112.50	    11.619
  24.960        120.00	    12.000
  24.980        101.67	    11.045
  25.000         98.33	    10.863
  25.020        102.50	    11.091
  25.040        100.00	    10.954
  25.060         99.17	    10.909
  25.080         90.83	    10.440
  25.100         93.33	    10.583
  25.120         60.00	     8.485
  25.140         60.00	     8.485
  25.160         79.17	     9.747
  25.180         66.67	     8.944
  25.200         61.67	     8.602
  25.220         56.67	     8.246
  25.240         46.67	     7.483
  25.260         46.67	     7.483
  25.280         48.33	     7.616
  25.300         58.33	     8.367
  25.320         58.33	     8.367
  25.340         68.33	     9.055
  25.360         65.83	     8.888
  25.380         79.17	     9.747
  25.400         98.33	    10.863
  25.420        100.00	    10.954
  25.440        120.00	    12.000
  25.460        102.50	    11.091
  25.480        110.83	    11.533
  25.500        101.67	    11.045
  25.520         95.00	    10.677
  25.540         84.17	    10.050
  25.560         76.67	     9.592
  25.580         74.17	     9.434
  25.600         63.33	     8.718
  25.620         72.50	     9.327
  25.640         80.83	     9.849
  25.660         85.00	    10.100
  25.680         94.17	    10.630
  25.700         99.17	    10.909
  25.720         96.67	    10.770
  25.740        110.00	    11.489
  25.760        140.83	    13.000
  25.780        141.67	    13.038
  25.800        130.00	    12.490
  25.820        113.33	    11.662
  25.840        129.17	    12.450
  25.860        121.67	    12.083
  25.880        121.67	    12.083
  25.900        104.17	    11.180
  25.920         97.50	    10.817
  25.940         85.83	    10.149
  25.960        108.33	    11.402
  25.980         64.17	     8.775
  26.000         77.50	     9.644
  26.020         65.00	     8.832
  26.040         65.83	     8.888
  26.060         50.00	     7.746
  26.080         59.17	     8.426
  26.100         49.17	     7.681
  26.120         48.33	     7.616
  26.140         45.00	     7.348
  26.160         38.33	     6.782
  26.180         45.00	     7.348
  26.200         36.67	     6.633
  26.220         39.17	     6.856
  26.240         47.50	     7.550
  26.260         47.50	     7.550
  26.280         42.50	     7.141
  26.300         40.83	     7.000
  26.320         36.67	     6.633
  26.340         55.00	     8.124
  26.360         41.67	     7.071
  26.380         50.00	     7.746
  26.400         42.50	     7.141
  26.420         44.17	     7.280
  26.440         45.83	     7.416
  26.460         39.17	     6.856
  26.480         40.83	     7.000
  26.500         50.83	     7.810
  26.520         50.83	     7.810
  26.540         64.17	     8.775
  26.560         63.33	     8.718
  26.580         63.33	     8.718
  26.600         80.00	     9.798
  26.620         75.00	     9.487
  26.640         84.17	    10.050
  26.660         93.33	    10.583
  26.680        109.17	    11.446
  26.700        114.17	    11.705
  26.720        112.50	    11.619
  26.740        116.67	    11.832
  26.760        127.50	    12.369
  26.780        166.67	    14.142
  26.800        170.00	    14.283
  26.820        273.33	    18.111
  26.840        402.50	    21.977
  26.860        676.67	    28.496
  26.880       1212.50	    38.144
  26.900       1700.00	    45.166
  26.920       1709.17	    45.288
  26.940       1781.67	    46.239
  26.960       1806.67	    46.562
  26.980       1482.50	    42.178
  27.000       1180.83	    37.643
  27.020        908.33	    33.015
  27.040        699.17	    28.965
  27.060        496.67	    24.413
  27.080        435.83	    22.869
  27.100        372.50	    21.142
  27.120        345.00	    20.347
  27.140        345.00	    20.347
  27.160        281.67	    18.385
  27.180        271.67	    18.055
  27.200        245.83	    17.176
  27.220        247.50	    17.234
  27.240        214.17	    16.031
  27.260        174.17	    14.457
  27.280        157.50	    13.748
  27.300        136.67	    12.806
  27.320        115.00	    11.747
  27.340        108.33	    11.402
  27.360         96.67	    10.770
  27.380         90.00	    10.392
  27.400         62.50	     8.660
  27.420         65.83	     8.888
  27.440         60.83	     8.544
  27.460         66.67	     8.944
  27.480         80.83	     9.849
  27.500         57.50	     8.307
  27.520         55.00	     8.124
  27.540         65.83	     8.888
  27.560         62.50	     8.660
  27.580         80.00	     9.798
  27.600         69.17	     9.110
  27.620         49.17	     7.681
  27.640         97.50	    10.817
  27.660         70.83	     9.220
  27.680         81.67	     9.899
  27.700         93.33	    10.583
  27.720        101.67	    11.045
  27.740         90.83	    10.440
  27.760        107.50	    11.358
  27.780        120.83	    12.042
  27.800        115.83	    11.790
  27.820        100.00	    10.954
  27.840        105.83	    11.269
  27.860        101.67	    11.045
  27.880        105.00	    11.225
  27.900         90.00	    10.392
  27.920        104.17	    11.180
  27.940         99.17	    10.909
  27.960        142.50	    13.077
  27.980        137.50	    12.845
  28.000        165.00	    14.071
  28.020        184.17	    14.866
  28.040        232.50	    16.703
  28.060        189.17	    15.067
  28.080        204.17	    15.652
  28.100        235.83	    16.823
  28.120        229.17	    16.583
  28.140        276.67	    18.221
  28.160        403.33	    22.000
  28.180        663.33	    28.213
  28.200        445.83	    23.130
  28.220        382.50	    21.424
  28.240        535.83	    25.357
  28.260        436.67	    22.891
  28.280        279.17	    18.303
  28.300        225.00	    16.432
  28.320        242.50	    17.059
  28.340        185.00	    14.900
  28.360        173.33	    14.422
  28.380        141.67	    13.038
  28.400        145.83	    13.229
  28.420        128.33	    12.410
  28.440        132.50	    12.610
  28.460        124.17	    12.207
  28.480        127.50	    12.369
  28.500        140.83	    13.000
  28.520        121.67	    12.083
  28.540        106.67	    11.314
  28.560        115.83	    11.790
  28.580        113.33	    11.662
  28.600         86.67	    10.198
  28.620         93.33	    10.583
  28.640         98.33	    10.863
  28.660         71.67	     9.274
  28.680         65.00	     8.832
  28.700         49.17	     7.681
  28.720         52.50	     7.937
  28.740         59.17	     8.426
  28.760         55.00	     8.124
  28.780         66.67	     8.944
  28.800         63.33	     8.718
  28.820         69.17	     9.110
  28.840         66.67	     8.944
  28.860         63.33	     8.718
  28.880         98.33	    10.863
  28.900         79.17	     9.747
  28.920         90.00	    10.392
  28.940         85.83	    10.149
  28.960         92.50	    10.536
  28.980        109.17	    11.446
  29.000         91.67	    10.488
  29.020         90.00	    10.392
  29.040         58.33	     8.367
  29.060         56.67	     8.246
  29.080         72.50	     9.327
  29.100         60.83	     8.544
  29.120         54.17	     8.062
  29.140         50.83	     7.810
  29.160         47.50	     7.550
  29.180         37.50	     6.708
  29.200         50.83	     7.810
  29.220         41.67	     7.071
  29.240         44.17	     7.280
  29.260         36.67	     6.633
  29.280         35.00	     6.481
  29.300         33.33	     6.325
  29.320         32.50	     6.245
  29.340         33.33	     6.325
  29.360         38.33	     6.782
  29.380         29.17	     5.916
  29.400         36.67	     6.633
  29.420         42.50	     7.141
  29.440         37.50	     6.708
  29.460         36.67	     6.633
  29.480         41.67	     7.071
  29.500         39.17	     6.856
  29.520         28.33	     5.831
  29.540         30.83	     6.083
  29.560         32.50	     6.245
  29.580         30.83	     6.083
  29.600         27.50	     5.745
  29.620         35.83	     6.557
  29.640         39.17	     6.856
  29.660         46.67	     7.483
  29.680         29.17	     5.916
  29.700         29.17	     5.916
  29.720         37.50	     6.708
  29.740         31.67	     6.164
  29.760         34.17	     6.403
  29.780         40.00	     6.928
  29.800         44.17	     7.280
  29.820         30.00	     6.000
  29.840         35.00	     6.481
  29.860         39.17	     6.856
  29.880         47.50	     7.550
  29.900         37.50	     6.708
  29.920         41.67	     7.071
  29.940         46.67	     7.483
  29.960         45.83	     7.416
  29.980         67.50	     9.000
  30.000         51.67	     7.874
  30.020         57.50	     8.307
  30.040         65.83	     8.888
  30.060         72.50	     9.327
  30.080         85.00	    10.100
  30.100         96.67	    10.770
  30.120        109.17	    11.446
  30.140        128.33	    12.410
  30.160        139.17	    12.923
  30.180        144.17	    13.153
  30.200        138.33	    12.884
  30.220        120.00	    12.000
  30.240        121.67	    12.083
  30.260        115.83	    11.790
  30.280         95.00	    10.677
  30.300         94.17	    10.630
  30.320         75.83	     9.539
  30.340         85.83	    10.149
  30.360         90.83	    10.440
  30.380         70.83	     9.220
  30.400         78.33	     9.695
  30.420         80.00	     9.798
  30.440         79.17	     9.747
  30.460         77.50	     9.644
  30.480         75.83	     9.539
  30.500         80.83	     9.849
  30.520         79.17	     9.747
  30.540         86.67	    10.198
  30.560         86.67	    10.198
  30.580         71.67	     9.274
  30.600         66.67	     8.944
  30.620         60.00	     8.485
  30.640         65.00	     8.832
  30.660         83.33	    10.000
  30.680         81.67	     9.899
  30.700        101.67	    11.045
  30.720        112.50	    11.619
  30.740        109.17	    11.446
  30.760         91.67	    10.488
  30.780         77.50	     9.644
  30.800         85.83	    10.149
  30.820        103.33	    11.136
  30.840         88.33	    10.296
  30.860         72.50	     9.327
  30.880         81.67	     9.899
  30.900         58.33	     8.367
  30.920         59.17	     8.426
  30.940         49.17	     7.681
  30.960         53.33	     8.000
  30.980         55.00	     8.124
  31.000         41.67	     7.071
  31.020         58.33	     8.367
  31.040         60.83	     8.544
  31.060         55.83	     8.185
  31.080         53.33	     8.000
  31.100         51.67	     7.874
  31.120         60.83	     8.544
  31.140         74.17	     9.434
  31.160         75.83	     9.539
  31.180         64.17	     8.775
  31.200         56.67	     8.246
  31.220         55.83	     8.185
  31.240         49.17	     7.681
  31.260         58.33	     8.367
  31.280         53.33	     8.000
  31.300         47.50	     7.550
  31.320         50.00	     7.746
  31.340         44.17	     7.280
  31.360         58.33	     8.367
  31.380         60.00	     8.485
  31.400         60.83	     8.544
  31.420         72.50	     9.327
  31.440         82.50	     9.950
  31.460         83.33	    10.000
  31.480         74.17	     9.434
  31.500         90.00	    10.392
  31.520        102.50	    11.091
  31.540        100.83	    11.000
  31.560         92.50	    10.536
  31.580        105.00	    11.225
  31.600        100.83	    11.000
  31.620         78.33	     9.695
  31.640         80.00	     9.798
  31.660         60.00	     8.485
  31.680         70.83	     9.220
  31.700         48.33	     7.616
  31.720         49.17	     7.681
  31.740         55.00	     8.124
  31.760         42.50	     7.141
  31.780         52.50	     7.937
  31.800         50.00	     7.746
  31.820         59.17	     8.426
  31.840         54.17	     8.062
  31.860         55.83	     8.185
  31.880         40.00	     6.928
  31.900         52.50	     7.937
  31.920         36.67	     6.633
  31.940         37.50	     6.708
  31.960         43.33	     7.211
  31.980         40.00	     6.928
  32.000         30.00	     6.000
  32.020         38.33	     6.782
  32.040         32.50	     6.245
  32.060         31.67	     6.164
  32.080         34.17	     6.403
  32.100         52.50	     7.937
  32.120         38.33	     6.782
  32.140         50.00	     7.746
  32.160         45.00	     7.348
  32.180         32.50	     6.245
  32.200         57.50	     8.307
  32.220         45.83	     7.416
  32.240         67.50	     9.000
  32.260        109.17	    11.446
  32.280        123.33	    12.166
  32.300         59.17	     8.426
  32.320         77.50	     9.644
  32.340        111.67	    11.576
  32.360         96.67	    10.770
  32.380         80.00	     9.798
  32.400         75.83	     9.539
  32.420         72.50	     9.327
  32.440         74.17	     9.434
  32.460         73.33	     9.381
  32.480         56.67	     8.246
  32.500         59.17	     8.426
  32.520         60.83	     8.544
  32.540         52.50	     7.937
  32.560         36.67	     6.633
  32.580         45.00	     7.348
  32.600         46.67	     7.483
  32.620         42.50	     7.141
  32.640         37.50	     6.708
  32.660         36.67	     6.633
  32.680         28.33	     5.831
  32.700         27.50	     5.745
  32.720         38.33	     6.782
  32.740         40.00	     6.928
  32.760         58.33	     8.367
  32.780         59.17	     8.426
  32.800         35.00	     6.481
  32.820         23.33	     5.292
  32.840         45.00	     7.348
  32.860         49.17	     7.681
  32.880         38.33	     6.782
  32.900         29.17	     5.916
  32.920         29.17	     5.916
  32.940         29.17	     5.916
  32.960         25.83	     5.568
  32.980         25.00	     5.477
  33.000         28.33	     5.831
  33.020         29.17	     5.916
  33.040         25.00	     5.477
  33.060         26.67	     5.657
  33.080         20.83	     5.000
  33.100         34.17	     6.403
  33.120         31.67	     6.164
  33.140         25.00	     5.477
  33.160         30.83	     6.083
  33.180         34.17	     6.403
  33.200         33.33	     6.325
  33.220         27.50	     5.745
  33.240         35.00	     6.481
  33.260         48.33	     7.616
  33.280         54.17	     8.062
  33.300         54.17	     8.062
  33.320         64.17	     8.775
  33.340         50.83	     7.810
  33.360         48.33	     7.616
  33.380         46.67	     7.483
  33.400         50.00	     7.746
  33.420         40.00	     6.928
  33.440         48.33	     7.616
  33.460         49.17	     7.681
  33.480         30.00	     6.000
  33.500         29.17	     5.916
  33.520         38.33	     6.782
  33.540         34.17	     6.403
  33.560         20.83	     5.000
  33.580         40.00	     6.928
  33.600         39.17	     6.856
  33.620         30.00	     6.000
  33.640         40.00	     6.928
  33.660         32.50	     6.245
  33.680         40.83	     7.000
  33.700         37.50	     6.708
  33.720         41.67	     7.071
  33.740         33.33	     6.325
  33.760         30.83	     6.083
  33.780         30.83	     6.083
  33.800         35.83	     6.557
  33.820         44.17	     7.280
  33.840         39.17	     6.856
  33.860         35.00	     6.481
  33.880         25.83	     5.568
  33.900         28.33	     5.831
  33.920         30.83	     6.083
  33.940         23.33	     5.292
  33.960         38.33	     6.782
  33.980         30.00	     6.000
  34.000         38.33	     6.782
  34.020         31.67	     6.164
  34.040         35.00	     6.481
  34.060         39.17	     6.856
  34.080         49.17	     7.681
  34.100         35.00	     6.481
  34.120         35.83	     6.557
  34.140         44.17	     7.280
  34.160         45.00	     7.348
  34.180         58.33	     8.367
  34.200         75.83	     9.539
  34.220         57.50	     8.307
  34.240         59.17	     8.426
  34.260         50.83	     7.810
  34.280         61.67	     8.602
  34.300         56.67	     8.246
  34.320         49.17	     7.681
  34.340         57.50	     8.307
  34.360         55.00	     8.124
  34.380         56.67	     8.246
  34.400         53.33	     8.000
  34.420         59.17	     8.426
  34.440         58.33	     8.367
  34.460         55.83	     8.185
  34.480         43.33	     7.211
  34.500         35.00	     6.481
  34.520         43.33	     7.211
  34.540         40.00	     6.928
  34.560         48.33	     7.616
  34.580         40.83	     7.000
  34.600         51.67	     7.874
  34.620         54.17	     8.062
  34.640         50.00	     7.746
  34.660         63.33	     8.718
  34.680         69.17	     9.110
  34.700         60.00	     8.485
  34.720         71.67	     9.274
  34.740         67.50	     9.000
  34.760        100.00	    10.954
  34.780        151.67	    13.491
  34.800        139.17	    12.923
  34.820        134.17	    12.689
  34.840        184.17	    14.866
  34.860        175.00	    14.491
  34.880        135.83	    12.767
  34.900        120.00	    12.000
  34.920        125.83	    12.288
  34.940        126.67	    12.329
  34.960        110.00	    11.489
  34.980         76.67	     9.592
  35.000         90.83	    10.440
  35.020         65.83	     8.888
  35.040         64.17	     8.775
  35.060         74.17	     9.434
  35.080         76.67	     9.592
  35.100         90.83	    10.440
  35.120         85.00	    10.100
  35.140         92.50	    10.536
  35.160         90.00	    10.392
  35.180        109.17	    11.446
  35.200        103.33	    11.136
  35.220        120.00	    12.000
  35.240        122.50	    12.124
  35.260        143.33	    13.115
  35.280        110.00	    11.489
  35.300        131.67	    12.570
  35.320        115.83	    11.790
  35.340        126.67	    12.329
  35.360        108.33	    11.402
  35.380        105.00	    11.225
  35.400         87.50	    10.247
  35.420         82.50	     9.950
  35.440         86.67	    10.198
  35.460         75.00	     9.487
  35.480         85.00	    10.100
  35.500        106.67	    11.314
  35.520        119.17	    11.958
  35.540        146.67	    13.266
  35.560        120.00	    12.000
  35.580        109.17	    11.446
  35.600        105.83	    11.269
  35.620        106.67	    11.314
  35.640         95.83	    10.724
  35.660         90.00	    10.392
  35.680         76.67	     9.592
  35.700         74.17	     9.434
  35.720         71.67	     9.274
  35.740         65.83	     8.888
  35.760         82.50	     9.950
  35.780         98.33	    10.863
  35.800         83.33	    10.000
  35.820        103.33	    11.136
  35.840         90.83	    10.440
  35.860         97.50	    10.817
  35.880        106.67	    11.314
  35.900        101.67	    11.045
  35.920         79.17	     9.747
  35.940         89.17	    10.344
  35.960         73.33	     9.381
  35.980         65.00	     8.832
  36.000         61.67	     8.602
  36.020         54.17	     8.062
  36.040         50.00	     7.746
  36.060         45.83	     7.416
  36.080         41.67	     7.071
  36.100         54.17	     8.062
  36.120         36.67	     6.633
  36.140         33.33	     6.325
  36.160         48.33	     7.616
  36.180         52.50	     7.937
  36.200         45.00	     7.348
  36.220         40.00	     6.928
  36.240         40.83	     7.000
  36.260         47.50	     7.550
  36.280         45.83	     7.416
  36.300         59.17	     8.426
  36.320         56.67	     8.246
  36.340         56.67	     8.246
  36.360         49.17	     7.681
  36.380         48.33	     7.616
  36.400         57.50	     8.307
  36.420         45.83	     7.416
  36.440         43.33	     7.211
  36.460         48.33	     7.616
  36.480         50.00	     7.746
  36.500         43.33	     7.211
  36.520         40.00	     6.928
  36.540         47.50	     7.550
  36.560         46.67	     7.483
  36.580         40.00	     6.928
  36.600         45.00	     7.348
  36.620         42.50	     7.141
  36.640         55.83	     8.185
  36.660         56.67	     8.246
  36.680         51.67	     7.874
  36.700         51.67	     7.874
  36.720         62.50	     8.660
  36.740         74.17	     9.434
  36.760        117.50	    11.874
  36.780        158.33	    13.784
  36.800        215.00	    16.062
  36.820        200.83	    15.524
  36.840        185.83	    14.933
  36.860        178.33	    14.629
  36.880        118.33	    11.916
  36.900        160.83	    13.892
  36.920        153.33	    13.565
  36.940        140.00	    12.961
  36.960        101.67	    11.045
  36.980        101.67	    11.045
  37.000         91.67	    10.488
  37.020         66.67	     8.944
  37.040         83.33	    10.000
  37.060         73.33	     9.381
  37.080         64.17	     8.775
  37.100         67.50	     9.000
  37.120         50.00	     7.746
  37.140         58.33	     8.367
  37.160         50.00	     7.746
  37.180         49.17	     7.681
  37.200         48.33	     7.616
  37.220         44.17	     7.280
  37.240         32.50	     6.245
  37.260         40.00	     6.928
  37.280         36.67	     6.633
  37.300         42.50	     7.141
  37.320         40.83	     7.000
  37.340         44.17	     7.280
  37.360         48.33	     7.616
  37.380         43.33	     7.211
  37.400         24.17	     5.385
  37.420         50.00	     7.746
  37.440         38.33	     6.782
  37.460         43.33	     7.211
  37.480         53.33	     8.000
  37.500         50.83	     7.810
  37.520         35.83	     6.557
  37.540         42.50	     7.141
  37.560         36.67	     6.633
  37.580         55.83	     8.185
  37.600         58.33	     8.367
  37.620         52.50	     7.937
  37.640         41.67	     7.071
  37.660         61.67	     8.602
  37.680         63.33	     8.718
  37.700         65.83	     8.888
  37.720         82.50	     9.950
  37.740         87.50	    10.247
  37.760         75.00	     9.487
  37.780         65.83	     8.888
  37.800         67.50	     9.000
  37.820         74.17	     9.434
  37.840         80.00	     9.798
  37.860         70.83	     9.220
  37.880         79.17	     9.747
  37.900         70.00	     9.165
  37.920         75.00	     9.487
  37.940         72.50	     9.327
  37.960         84.17	    10.050
  37.980         91.67	    10.488
  38.000         71.67	     9.274
  38.020         69.17	     9.110
  38.040         70.00	     9.165
  38.060         65.83	     8.888
  38.080         58.33	     8.367
  38.100         38.33	     6.782
  38.120         54.17	     8.062
  38.140         57.50	     8.307
  38.160         37.50	     6.708
  38.180         43.33	     7.211
  38.200         35.83	     6.557
  38.220         37.50	     6.708
  38.240         30.83	     6.083
  38.260         36.67	     6.633
  38.280         22.50	     5.196
  38.300         32.50	     6.245
  38.320         22.50	     5.196
  38.340         25.83	     5.568
  38.360         24.17	     5.385
  38.380         21.67	     5.099
  38.400         27.50	     5.745
  38.420         24.17	     5.385
  38.440         29.17	     5.916
  38.460         23.33	     5.292
  38.480         25.00	     5.477
  38.500         27.50	     5.745
  38.520         36.67	     6.633
  38.540         27.50	     5.745
  38.560         30.83	     6.083
  38.580         22.50	     5.196
  38.600         22.50	     5.196
  38.620         26.67	     5.657
  38.640         29.17	     5.916
  38.660         26.67	     5.657
  38.680         19.17	     4.796
  38.700         19.17	     4.796
  38.720         30.00	     6.000
  38.740         30.00	     6.000
  38.760         33.33	     6.325
  38.780         39.17	     6.856
  38.800         37.50	     6.708
  38.820         29.17	     5.916
  38.840         40.00	     6.928
  38.860         40.00	     6.928
  38.880         35.83	     6.557
  38.900         41.67	     7.071
  38.920         37.50	     6.708
  38.940         26.67	     5.657
  38.960         38.33	     6.782
  38.980         39.17	     6.856
  39.000         43.33	     7.211
  39.020         41.67	     7.071
  39.040         21.67	     5.099
  39.060         37.50	     6.708
  39.080         47.50	     7.550
  39.100         37.50	     6.708
  39.120         39.17	     6.856
  39.140         31.67	     6.164
  39.160         38.33	     6.782
  39.180         40.00	     6.928
  39.200         50.00	     7.746
  39.220         34.17	     6.403
  39.240         40.00	     6.928
  39.260         38.33	     6.782
  39.280         34.17	     6.403
  39.300         34.17	     6.403
  39.320         30.83	     6.083
  39.340         30.83	     6.083
  39.360         35.83	     6.557
  39.380         25.83	     5.568
  39.400         39.17	     6.856
  39.420         30.00	     6.000
  39.440         28.33	     5.831
  39.460         34.17	     6.403
  39.480         33.33	     6.325
  39.500         30.83	     6.083
  39.520         33.33	     6.325
  39.540         43.33	     7.211
  39.560         35.83	     6.557
  39.580         30.00	     6.000
  39.600         26.67	     5.657
  39.620         44.17	     7.280
  39.640         60.00	     8.485
  39.660         55.00	     8.124
  39.680         87.50	    10.247
  39.700         95.83	    10.724
  39.720        113.33	    11.662
  39.740        101.67	    11.045
  39.760         93.33	    10.583
  39.780        106.67	    11.314
  39.800         90.00	    10.392
  39.820         74.17	     9.434
  39.840         82.50	     9.950
  39.860         81.67	     9.899
  39.880         72.50	     9.327
  39.900         52.50	     7.937
  39.920         45.00	     7.348
  39.940         47.50	     7.550
  39.960         51.67	     7.874
  39.980         44.17	     7.280
  40.000         40.83	     7.000
  40.020         38.33	     6.782
  40.040         39.17	     6.856
  40.060         48.33	     7.616
  40.080         56.67	     8.246
  40.100         48.33	     7.616
  40.120         48.33	     7.616
  40.140         43.33	     7.211
  40.160         45.83	     7.416
  40.180         42.50	     7.141
  40.200         49.17	     7.681
  40.220         39.17	     6.856
  40.240         35.83	     6.557
  40.260         37.50	     6.708
  40.280         30.83	     6.083
  40.300         45.00	     7.348
  40.320         26.67	     5.657
  40.340         33.33	     6.325
  40.360         30.00	     6.000
  40.380         36.67	     6.633
  40.400         36.67	     6.633
  40.420         28.33	     5.831
  40.440         29.17	     5.916
  40.460         39.17	     6.856
  40.480         50.83	     7.810
  40.500         58.33	     8.367
  40.520         83.33	    10.000
  40.540         82.50	     9.950
  40.560         77.50	     9.644
  40.580         66.67	     8.944
  40.600         62.50	     8.660
  40.620         70.00	     9.165
  40.640         78.33	     9.695
  40.660         60.00	     8.485
  40.680         57.50	     8.307
  40.700         50.00	     7.746
  40.720         50.00	     7.746
  40.740         50.00	     7.746
  40.760         50.83	     7.810
  40.780         51.67	     7.874
  40.800         35.83	     6.557
  40.820         33.33	     6.325
  40.840         36.67	     6.633
  40.860         34.17	     6.403
  40.880         40.00	     6.928
  40.900         44.17	     7.280
  40.920         34.17	     6.403
  40.940         39.17	     6.856
  40.960         38.33	     6.782
  40.980         41.67	     7.071
  41.000         29.17	     5.916
  41.020         35.83	     6.557
  41.040         40.00	     6.928
  41.060         30.00	     6.000
  41.080         34.17	     6.403
  41.100         22.50	     5.196
  41.120         44.17	     7.280
  41.140         50.83	     7.810
  41.160         35.83	     6.557
  41.180         37.50	     6.708
  41.200         33.33	     6.325
  41.220         25.83	     5.568
  41.240         30.00	     6.000
  41.260         39.17	     6.856
  41.280         48.33	     7.616
  41.300         35.83	     6.557
  41.320         40.83	     7.000
  41.340         37.50	     6.708
  41.360         28.33	     5.831
  41.380         35.83	     6.557
  41.400         32.50	     6.245
  41.420         55.00	     8.124
  41.440         55.00	     8.124
  41.460         53.33	     8.000
  41.480         64.17	     8.775
  41.500         57.50	     8.307
  41.520         70.00	     9.165
  41.540         83.33	    10.000
  41.560         65.83	     8.888
  41.580         65.00	     8.832
  41.600         63.33	     8.718
  41.620         57.50	     8.307
  41.640         68.33	     9.055
  41.660         55.83	     8.185
  41.680         61.67	     8.602
  41.700         41.67	     7.071
  41.720         42.50	     7.141
  41.740         36.67	     6.633
  41.760         24.17	     5.385
  41.780         44.17	     7.280
  41.800         25.83	     5.568
  41.820         35.83	     6.557
  41.840         30.00	     6.000
  41.860         35.00	     6.481
  41.880         40.00	     6.928
  41.900         50.00	     7.746
  41.920         55.00	     8.124
  41.940         41.67	     7.071
  41.960         56.67	     8.246
  41.980         52.50	     7.937
  42.000         50.00	     7.746
  42.020         57.50	     8.307
  42.040         43.33	     7.211
  42.060         57.50	     8.307
  42.080         42.50	     7.141
  42.100         35.83	     6.557
  42.120         55.83	     8.185
  42.140         60.00	     8.485
  42.160         44.17	     7.280
  42.180         54.17	     8.062
  42.200         63.33	     8.718
  42.220         69.17	     9.110
  42.240         86.67	    10.198
  42.260         89.17	    10.344
  42.280         76.67	     9.592
  42.300         70.83	     9.220
  42.320         73.33	     9.381
  42.340         66.67	     8.944
  42.360         54.17	     8.062
  42.380         55.00	     8.124
  42.400         48.33	     7.616
  42.420         48.33	     7.616
  42.440         60.83	     8.544
  42.460         48.33	     7.616
  42.480         42.50	     7.141
  42.500         49.17	     7.681
  42.520         64.17	     8.775
  42.540         55.00	     8.124
  42.560         74.17	     9.434
  42.580         51.67	     7.874
  42.600         60.83	     8.544
  42.620         91.67	    10.488
  42.640         90.83	    10.440
  42.660        111.67	    11.576
  42.680        141.67	    13.038
  42.700        139.17	    12.923
  42.720        119.17	    11.958
  42.740        139.17	    12.923
  42.760        123.33	    12.166
  42.780        101.67	    11.045
  42.800        101.67	    11.045
  42.820         99.17	    10.909
  42.840         82.50	     9.950
  42.860         68.33	     9.055
  42.880         68.33	     9.055
  42.900         54.17	     8.062
  42.920         56.67	     8.246
  42.940         50.83	     7.810
  42.960         31.67	     6.164
  42.980         44.17	     7.280
  43.000         41.67	     7.071
  43.020         36.67	     6.633
  43.040         40.00	     6.928
  43.060         39.17	     6.856
  43.080         39.17	     6.856
  43.100         37.50	     6.708
  43.120         38.33	     6.782
  43.140         43.33	     7.211
  43.160         35.83	     6.557
  43.180         37.50	     6.708
  43.200         38.33	     6.782
  43.220         40.83	     7.000
  43.240         36.67	     6.633
  43.260         43.33	     7.211
  43.280         28.33	     5.831
  43.300         27.50	     5.745
  43.320         37.50	     6.708
  43.340         27.50	     5.745
  43.360         32.50	     6.245
  43.380         27.50	     5.745
  43.400         35.83	     6.557
  43.420         22.50	     5.196
  43.440         30.00	     6.000
  43.460         25.83	     5.568
  43.480         30.83	     6.083
  43.500         30.00	     6.000
  43.520         38.33	     6.782
  43.540         35.00	     6.481
  43.560         25.83	     5.568
  43.580         26.67	     5.657
  43.600         24.17	     5.385
  43.620         31.67	     6.164
  43.640         22.50	     5.196
  43.660         24.17	     5.385
  43.680         20.83	     5.000
  43.700         26.67	     5.657
  43.720         22.50	     5.196
  43.740         27.50	     5.745
  43.760         35.00	     6.481
  43.780         41.67	     7.071
  43.800         35.00	     6.481
  43.820         33.33	     6.325
  43.840         38.33	     6.782
  43.860         22.50	     5.196
  43.880         33.33	     6.325
  43.900         32.50	     6.245
  43.920         36.67	     6.633
  43.940         35.00	     6.481
  43.960         29.17	     5.916
  43.980         37.50	     6.708
  44.000         30.83	     6.083
  44.020         36.67	     6.633
  44.040         33.33	     6.325
  44.060         35.83	     6.557
  44.080         32.50	     6.245
  44.100         26.67	     5.657
  44.120         42.50	     7.141
  44.140         30.00	     6.000
  44.160         31.67	     6.164
  44.180         44.17	     7.280
  44.200         32.50	     6.245
  44.220         40.83	     7.000
  44.240         45.00	     7.348
  44.260         39.17	     6.856
  44.280         30.00	     6.000
  44.300         38.33	     6.782
  44.320         35.83	     6.557
  44.340         35.00	     6.481
  44.360         31.67	     6.164
  44.380         32.50	     6.245
  44.400         27.50	     5.745
  44.420         31.67	     6.164
  44.440         30.83	     6.083
  44.460         31.67	     6.164
  44.480         32.50	     6.245
  44.500         40.83	     7.000
  44.520         31.67	     6.164
  44.540         35.00	     6.481
  44.560         29.17	     5.916
  44.580         27.50	     5.745
  44.600         20.83	     5.000
  44.620         17.50	     4.583
  44.640         30.00	     6.000
  44.660         26.67	     5.657
  44.680         27.50	     5.745
  44.700         25.83	     5.568
  44.720         27.50	     5.745
  44.740         23.33	     5.292
  44.760         26.67	     5.657
  44.780         26.67	     5.657
  44.800         30.00	     6.000
  44.820         28.33	     5.831
  44.840         21.67	     5.099
  44.860         25.00	     5.477
  44.880         25.83	     5.568
  44.900         27.50	     5.745
  44.920         35.83	     6.557
  44.940         20.00	     4.899
  44.960         34.17	     6.403
  44.980         33.33	     6.325
  45.000         32.50	     6.245
  45.020         37.50	     6.708
  45.040         30.00	     6.000
  45.060         30.83	     6.083
  45.080         36.67	     6.633
  45.100         32.50	     6.245
  45.120         33.33	     6.325
  45.140         42.50	     7.141
  45.160         39.17	     6.856
  45.180         42.50	     7.141
  45.200         50.00	     7.746
  45.220         41.67	     7.071
  45.240         45.83	     7.416
  45.260         53.33	     8.000
  45.280         47.50	     7.550
  45.300         51.67	     7.874
  45.320         42.50	     7.141
  45.340         67.50	     9.000
  45.360         55.00	     8.124
  45.380         62.50	     8.660
  45.400         50.83	     7.810
  45.420         70.83	     9.220
  45.440         60.83	     8.544
  45.460         58.33	     8.367
  45.480         52.50	     7.937
  45.500         45.83	     7.416
  45.520         44.17	     7.280
  45.540         63.33	     8.718
  45.560         44.17	     7.280
  45.580         47.50	     7.550
  45.600         61.67	     8.602
  45.620         78.33	     9.695
  45.640         61.67	     8.602
  45.660         75.00	     9.487
  45.680         64.17	     8.775
  45.700         90.00	    10.392
  45.720        112.50	    11.619
  45.740         86.67	    10.198
  45.760         93.33	    10.583
  45.780        125.00	    12.247
  45.800        109.17	    11.446
  45.820        104.17	    11.180
  45.840        111.67	    11.576
  45.860        119.17	    11.958
  45.880        103.33	    11.136
  45.900        109.17	    11.446
  45.920         66.67	     8.944
  45.940         90.00	    10.392
  45.960         82.50	     9.950
  45.980         95.83	    10.724
  46.000        106.67	    11.314
  46.020        108.33	    11.402
  46.040        103.33	    11.136
  46.060        125.00	    12.247
  46.080        104.17	    11.180
  46.100         70.00	     9.165
  46.120         84.17	    10.050
  46.140         74.17	     9.434
  46.160         80.83	     9.849
  46.180         86.67	    10.198
  46.200         68.33	     9.055
  46.220         72.50	     9.327
  46.240         65.00	     8.832
  46.260         48.33	     7.616
  46.280         48.33	     7.616
  46.300         56.67	     8.246
  46.320         44.17	     7.280
  46.340         45.83	     7.416
  46.360         48.33	     7.616
  46.380         40.00	     6.928
  46.400         56.67	     8.246
  46.420         35.83	     6.557
  46.440         37.50	     6.708
  46.460         31.67	     6.164
  46.480         23.33	     5.292
  46.500         40.00	     6.928
  46.520         25.00	     5.477
  46.540         36.67	     6.633
  46.560         30.00	     6.000
  46.580         31.67	     6.164
  46.600         28.33	     5.831
  46.620         31.67	     6.164
  46.640         24.17	     5.385
  46.660         23.33	     5.292
  46.680         31.67	     6.164
  46.700         33.33	     6.325
  46.720         30.83	     6.083
  46.740         32.50	     6.245
  46.760         33.33	     6.325
  46.780         33.33	     6.325
  46.800         25.83	     5.568
  46.820         42.50	     7.141
  46.840         36.67	     6.633
  46.860         34.17	     6.403
  46.880         35.83	     6.557
  46.900         24.17	     5.385
  46.920         25.00	     5.477
  46.940         18.33	     4.690
  46.960         25.00	     5.477
  46.980         37.50	     6.708
  47.000         26.67	     5.657
  47.020         28.33	     5.831
  47.040         26.67	     5.657
  47.060         31.67	     6.164
  47.080         30.83	     6.083
  47.100         30.00	     6.000
  47.120         38.33	     6.782
  47.140         36.67	     6.633
  47.160         34.17	     6.403
  47.180         28.33	     5.831
  47.200         30.00	     6.000
  47.220         29.17	     5.916
  47.240         30.83	     6.083
  47.260         25.00	     5.477
  47.280         35.83	     6.557
  47.300         25.83	     5.568
  47.320         35.83	     6.557
  47.340         36.67	     6.633
  47.360         45.00	     7.348
  47.380         38.33	     6.782
  47.400         40.83	     7.000
  47.420         31.67	     6.164
  47.440         32.50	     6.245
  47.460         35.00	     6.481
  47.480         35.83	     6.557
  47.500         45.83	     7.416
  47.520         32.50	     6.245
  47.540         31.67	     6.164
  47.560         32.50	     6.245
  47.580         30.83	     6.083
  47.600         29.17	     5.916
  47.620         29.17	     5.916
  47.640         31.67	     6.164
  47.660         25.00	     5.477
  47.680         29.17	     5.916
  47.700         27.50	     5.745
  47.720         40.00	     6.928
  47.740         29.17	     5.916
  47.760         30.00	     6.000
  47.780         24.17	     5.385
  47.800         30.83	     6.083
  47.820         41.67	     7.071
  47.840         30.00	     6.000
  47.860         34.17	     6.403
  47.880         24.17	     5.385
  47.900         29.17	     5.916
  47.920         27.50	     5.745
  47.940         35.83	     6.557
  47.960         26.67	     5.657
  47.980         30.83	     6.083
  48.000         20.83	     5.000
  48.020         26.67	     5.657
  48.040         30.00	     6.000
  48.060         35.83	     6.557
  48.080         29.17	     5.916
  48.100         24.17	     5.385
  48.120         36.67	     6.633
  48.140         33.33	     6.325
  48.160         48.33	     7.616
  48.180         56.67	     8.246
  48.200         61.67	     8.602
  48.220         60.00	     8.485
  48.240         64.17	     8.775
  48.260         48.33	     7.616
  48.280         47.50	     7.550
  48.300         62.50	     8.660
  48.320         55.83	     8.185
  48.340         50.83	     7.810
  48.360         46.67	     7.483
  48.380         71.67	     9.274
  48.400         40.00	     6.928
  48.420         37.50	     6.708
  48.440         47.50	     7.550
  48.460         55.83	     8.185
  48.480         36.67	     6.633
  48.500         40.00	     6.928
  48.520         48.33	     7.616
  48.540         38.33	     6.782
  48.560         41.67	     7.071
  48.580         46.67	     7.483
  48.600         45.00	     7.348
  48.620         42.50	     7.141
  48.640         43.33	     7.211
  48.660         40.83	     7.000
  48.680         44.17	     7.280
  48.700         35.83	     6.557
  48.720         38.33	     6.782
  48.740         20.83	     5.000
  48.760         34.17	     6.403
  48.780         32.50	     6.245
  48.800         27.50	     5.745
  48.820         38.33	     6.782
  48.840         40.83	     7.000
  48.860         35.00	     6.481
  48.880         33.33	     6.325
  48.900         25.00	     5.477
  48.920         45.83	     7.416
  48.940         31.67	     6.164
  48.960         29.17	     5.916
  48.980         40.00	     6.928
  49.000         45.00	     7.348
  49.020         39.17	     6.856
  49.040         28.33	     5.831
  49.060         36.67	     6.633
  49.080         30.83	     6.083
  49.100         40.83	     7.000
  49.120         29.17	     5.916
  49.140         35.83	     6.557
  49.160         32.50	     6.245
  49.180         37.50	     6.708
  49.200         29.17	     5.916
  49.220         36.67	     6.633
  49.240         37.50	     6.708
  49.260         39.17	     6.856
  49.280         24.17	     5.385
  49.300         27.50	     5.745
  49.320         26.67	     5.657
  49.340         33.33	     6.325
  49.360         37.50	     6.708
  49.380         26.67	     5.657
  49.400         36.67	     6.633
  49.420         31.67	     6.164
  49.440         55.00	     8.124
  49.460         38.33	     6.782
  49.480         31.67	     6.164
  49.500         55.83	     8.185
  49.520         33.33	     6.325
  49.540         41.67	     7.071
  49.560         29.17	     5.916
  49.580         42.50	     7.141
  49.600         46.67	     7.483
  49.620         46.67	     7.483
  49.640         35.00	     6.481
  49.660         40.00	     6.928
  49.680         47.50	     7.550
  49.700         27.50	     5.745
  49.720         35.83	     6.557
  49.740         33.33	     6.325
  49.760         46.67	     7.483
  49.780         37.50	     6.708
  49.800         35.83	     6.557
  49.820         25.00	     5.477
  49.840         35.00	     6.481
  49.860         48.33	     7.616
  49.880         40.00	     6.928
  49.900         42.50	     7.141
  49.920         47.50	     7.550
  49.940         41.67	     7.071
  49.960         44.17	     7.280
  49.980         49.17	     7.681
  50.000         86.67	    10.198
  50.020         95.83	    10.724
  50.040         73.33	     9.381
  50.060         61.67	     8.602
  50.080         50.00	     7.746
  50.100         75.83	     9.539
  50.120         60.00	     8.485
  50.140         77.50	     9.644
  50.160         70.00	     9.165
  50.180         78.33	     9.695
  50.200         70.83	     9.220
  50.220         65.83	     8.888
  50.240         65.00	     8.832
  50.260         60.00	     8.485
  50.280         80.83	     9.849
  50.300         90.00	    10.392
  50.320        130.83	    12.530
  50.340        168.33	    14.213
  50.360        209.17	    15.843
  50.380        232.50	    16.703
  50.400        253.33	    17.436
  50.420        215.00	    16.062
  50.440        146.67	    13.266
  50.460        152.50	    13.528
  50.480        137.50	    12.845
  50.500        144.17	    13.153
  50.520        165.83	    14.107
  50.540        124.17	    12.207
  50.560        107.50	    11.358
  50.580         67.50	     9.000
  50.600         73.33	     9.381
  50.620         54.17	     8.062
  50.640         43.33	     7.211
  50.660         49.17	     7.681
  50.680         43.33	     7.211
  50.700         54.17	     8.062
  50.720         49.17	     7.681
  50.740         55.83	     8.185
  50.760         58.33	     8.367
  50.780         94.17	    10.630
  50.800        145.83	    13.229
  50.820        193.33	    15.232
  50.840        202.50	    15.588
  50.860        190.83	    15.133
  50.880        163.33	    14.000
  50.900        140.83	    13.000
  50.920        124.17	    12.207
  50.940        136.67	    12.806
  50.960        137.50	    12.845
  50.980        139.17	    12.923
  51.000        117.50	    11.874
  51.020        112.50	    11.619
  51.040         65.00	     8.832
  51.060         65.00	     8.832
  51.080         42.50	     7.141
  51.100         45.83	     7.416
  51.120         50.83	     7.810
  51.140         40.83	     7.000
  51.160         32.50	     6.245
  51.180         32.50	     6.245
  51.200         33.33	     6.325
  51.220         22.50	     5.196
  51.240         35.00	     6.481
  51.260         39.17	     6.856
  51.280         32.50	     6.245
  51.300         35.83	     6.557
  51.320         35.83	     6.557
  51.340         39.17	     6.856
  51.360         57.50	     8.307
  51.380         57.50	     8.307
  51.400         44.17	     7.280
  51.420         33.33	     6.325
  51.440         58.33	     8.367
  51.460         50.00	     7.746
  51.480         45.83	     7.416
  51.500         50.83	     7.810
  51.520         45.00	     7.348
  51.540         50.83	     7.810
  51.560         42.50	     7.141
  51.580         42.50	     7.141
  51.600         31.67	     6.164
  51.620         39.17	     6.856
  51.640         40.83	     7.000
  51.660         30.83	     6.083
  51.680         39.17	     6.856
  51.700         28.33	     5.831
  51.720         32.50	     6.245
  51.740         41.67	     7.071
  51.760         31.67	     6.164
  51.780         35.83	     6.557
  51.800         26.67	     5.657
  51.820         26.67	     5.657
  51.840         41.67	     7.071
  51.860         38.33	     6.782
  51.880         33.33	     6.325
  51.900         34.17	     6.403
  51.920         28.33	     5.831
  51.940         21.67	     5.099
  51.960         29.17	     5.916
  51.980         20.83	     5.000
  52.000         25.00	     5.477
  52.020         30.83	     6.083
  52.040         29.17	     5.916
  52.060         25.83	     5.568
  52.080         24.17	     5.385
  52.100         23.33	     5.292
  52.120         34.17	     6.403
  52.140         25.00	     5.477
  52.160         19.17	     4.796
  52.180         24.17	     5.385
  52.200         33.33	     6.325
  52.220         28.33	     5.831
  52.240         37.50	     6.708
  52.260         29.17	     5.916
  52.280         25.83	     5.568
  52.300         30.00	     6.000
  52.320         38.33	     6.782
  52.340         44.17	     7.280
  52.360         38.33	     6.782
  52.380         38.33	     6.782
  52.400         50.83	     7.810
  52.420         45.00	     7.348
  52.440         55.00	     8.124
  52.460         49.17	     7.681
  52.480         40.00	     6.928
  52.500         40.00	     6.928
  52.520         45.83	     7.416
  52.540         49.17	     7.681
  52.560         45.83	     7.416
  52.580         48.33	     7.616
  52.600         45.00	     7.348
  52.620         46.67	     7.483
  52.640         53.33	     8.000
  52.660         44.17	     7.280
  52.680         52.50	     7.937
  52.700         43.33	     7.211
  52.720         35.00	     6.481
  52.740         45.00	     7.348
  52.760         50.83	     7.810
  52.780         51.67	     7.874
  52.800         59.17	     8.426
  52.820         55.00	     8.124
  52.840         44.17	     7.280
  52.860         40.00	     6.928
  52.880         50.00	     7.746
  52.900         45.00	     7.348
  52.920         42.50	     7.141
  52.940         35.83	     6.557
  52.960         40.00	     6.928
  52.980         30.83	     6.083
  53.000         35.83	     6.557
  53.020         41.67	     7.071
  53.040         37.50	     6.708
  53.060         51.67	     7.874
  53.080         36.67	     6.633
  53.100         44.17	     7.280
  53.120         51.67	     7.874
  53.140         51.67	     7.874
  53.160         55.83	     8.185
  53.180         50.00	     7.746
  53.200         46.67	     7.483
  53.220         45.83	     7.416
  53.240         35.83	     6.557
  53.260         49.17	     7.681
  53.280         50.00	     7.746
  53.300         58.33	     8.367
  53.320         43.33	     7.211
  53.340         45.83	     7.416
  53.360         53.33	     8.000
  53.380         45.83	     7.416
  53.400         49.17	     7.681
  53.420         45.83	     7.416
  53.440         48.33	     7.616
  53.460         33.33	     6.325
  53.480         37.50	     6.708
  53.500         34.17	     6.403
  53.520         50.83	     7.810
  53.540         37.50	     6.708
  53.560         36.67	     6.633
  53.580         33.33	     6.325
  53.600         40.00	     6.928
  53.620         41.67	     7.071
  53.640         44.17	     7.280
  53.660         35.00	     6.481
  53.680         27.50	     5.745
  53.700         36.67	     6.633
  53.720         36.67	     6.633
  53.740         26.67	     5.657
  53.760         46.67	     7.483
  53.780         35.83	     6.557
  53.800         32.50	     6.245
  53.820         36.67	     6.633
  53.840         23.33	     5.292
  53.860         29.17	     5.916
  53.880         33.33	     6.325
  53.900         30.83	     6.083
  53.920         31.67	     6.164
  53.940         40.83	     7.000
  53.960         32.50	     6.245
  53.980         25.00	     5.477
  54.000         22.50	     5.196
  54.020         35.83	     6.557
  54.040         42.50	     7.141
  54.060         35.83	     6.557
  54.080         27.50	     5.745
  54.100         26.67	     5.657
  54.120         37.50	     6.708
  54.140         41.67	     7.071
  54.160         43.33	     7.211
  54.180         40.83	     7.000
  54.200         35.00	     6.481
  54.220         30.83	     6.083
  54.240         28.33	     5.831
  54.260         29.17	     5.916
  54.280         24.17	     5.385
  54.300         44.17	     7.280
  54.320         24.17	     5.385
  54.340         26.67	     5.657
  54.360         42.50	     7.141
  54.380         33.33	     6.325
  54.400         30.83	     6.083
  54.420         29.17	     5.916
  54.440         35.00	     6.481
  54.460         40.00	     6.928
  54.480         36.67	     6.633
  54.500         39.17	     6.856
  54.520         37.50	     6.708
  54.540         39.17	     6.856
  54.560         42.50	     7.141
  54.580         55.00	     8.124
  54.600         39.17	     6.856
  54.620         48.33	     7.616
  54.640         39.17	     6.856
  54.660         30.00	     6.000
  54.680         43.33	     7.211
  54.700         48.33	     7.616
  54.720         40.83	     7.000
  54.740         47.50	     7.550
  54.760         39.17	     6.856
  54.780         39.17	     6.856
  54.800         45.00	     7.348
  54.820         47.50	     7.550
  54.840         43.33	     7.211
  54.860         33.33	     6.325
  54.880         43.33	     7.211
  54.900         36.67	     6.633
  54.920         48.33	     7.616
  54.940         44.17	     7.280
  54.960         56.67	     8.246
  54.980         42.50	     7.141
  55.000         54.17	     8.062
  55.020         47.50	     7.550
  55.040         63.33	     8.718
  55.060         80.83	     9.849
  55.080        118.33	    11.916
  55.100        128.33	    12.410
  55.120        102.50	    11.091
  55.140        120.83	    12.042
  55.160         77.50	     9.644
  55.180         84.17	    10.050
  55.200         65.00	     8.832
  55.220         96.67	    10.770
  55.240         92.50	    10.536
  55.260         95.00	    10.677
  55.280         93.33	    10.583
  55.300         75.83	     9.539
  55.320         62.50	     8.660
  55.340         47.50	     7.550
  55.360         52.50	     7.937
  55.380         60.00	     8.485
  55.400         52.50	     7.937
  55.420         66.67	     8.944
  55.440         55.83	     8.185
  55.460         42.50	     7.141
  55.480         59.17	     8.426
  55.500         60.00	     8.485
  55.520         72.50	     9.327
  55.540         73.33	     9.381
  55.560         67.50	     9.000
  55.580         78.33	     9.695
  55.600         71.67	     9.274
  55.620         66.67	     8.944
  55.640         63.33	     8.718
  55.660         41.67	     7.071
  55.680         51.67	     7.874
  55.700         56.67	     8.246
  55.720         55.00	     8.124
  55.740         48.33	     7.616
  55.760         57.50	     8.307
  55.780         53.33	     8.000
  55.800         45.00	     7.348
  55.820         45.83	     7.416
  55.840         49.17	     7.681
  55.860         50.83	     7.810
  55.880         57.50	     8.307
  55.900         58.33	     8.367
  55.920         47.50	     7.550
  55.940         51.67	     7.874
  55.960         64.17	     8.775
  55.980         59.17	     8.426
  56.000         60.83	     8.544
  56.020         74.17	     9.434
  56.040         74.17	     9.434
  56.060         75.00	     9.487
  56.080         73.33	     9.381
  56.100         81.67	     9.899
  56.120         55.83	     8.185
  56.140         54.17	     8.062
  56.160         61.67	     8.602
  56.180         50.00	     7.746
  56.200         60.00	     8.485
  56.220         78.33	     9.695
  56.240         54.17	     8.062
  56.260         40.83	     7.000
  56.280         52.50	     7.937
  56.300         56.67	     8.246
  56.320         50.83	     7.810
  56.340         37.50	     6.708
  56.360         39.17	     6.856
  56.380         47.50	     7.550
  56.400         35.83	     6.557
  56.420         34.17	     6.403
  56.440         41.67	     7.071
  56.460         38.33	     6.782
  56.480         39.17	     6.856
  56.500         35.00	     6.481
  56.520         35.00	     6.481
  56.540         37.50	     6.708
  56.560         29.17	     5.916
  56.580         36.67	     6.633
  56.600         28.33	     5.831
  56.620         33.33	     6.325
  56.640         31.67	     6.164
  56.660         37.50	     6.708
  56.680         30.00	     6.000
  56.700         35.00	     6.481
  56.720         30.00	     6.000
  56.740         41.67	     7.071
  56.760         37.50	     6.708
  56.780         35.00	     6.481
  56.800         30.00	     6.000
  56.820         24.17	     5.385
  56.840         30.83	     6.083
  56.860         35.83	     6.557
  56.880         35.83	     6.557
  56.900         29.17	     5.916
  56.920         37.50	     6.708
  56.940         34.17	     6.403
  56.960         44.17	     7.280
  56.980         35.00	     6.481
  57.000         40.83	     7.000
  57.020         37.50	     6.708
  57.040         33.33	     6.325
  57.060         29.17	     5.916
  57.080         33.33	     6.325
  57.100         46.67	     7.483
  57.120         32.50	     6.245
  57.140         50.83	     7.810
  57.160         50.83	     7.810
  57.180         43.33	     7.211
  57.200         47.50	     7.550
  57.220         28.33	     5.831
  57.240         30.83	     6.083
  57.260         34.17	     6.403
  57.280         36.67	     6.633
  57.300         45.83	     7.416
  57.320         48.33	     7.616
  57.340         48.33	     7.616
  57.360         39.17	     6.856
  57.380         39.17	     6.856
  57.400         39.17	     6.856
  57.420         38.33	     6.782
  57.440         35.83	     6.557
  57.460         39.17	     6.856
  57.480         43.33	     7.211
  57.500         41.67	     7.071
  57.520         39.17	     6.856
  57.540         37.50	     6.708
  57.560         47.50	     7.550
  57.580         40.83	     7.000
  57.600         32.50	     6.245
  57.620         35.00	     6.481
  57.640         35.83	     6.557
  57.660         29.17	     5.916
  57.680         40.00	     6.928
  57.700         25.00	     5.477
  57.720         42.50	     7.141
  57.740         25.00	     5.477
  57.760         40.83	     7.000
  57.780         39.17	     6.856
  57.800         38.33	     6.782
  57.820         35.83	     6.557
  57.840         34.17	     6.403
  57.860         37.50	     6.708
  57.880         40.00	     6.928
  57.900         41.67	     7.071
  57.920         46.67	     7.483
  57.940         38.33	     6.782
  57.960         31.67	     6.164
  57.980         38.33	     6.782
  58.000         34.17	     6.403
  58.020         35.00	     6.481
  58.040         34.17	     6.403
  58.060         33.33	     6.325
  58.080         26.67	     5.657
  58.100         25.00	     5.477
  58.120         34.17	     6.403
  58.140         30.00	     6.000
  58.160         26.67	     5.657
  58.180         30.83	     6.083
  58.200         31.67	     6.164
  58.220         28.33	     5.831
  58.240         37.50	     6.708
  58.260         37.50	     6.708
  58.280         39.17	     6.856
  58.300         17.50	     4.583
  58.320         35.00	     6.481
  58.340         30.00	     6.000
  58.360         31.67	     6.164
  58.380         28.33	     5.831
  58.400         43.33	     7.211
  58.420         35.83	     6.557
  58.440         30.83	     6.083
  58.460         29.17	     5.916
  58.480         32.50	     6.245
  58.500         34.17	     6.403
  58.520         22.50	     5.196
  58.540         40.83	     7.000
  58.560         39.17	     6.856
  58.580         31.67	     6.164
  58.600         35.00	     6.481
  58.620         39.17	     6.856
  58.640         29.17	     5.916
  58.660         43.33	     7.211
  58.680         39.17	     6.856
  58.700         29.17	     5.916
  58.720         36.67	     6.633
  58.740         35.83	     6.557
  58.760         40.00	     6.928
  58.780         26.67	     5.657
  58.800         30.83	     6.083
  58.820         40.83	     7.000
  58.840         35.00	     6.481
  58.860         51.67	     7.874
  58.880         52.50	     7.937
  58.900         46.67	     7.483
  58.920         47.50	     7.550
  58.940         45.00	     7.348
  58.960         39.17	     6.856
  58.980         46.67	     7.483
  59.000         51.67	     7.874
  59.020         48.33	     7.616
  59.040         33.33	     6.325
  59.060         45.00	     7.348
  59.080         39.17	     6.856
  59.100         60.00	     8.485
  59.120         45.00	     7.348
  59.140         44.17	     7.280
  59.160         50.83	     7.810
  59.180         52.50	     7.937
  59.200         43.33	     7.211
  59.220         44.17	     7.280
  59.240         50.00	     7.746
  59.260         60.83	     8.544
  59.280         54.17	     8.062
  59.300         46.67	     7.483
  59.320         49.17	     7.681
  59.340         65.00	     8.832
  59.360         39.17	     6.856
  59.380         44.17	     7.280
  59.400         43.33	     7.211
  59.420         75.00	     9.487
  59.440         58.33	     8.367
  59.460         47.50	     7.550
  59.480         49.17	     7.681
  59.500         53.33	     8.000
  59.520         61.67	     8.602
  59.540         49.17	     7.681
  59.560         41.67	     7.071
  59.580         43.33	     7.211
  59.600         35.83	     6.557
  59.620         34.17	     6.403
  59.640         40.83	     7.000
  59.660         38.33	     6.782
  59.680         40.00	     6.928
  59.700         42.50	     7.141
  59.720         30.00	     6.000
  59.740         34.17	     6.403
  59.760         35.83	     6.557
  59.780         41.67	     7.071
  59.800         35.00	     6.481
  59.820         41.67	     7.071
  59.840         36.67	     6.633
  59.860         35.00	     6.481
  59.880         31.67	     6.164
  59.900         37.50	     6.708
  59.920         38.33	     6.782
  59.940         48.33	     7.616
  59.960         40.83	     7.000
  59.980         50.83	     7.810
  60.000         59.17	     8.426
  60.020         51.67	     7.874
  60.040         49.17	     7.681
  60.060         65.83	     8.888
  60.080         67.50	     9.000
  60.100         66.67	     8.944
  60.120         96.67	    10.770
  60.140        133.33	    12.649
  60.160        192.50	    15.199
  60.180        223.33	    16.371
  60.200        278.33	    18.276
  60.220        241.67	    17.029
  60.240        214.17	    16.031
  60.260        166.67	    14.142
  60.280        123.33	    12.166
  60.300        123.33	    12.166
  60.320        125.83	    12.288
  60.340        149.17	    13.379
  60.360        128.33	    12.410
  60.380        158.33	    13.784
  60.400        140.83	    13.000
  60.420         94.17	    10.630
  60.440         82.50	     9.950
  60.460         66.67	     8.944
  60.480         63.33	     8.718
  60.500         58.33	     8.367
  60.520         48.33	     7.616
  60.540         47.50	     7.550
  60.560         42.50	     7.141
  60.580         39.17	     6.856
  60.600         43.33	     7.211
  60.620         39.17	     6.856
  60.640         28.33	     5.831
  60.660         34.17	     6.403
  60.680         38.33	     6.782
  60.700         40.83	     7.000
  60.720         45.83	     7.416
  60.740         39.17	     6.856
  60.760         45.00	     7.348
  60.780         44.17	     7.280
  60.800         47.50	     7.550
  60.820         38.33	     6.782
  60.840         50.83	     7.810
  60.860         45.83	     7.416
  60.880         38.33	     6.782
  60.900         49.17	     7.681
  60.920         40.00	     6.928
  60.940         70.83	     9.220
  60.960         43.33	     7.211
  60.980         60.00	     8.485
  61.000         50.00	     7.746
  61.020         52.50	     7.937
  61.040         60.00	     8.485
  61.060         82.50	     9.950
  61.080         64.17	     8.775
  61.100         65.83	     8.888
  61.120         55.83	     8.185
  61.140         59.17	     8.426
  61.160         56.67	     8.246
  61.180         58.33	     8.367
  61.200         54.17	     8.062
  61.220         54.17	     8.062
  61.240         56.67	     8.246
  61.260         58.33	     8.367
  61.280         56.67	     8.246
  61.300         50.83	     7.810
  61.320         48.33	     7.616
  61.340         49.17	     7.681
  61.360         53.33	     8.000
  61.380         52.50	     7.937
  61.400         53.33	     8.000
  61.420         55.00	     8.124
  61.440         50.83	     7.810
  61.460         57.50	     8.307
  61.480         53.33	     8.000
  61.500         57.50	     8.307
  61.520         55.83	     8.185
  61.540         62.50	     8.660
  61.560         55.00	     8.124
  61.580         65.00	     8.832
  61.600         87.50	    10.247
  61.620         71.67	     9.274
  61.640         71.67	     9.274
  61.660         89.17	    10.344
  61.680         83.33	    10.000
  61.700         80.00	     9.798
  61.720         86.67	    10.198
  61.740         96.67	    10.770
  61.760         76.67	     9.592
  61.780         67.50	     9.000
  61.800         75.83	     9.539
  61.820         83.33	    10.000
  61.840         79.17	     9.747
  61.860         75.00	     9.487
  61.880         71.67	     9.274
  61.900         50.83	     7.810
  61.920         62.50	     8.660
  61.940         46.67	     7.483
  61.960         64.17	     8.775
  61.980         59.17	     8.426
  62.000         41.67	     7.071
  62.020         57.50	     8.307
  62.040         43.33	     7.211
  62.060         63.33	     8.718
  62.080         46.67	     7.483
  62.100         50.00	     7.746
  62.120         50.00	     7.746
  62.140         54.17	     8.062
  62.160         50.00	     7.746
  62.180         43.33	     7.211
  62.200         37.50	     6.708
  62.220         47.50	     7.550
  62.240         41.67	     7.071
  62.260         43.33	     7.211
  62.280         38.33	     6.782
  62.300         42.50	     7.141
  62.320         44.17	     7.280
  62.340         40.83	     7.000
  62.360         43.33	     7.211
  62.380         33.33	     6.325
  62.400         35.00	     6.481
  62.420         35.00	     6.481
  62.440         31.67	     6.164
  62.460         30.00	     6.000
  62.480         40.83	     7.000
  62.500         38.33	     6.782
  62.520         33.33	     6.325
  62.540         28.33	     5.831
  62.560         31.67	     6.164
  62.580         25.83	     5.568
  62.600         28.33	     5.831
  62.620         33.33	     6.325
  62.640         32.50	     6.245
  62.660         32.50	     6.245
  62.680         40.83	     7.000
  62.700         32.50	     6.245
  62.720         26.67	     5.657
  62.740         25.00	     5.477
  62.760         29.17	     5.916
  62.780         25.83	     5.568
  62.800         39.17	     6.856
  62.820         32.50	     6.245
  62.840         37.50	     6.708
  62.860         31.67	     6.164
  62.880         33.33	     6.325
  62.900         32.50	     6.245
  62.920         32.50	     6.245
  62.940         26.67	     5.657
  62.960         34.17	     6.403
  62.980         22.50	     5.196
  63.000         29.17	     5.916
  63.020         30.83	     6.083
  63.040         39.17	     6.856
  63.060         30.00	     6.000
  63.080         30.83	     6.083
  63.100         30.83	     6.083
  63.120         34.17	     6.403
  63.140         40.00	     6.928
  63.160         24.17	     5.385
  63.180         33.33	     6.325
  63.200         32.50	     6.245
  63.220         40.00	     6.928
  63.240         34.17	     6.403
  63.260         36.67	     6.633
  63.280         35.83	     6.557
  63.300         29.17	     5.916
  63.320         35.00	     6.481
  63.340         37.50	     6.708
  63.360         34.17	     6.403
  63.380         29.17	     5.916
  63.400         35.00	     6.481
  63.420         36.67	     6.633
  63.440         39.17	     6.856
  63.460         30.83	     6.083
  63.480         37.50	     6.708
  63.500         30.00	     6.000
  63.520         25.83	     5.568
  63.540         30.00	     6.000
  63.560         39.17	     6.856
  63.580         49.17	     7.681
  63.600         36.67	     6.633
  63.620         31.67	     6.164
  63.640         46.67	     7.483
  63.660         40.00	     6.928
  63.680         34.17	     6.403
  63.700         31.67	     6.164
  63.720         41.67	     7.071
  63.740         34.17	     6.403
  63.760         52.50	     7.937
  63.780         39.17	     6.856
  63.800         43.33	     7.211
  63.820         33.33	     6.325
  63.840         45.83	     7.416
  63.860         43.33	     7.211
  63.880         35.00	     6.481
  63.900         40.83	     7.000
  63.920         51.67	     7.874
  63.940         41.67	     7.071
  63.960         56.67	     8.246
  63.980         40.83	     7.000
  64.000         42.50	     7.141
  64.020         32.50	     6.245
  64.040         48.33	     7.616
  64.060         51.67	     7.874
  64.080         40.83	     7.000
  64.100         45.00	     7.348
  64.120         56.67	     8.246
  64.140         42.50	     7.141
  64.160         51.67	     7.874
  64.180         48.33	     7.616
  64.200         55.83	     8.185
  64.220         54.17	     8.062
  64.240         53.33	     8.000
  64.260         60.00	     8.485
  64.280         75.83	     9.539
  64.300         79.17	     9.747
  64.320         54.17	     8.062
  64.340         57.50	     8.307
  64.360         50.00	     7.746
  64.380         44.17	     7.280
  64.400         54.17	     8.062
  64.420         52.50	     7.937
  64.440         44.17	     7.280
  64.460         39.17	     6.856
  64.480         45.83	     7.416
  64.500         53.33	     8.000
  64.520         44.17	     7.280
  64.540         50.00	     7.746
  64.560         45.83	     7.416
  64.580         35.00	     6.481
  64.600         28.33	     5.831
  64.620         29.17	     5.916
  64.640         35.00	     6.481
  64.660         32.50	     6.245
  64.680         32.50	     6.245
  64.700         30.83	     6.083
  64.720         28.33	     5.831
  64.740         33.33	     6.325
  64.760         37.50	     6.708
  64.780         30.00	     6.000
  64.800         34.17	     6.403
  64.820         44.17	     7.280
  64.840         34.17	     6.403
  64.860         39.17	     6.856
  64.880         39.17	     6.856
  64.900         41.67	     7.071
  64.920         36.67	     6.633
  64.940         47.50	     7.550
  64.960         54.17	     8.062
  64.980         37.50	     6.708
  65.000         48.33	     7.616
