
Filename:
	C:\Program Files\Thermo Electron\WinXRD\Datafiles\F_HERMAN\FIEN\22_1_SEPT_FILTER.raw

File Created:
	December 20, 2018 - 02:57 PM

Specimen Id:
	22.1 SEPT FILTRE

Specimen Name:
	

Specimen Description:
	

Comment:
Scan Type: 2Theta Scan
Start Angle: 1 deg.
Stop Angle: 65 deg.
Num Points: 3201
Step Size: 0.02 deg.
Scan Rate: 1.000000
Scan Mode: Continuous
Wavelength: 1.540562
\Kalpha1: 1.540562	\Kalpha2: 1.544390	\Kbeta: 1.392218

Optics:
		Detector:
			 Type: Fixed Slits
		Tube: 
			 Type: Fixed Slits


Datas:
 Pos [deg]       Rate [CPS]      ESD [-]

Range 1 ---> Iteration 1
   1.000        775.83	    30.512
   1.020        820.00	    31.369
   1.040        630.83	    27.514
   1.060        678.33	    28.531
   1.080        505.83	    24.637
   1.100        507.50	    24.678
   1.120        433.33	    22.804
   1.140        380.83	    21.378
   1.160        475.00	    23.875
   1.180        440.83	    23.000
   1.200        418.33	    22.405
   1.220        357.50	    20.712
   1.240        398.33	    21.863
   1.260        443.33	    23.065
   1.280        439.17	    22.956
   1.300        615.00	    27.166
   1.320        674.17	    28.443
   1.340        830.83	    31.575
   1.360       1125.00	    36.742
   1.380       1328.33	    39.925
   1.400       1260.83	    38.897
   1.420       1285.00	    39.268
   1.440       1238.33	    38.549
   1.460       1275.83	    39.128
   1.480       1275.00	    39.115
   1.500       1165.00	    37.390
   1.520       1125.83	    36.756
   1.540       1196.67	    37.895
   1.560       1072.50	    35.875
   1.580       1015.83	    34.914
   1.600        975.83	    34.220
   1.620        931.67	    33.437
   1.640        942.50	    33.630
   1.660        901.67	    32.894
   1.680        904.17	    32.939
   1.700        739.17	    29.783
   1.720        693.33	    28.844
   1.740        708.33	    29.155
   1.760        617.50	    27.221
   1.780        583.33	    26.458
   1.800        543.33	    25.534
   1.820        509.17	    24.718
   1.840        504.17	    24.597
   1.860        532.50	    25.278
   1.880        482.50	    24.062
   1.900        483.33	    24.083
   1.920        453.33	    23.324
   1.940        437.50	    22.913
   1.960        461.67	    23.537
   1.980        443.33	    23.065
   2.000        437.50	    22.913
   2.020        420.83	    22.472
   2.040        410.83	    22.204
   2.060        403.33	    22.000
   2.080        405.00	    22.045
   2.100        387.50	    21.564
   2.120        365.00	    20.928
   2.140        375.00	    21.213
   2.160        372.50	    21.142
   2.180        371.67	    21.119
   2.200        345.00	    20.347
   2.220        372.50	    21.142
   2.240        349.17	    20.469
   2.260        347.50	    20.421
   2.280        335.83	    20.075
   2.300        360.00	    20.785
   2.320        319.17	    19.570
   2.340        313.33	    19.391
   2.360        305.00	    19.131
   2.380        297.50	    18.894
   2.400        348.33	    20.445
   2.420        280.00	    18.330
   2.440        307.50	    19.209
   2.460        293.33	    18.762
   2.480        306.67	    19.183
   2.500        300.83	    19.000
   2.520        281.67	    18.385
   2.540        269.17	    17.972
   2.560        301.67	    19.026
   2.580        305.83	    19.157
   2.600        255.83	    17.521
   2.620        285.00	    18.493
   2.640        256.67	    17.550
   2.660        292.50	    18.735
   2.680        256.67	    17.550
   2.700        235.00	    16.793
   2.720        245.83	    17.176
   2.740        294.17	    18.788
   2.760        259.17	    17.635
   2.780        270.83	    18.028
   2.800        265.83	    17.861
   2.820        230.83	    16.643
   2.840        250.00	    17.321
   2.860        250.00	    17.321
   2.880        212.50	    15.969
   2.900        260.83	    17.692
   2.920        259.17	    17.635
   2.940        247.50	    17.234
   2.960        235.83	    16.823
   2.980        226.67	    16.492
   3.000        226.67	    16.492
   3.020        235.83	    16.823
   3.040        215.83	    16.093
   3.060        199.17	    15.460
   3.080        220.83	    16.279
   3.100        229.17	    16.583
   3.120        191.67	    15.166
   3.140        253.33	    17.436
   3.160        240.83	    17.000
   3.180        202.50	    15.588
   3.200        205.83	    15.716
   3.220        222.50	    16.340
   3.240        221.67	    16.310
   3.260        225.83	    16.462
   3.280        205.00	    15.684
   3.300        199.17	    15.460
   3.320        204.17	    15.652
   3.340        193.33	    15.232
   3.360        208.33	    15.811
   3.380        203.33	    15.620
   3.400        218.33	    16.186
   3.420        202.50	    15.588
   3.440        209.17	    15.843
   3.460        186.67	    14.967
   3.480        196.67	    15.362
   3.500        196.67	    15.362
   3.520        205.00	    15.684
   3.540        202.50	    15.588
   3.560        205.83	    15.716
   3.580        164.17	    14.036
   3.600        186.67	    14.967
   3.620        186.67	    14.967
   3.640        206.67	    15.748
   3.660        191.67	    15.166
   3.680        195.83	    15.330
   3.700        183.33	    14.832
   3.720        186.67	    14.967
   3.740        201.67	    15.556
   3.760        205.83	    15.716
   3.780        186.67	    14.967
   3.800        160.83	    13.892
   3.820        164.17	    14.036
   3.840        185.83	    14.933
   3.860        183.33	    14.832
   3.880        184.17	    14.866
   3.900        156.67	    13.711
   3.920        169.17	    14.248
   3.940        181.67	    14.765
   3.960        156.67	    13.711
   3.980        173.33	    14.422
   4.000        173.33	    14.422
   4.020        168.33	    14.213
   4.040        160.83	    13.892
   4.060        165.83	    14.107
   4.080        145.00	    13.191
   4.100        166.67	    14.142
   4.120        159.17	    13.820
   4.140        171.67	    14.353
   4.160        159.17	    13.820
   4.180        172.50	    14.387
   4.200        163.33	    14.000
   4.220        160.83	    13.892
   4.240        140.83	    13.000
   4.260        150.83	    13.454
   4.280        145.00	    13.191
   4.300        160.00	    13.856
   4.320        143.33	    13.115
   4.340        140.83	    13.000
   4.360        132.50	    12.610
   4.380        150.00	    13.416
   4.400        150.83	    13.454
   4.420        138.33	    12.884
   4.440        150.00	    13.416
   4.460        141.67	    13.038
   4.480        135.00	    12.728
   4.500        146.67	    13.266
   4.520        133.33	    12.649
   4.540        161.67	    13.928
   4.560        144.17	    13.153
   4.580        132.50	    12.610
   4.600        130.00	    12.490
   4.620        125.83	    12.288
   4.640        142.50	    13.077
   4.660        133.33	    12.649
   4.680        131.67	    12.570
   4.700        152.50	    13.528
   4.720        140.83	    13.000
   4.740        134.17	    12.689
   4.760        136.67	    12.806
   4.780        123.33	    12.166
   4.800        148.33	    13.342
   4.820        150.83	    13.454
   4.840        124.17	    12.207
   4.860        130.00	    12.490
   4.880        121.67	    12.083
   4.900        142.50	    13.077
   4.920        121.67	    12.083
   4.940        133.33	    12.649
   4.960        132.50	    12.610
   4.980        117.50	    11.874
   5.000        115.00	    11.747
   5.020        145.83	    13.229
   5.040        123.33	    12.166
   5.060        131.67	    12.570
   5.080        121.67	    12.083
   5.100        129.17	    12.450
   5.120        127.50	    12.369
   5.140        113.33	    11.662
   5.160        128.33	    12.410
   5.180        118.33	    11.916
   5.200        123.33	    12.166
   5.220        131.67	    12.570
   5.240        120.00	    12.000
   5.260        135.83	    12.767
   5.280        105.83	    11.269
   5.300        115.83	    11.790
   5.320        124.17	    12.207
   5.340        127.50	    12.369
   5.360        124.17	    12.207
   5.380        105.00	    11.225
   5.400        115.00	    11.747
   5.420        123.33	    12.166
   5.440        108.33	    11.402
   5.460        115.00	    11.747
   5.480        124.17	    12.207
   5.500        123.33	    12.166
   5.520        116.67	    11.832
   5.540        106.67	    11.314
   5.560        100.83	    11.000
   5.580        125.00	    12.247
   5.600        114.17	    11.705
   5.620        131.67	    12.570
   5.640        127.50	    12.369
   5.660        115.00	    11.747
   5.680        114.17	    11.705
   5.700        115.00	    11.747
   5.720        116.67	    11.832
   5.740        130.83	    12.530
   5.760        105.83	    11.269
   5.780        104.17	    11.180
   5.800        125.00	    12.247
   5.820        104.17	    11.180
   5.840        102.50	    11.091
   5.860         97.50	    10.817
   5.880        110.83	    11.533
   5.900        122.50	    12.124
   5.920        116.67	    11.832
   5.940        123.33	    12.166
   5.960        122.50	    12.124
   5.980        120.83	    12.042
   6.000        129.17	    12.450
   6.020        143.33	    13.115
   6.040        121.67	    12.083
   6.060        138.33	    12.884
   6.080        143.33	    13.115
   6.100        146.67	    13.266
   6.120        134.17	    12.689
   6.140        151.67	    13.491
   6.160        155.83	    13.675
   6.180        155.83	    13.675
   6.200        145.83	    13.229
   6.220        185.83	    14.933
   6.240        180.83	    14.731
   6.260        174.17	    14.457
   6.280        173.33	    14.422
   6.300        169.17	    14.248
   6.320        151.67	    13.491
   6.340        132.50	    12.610
   6.360        133.33	    12.649
   6.380        120.83	    12.042
   6.400        103.33	    11.136
   6.420        124.17	    12.207
   6.440        114.17	    11.705
   6.460        109.17	    11.446
   6.480        100.00	    10.954
   6.500         93.33	    10.583
   6.520        108.33	    11.402
   6.540        116.67	    11.832
   6.560        125.83	    12.288
   6.580        115.00	    11.747
   6.600         91.67	    10.488
   6.620         97.50	    10.817
   6.640        105.83	    11.269
   6.660        100.83	    11.000
   6.680        113.33	    11.662
   6.700         97.50	    10.817
   6.720         90.00	    10.392
   6.740        108.33	    11.402
   6.760         98.33	    10.863
   6.780         90.83	    10.440
   6.800        106.67	    11.314
   6.820        106.67	    11.314
   6.840        108.33	    11.402
   6.860        108.33	    11.402
   6.880         98.33	    10.863
   6.900        107.50	    11.358
   6.920         90.83	    10.440
   6.940         86.67	    10.198
   6.960         98.33	    10.863
   6.980         94.17	    10.630
   7.000         86.67	    10.198
   7.020         80.00	     9.798
   7.040         90.00	    10.392
   7.060         73.33	     9.381
   7.080        100.00	    10.954
   7.100        100.83	    11.000
   7.120         83.33	    10.000
   7.140         77.50	     9.644
   7.160         75.83	     9.539
   7.180         80.83	     9.849
   7.200         80.00	     9.798
   7.220         99.17	    10.909
   7.240         75.00	     9.487
   7.260         85.00	    10.100
   7.280         86.67	    10.198
   7.300         83.33	    10.000
   7.320         87.50	    10.247
   7.340         82.50	     9.950
   7.360         71.67	     9.274
   7.380         74.17	     9.434
   7.400         98.33	    10.863
   7.420         99.17	    10.909
   7.440         93.33	    10.583
   7.460         84.17	    10.050
   7.480         98.33	    10.863
   7.500         83.33	    10.000
   7.520         83.33	    10.000
   7.540         85.83	    10.149
   7.560         80.83	     9.849
   7.580         85.00	    10.100
   7.600         85.00	    10.100
   7.620         87.50	    10.247
   7.640         81.67	     9.899
   7.660         70.00	     9.165
   7.680         79.17	     9.747
   7.700         77.50	     9.644
   7.720         67.50	     9.000
   7.740         90.83	    10.440
   7.760         67.50	     9.000
   7.780         79.17	     9.747
   7.800         72.50	     9.327
   7.820         80.83	     9.849
   7.840         70.00	     9.165
   7.860         63.33	     8.718
   7.880         75.00	     9.487
   7.900         61.67	     8.602
   7.920         79.17	     9.747
   7.940         60.00	     8.485
   7.960         90.00	    10.392
   7.980         55.00	     8.124
   8.000         83.33	    10.000
   8.020         64.17	     8.775
   8.040         80.83	     9.849
   8.060         73.33	     9.381
   8.080         77.50	     9.644
   8.100         60.83	     8.544
   8.120         76.67	     9.592
   8.140         70.83	     9.220
   8.160         70.00	     9.165
   8.180         69.17	     9.110
   8.200         76.67	     9.592
   8.220         70.00	     9.165
   8.240         70.83	     9.220
   8.260         82.50	     9.950
   8.280         80.00	     9.798
   8.300         74.17	     9.434
   8.320         76.67	     9.592
   8.340         55.00	     8.124
   8.360         75.83	     9.539
   8.380         67.50	     9.000
   8.400         70.00	     9.165
   8.420         72.50	     9.327
   8.440         65.00	     8.832
   8.460         80.00	     9.798
   8.480         77.50	     9.644
   8.500         75.83	     9.539
   8.520         82.50	     9.950
   8.540         82.50	     9.950
   8.560         90.00	    10.392
   8.580         86.67	    10.198
   8.600         83.33	    10.000
   8.620         80.83	     9.849
   8.640         95.00	    10.677
   8.660         87.50	    10.247
   8.680         94.17	    10.630
   8.700         82.50	     9.950
   8.720         98.33	    10.863
   8.740        113.33	    11.662
   8.760        112.50	    11.619
   8.780        121.67	    12.083
   8.800        140.83	    13.000
   8.820        123.33	    12.166
   8.840        137.50	    12.845
   8.860        164.17	    14.036
   8.880        237.50	    16.882
   8.900        284.17	    18.466
   8.920        248.33	    17.263
   8.940        233.33	    16.733
   8.960        197.50	    15.395
   8.980        167.50	    14.177
   9.000        131.67	    12.570
   9.020        122.50	    12.124
   9.040        100.83	    11.000
   9.060         86.67	    10.198
   9.080         86.67	    10.198
   9.100         76.67	     9.592
   9.120         79.17	     9.747
   9.140         76.67	     9.592
   9.160         74.17	     9.434
   9.180         84.17	    10.050
   9.200         83.33	    10.000
   9.220         87.50	    10.247
   9.240         74.17	     9.434
   9.260         67.50	     9.000
   9.280         62.50	     8.660
   9.300         73.33	     9.381
   9.320         81.67	     9.899
   9.340         70.83	     9.220
   9.360         70.00	     9.165
   9.380         57.50	     8.307
   9.400         63.33	     8.718
   9.420         75.83	     9.539
   9.440         69.17	     9.110
   9.460         86.67	    10.198
   9.480         84.17	    10.050
   9.500         75.00	     9.487
   9.520         61.67	     8.602
   9.540         78.33	     9.695
   9.560         61.67	     8.602
   9.580         51.67	     7.874
   9.600         46.67	     7.483
   9.620         54.17	     8.062
   9.640         63.33	     8.718
   9.660         55.83	     8.185
   9.680         64.17	     8.775
   9.700         56.67	     8.246
   9.720         58.33	     8.367
   9.740         66.67	     8.944
   9.760         67.50	     9.000
   9.780         51.67	     7.874
   9.800         65.00	     8.832
   9.820         51.67	     7.874
   9.840         70.83	     9.220
   9.860         64.17	     8.775
   9.880         60.00	     8.485
   9.900         45.00	     7.348
   9.920         53.33	     8.000
   9.940         73.33	     9.381
   9.960         62.50	     8.660
   9.980         65.83	     8.888
  10.000         70.00	     9.165
  10.020         57.50	     8.307
  10.040         60.00	     8.485
  10.060         52.50	     7.937
  10.080         70.00	     9.165
  10.100         45.00	     7.348
  10.120         62.50	     8.660
  10.140         53.33	     8.000
  10.160         55.00	     8.124
  10.180         59.17	     8.426
  10.200         61.67	     8.602
  10.220         60.83	     8.544
  10.240         55.83	     8.185
  10.260         50.00	     7.746
  10.280         55.00	     8.124
  10.300         52.50	     7.937
  10.320         54.17	     8.062
  10.340         49.17	     7.681
  10.360         51.67	     7.874
  10.380         46.67	     7.483
  10.400         42.50	     7.141
  10.420         54.17	     8.062
  10.440         46.67	     7.483
  10.460         65.00	     8.832
  10.480         59.17	     8.426
  10.500         79.17	     9.747
  10.520         89.17	    10.344
  10.540         95.00	    10.677
  10.560        105.00	    11.225
  10.580         91.67	    10.488
  10.600         75.00	     9.487
  10.620         70.00	     9.165
  10.640         70.00	     9.165
  10.660         65.00	     8.832
  10.680         61.67	     8.602
  10.700         55.00	     8.124
  10.720         50.83	     7.810
  10.740         62.50	     8.660
  10.760         45.83	     7.416
  10.780         61.67	     8.602
  10.800         43.33	     7.211
  10.820         42.50	     7.141
  10.840         54.17	     8.062
  10.860         45.83	     7.416
  10.880         48.33	     7.616
  10.900         57.50	     8.307
  10.920         52.50	     7.937
  10.940         64.17	     8.775
  10.960         52.50	     7.937
  10.980         44.17	     7.280
  11.000         52.50	     7.937
  11.020         45.83	     7.416
  11.040         45.00	     7.348
  11.060         62.50	     8.660
  11.080         45.00	     7.348
  11.100         55.00	     8.124
  11.120         54.17	     8.062
  11.140         40.00	     6.928
  11.160         51.67	     7.874
  11.180         55.00	     8.124
  11.200         52.50	     7.937
  11.220         48.33	     7.616
  11.240         54.17	     8.062
  11.260         60.00	     8.485
  11.280         54.17	     8.062
  11.300         45.83	     7.416
  11.320         45.00	     7.348
  11.340         45.83	     7.416
  11.360         50.00	     7.746
  11.380         44.17	     7.280
  11.400         56.67	     8.246
  11.420         53.33	     8.000
  11.440         57.50	     8.307
  11.460         46.67	     7.483
  11.480         46.67	     7.483
  11.500         44.17	     7.280
  11.520         50.83	     7.810
  11.540         59.17	     8.426
  11.560         55.00	     8.124
  11.580         52.50	     7.937
  11.600         40.00	     6.928
  11.620         44.17	     7.280
  11.640         45.83	     7.416
  11.660         55.00	     8.124
  11.680         30.83	     6.083
  11.700         45.00	     7.348
  11.720         49.17	     7.681
  11.740         44.17	     7.280
  11.760         52.50	     7.937
  11.780         45.00	     7.348
  11.800         50.83	     7.810
  11.820         47.50	     7.550
  11.840         50.00	     7.746
  11.860         59.17	     8.426
  11.880         57.50	     8.307
  11.900         62.50	     8.660
  11.920         52.50	     7.937
  11.940         50.00	     7.746
  11.960         50.83	     7.810
  11.980         65.00	     8.832
  12.000         54.17	     8.062
  12.020         65.83	     8.888
  12.040         65.83	     8.888
  12.060         63.33	     8.718
  12.080         64.17	     8.775
  12.100         98.33	    10.863
  12.120        106.67	    11.314
  12.140        119.17	    11.958
  12.160        147.50	    13.304
  12.180        194.17	    15.264
  12.200        276.67	    18.221
  12.220        282.50	    18.412
  12.240        310.83	    19.313
  12.260        277.50	    18.248
  12.280        212.50	    15.969
  12.300        210.00	    15.875
  12.320        180.00	    14.697
  12.340        178.33	    14.629
  12.360        174.17	    14.457
  12.380        184.17	    14.866
  12.400        151.67	    13.491
  12.420        190.00	    15.100
  12.440        167.50	    14.177
  12.460        175.83	    14.526
  12.480        180.83	    14.731
  12.500        191.67	    15.166
  12.520        215.00	    16.062
  12.540        230.83	    16.643
  12.560        185.83	    14.933
  12.580        165.00	    14.071
  12.600        156.67	    13.711
  12.620        115.83	    11.790
  12.640         72.50	     9.327
  12.660         92.50	    10.536
  12.680         75.00	     9.487
  12.700         66.67	     8.944
  12.720         65.83	     8.888
  12.740         57.50	     8.307
  12.760         69.17	     9.110
  12.780         55.83	     8.185
  12.800         61.67	     8.602
  12.820         59.17	     8.426
  12.840         48.33	     7.616
  12.860         53.33	     8.000
  12.880         45.83	     7.416
  12.900         54.17	     8.062
  12.920         51.67	     7.874
  12.940         55.83	     8.185
  12.960         45.83	     7.416
  12.980         45.83	     7.416
  13.000         57.50	     8.307
  13.020         48.33	     7.616
  13.040         42.50	     7.141
  13.060         48.33	     7.616
  13.080         40.83	     7.000
  13.100         39.17	     6.856
  13.120         48.33	     7.616
  13.140         49.17	     7.681
  13.160         48.33	     7.616
  13.180         46.67	     7.483
  13.200         37.50	     6.708
  13.220         48.33	     7.616
  13.240         53.33	     8.000
  13.260         37.50	     6.708
  13.280         43.33	     7.211
  13.300         46.67	     7.483
  13.320         50.83	     7.810
  13.340         47.50	     7.550
  13.360         39.17	     6.856
  13.380         46.67	     7.483
  13.400         50.83	     7.810
  13.420         43.33	     7.211
  13.440         56.67	     8.246
  13.460         40.00	     6.928
  13.480         35.83	     6.557
  13.500         45.83	     7.416
  13.520         39.17	     6.856
  13.540         45.00	     7.348
  13.560         53.33	     8.000
  13.580         44.17	     7.280
  13.600         38.33	     6.782
  13.620         45.83	     7.416
  13.640         45.83	     7.416
  13.660         51.67	     7.874
  13.680         61.67	     8.602
  13.700         51.67	     7.874
  13.720         41.67	     7.071
  13.740         41.67	     7.071
  13.760         39.17	     6.856
  13.780         50.83	     7.810
  13.800         44.17	     7.280
  13.820         54.17	     8.062
  13.840         54.17	     8.062
  13.860         74.17	     9.434
  13.880         66.67	     8.944
  13.900         59.17	     8.426
  13.920         55.83	     8.185
  13.940         44.17	     7.280
  13.960         46.67	     7.483
  13.980         58.33	     8.367
  14.000         58.33	     8.367
  14.020         65.83	     8.888
  14.040         50.00	     7.746
  14.060         56.67	     8.246
  14.080         50.83	     7.810
  14.100         45.83	     7.416
  14.120         45.00	     7.348
  14.140         49.17	     7.681
  14.160         45.83	     7.416
  14.180         42.50	     7.141
  14.200         37.50	     6.708
  14.220         46.67	     7.483
  14.240         49.17	     7.681
  14.260         30.83	     6.083
  14.280         29.17	     5.916
  14.300         40.00	     6.928
  14.320         28.33	     5.831
  14.340         39.17	     6.856
  14.360         38.33	     6.782
  14.380         40.00	     6.928
  14.400         50.00	     7.746
  14.420         40.83	     7.000
  14.440         40.83	     7.000
  14.460         40.00	     6.928
  14.480         40.00	     6.928
  14.500         40.00	     6.928
  14.520         43.33	     7.211
  14.540         30.00	     6.000
  14.560         42.50	     7.141
  14.580         40.83	     7.000
  14.600         48.33	     7.616
  14.620         37.50	     6.708
  14.640         32.50	     6.245
  14.660         54.17	     8.062
  14.680         38.33	     6.782
  14.700         32.50	     6.245
  14.720         33.33	     6.325
  14.740         37.50	     6.708
  14.760         41.67	     7.071
  14.780         35.00	     6.481
  14.800         38.33	     6.782
  14.820         26.67	     5.657
  14.840         35.83	     6.557
  14.860         41.67	     7.071
  14.880         40.00	     6.928
  14.900         39.17	     6.856
  14.920         32.50	     6.245
  14.940         34.17	     6.403
  14.960         35.83	     6.557
  14.980         43.33	     7.211
  15.000         36.67	     6.633
  15.020         43.33	     7.211
  15.040         33.33	     6.325
  15.060         46.67	     7.483
  15.080         60.00	     8.485
  15.100         49.17	     7.681
  15.120         39.17	     6.856
  15.140         35.00	     6.481
  15.160         47.50	     7.550
  15.180         39.17	     6.856
  15.200         40.83	     7.000
  15.220         30.00	     6.000
  15.240         34.17	     6.403
  15.260         30.83	     6.083
  15.280         36.67	     6.633
  15.300         35.83	     6.557
  15.320         40.83	     7.000
  15.340         47.50	     7.550
  15.360         28.33	     5.831
  15.380         30.00	     6.000
  15.400         37.50	     6.708
  15.420         38.33	     6.782
  15.440         40.83	     7.000
  15.460         26.67	     5.657
  15.480         35.00	     6.481
  15.500         28.33	     5.831
  15.520         33.33	     6.325
  15.540         32.50	     6.245
  15.560         34.17	     6.403
  15.580         37.50	     6.708
  15.600         35.00	     6.481
  15.620         40.83	     7.000
  15.640         38.33	     6.782
  15.660         40.00	     6.928
  15.680         35.83	     6.557
  15.700         33.33	     6.325
  15.720         34.17	     6.403
  15.740         32.50	     6.245
  15.760         28.33	     5.831
  15.780         41.67	     7.071
  15.800         30.83	     6.083
  15.820         32.50	     6.245
  15.840         38.33	     6.782
  15.860         50.83	     7.810
  15.880         35.00	     6.481
  15.900         42.50	     7.141
  15.920         43.33	     7.211
  15.940         28.33	     5.831
  15.960         40.83	     7.000
  15.980         33.33	     6.325
  16.000         37.50	     6.708
  16.020         20.00	     4.899
  16.040         40.83	     7.000
  16.060         38.33	     6.782
  16.080         24.17	     5.385
  16.100         28.33	     5.831
  16.120         45.00	     7.348
  16.140         30.00	     6.000
  16.160         41.67	     7.071
  16.180         35.00	     6.481
  16.200         40.00	     6.928
  16.220         28.33	     5.831
  16.240         27.50	     5.745
  16.260         30.00	     6.000
  16.280         33.33	     6.325
  16.300         42.50	     7.141
  16.320         30.00	     6.000
  16.340         36.67	     6.633
  16.360         44.17	     7.280
  16.380         38.33	     6.782
  16.400         26.67	     5.657
  16.420         35.83	     6.557
  16.440         32.50	     6.245
  16.460         40.00	     6.928
  16.480         25.00	     5.477
  16.500         25.83	     5.568
  16.520         18.33	     4.690
  16.540         35.00	     6.481
  16.560         34.17	     6.403
  16.580         43.33	     7.211
  16.600         44.17	     7.280
  16.620         29.17	     5.916
  16.640         32.50	     6.245
  16.660         48.33	     7.616
  16.680         30.00	     6.000
  16.700         40.00	     6.928
  16.720         30.83	     6.083
  16.740         38.33	     6.782
  16.760         38.33	     6.782
  16.780         19.17	     4.796
  16.800         30.00	     6.000
  16.820         36.67	     6.633
  16.840         37.50	     6.708
  16.860         41.67	     7.071
  16.880         40.83	     7.000
  16.900         35.00	     6.481
  16.920         33.33	     6.325
  16.940         31.67	     6.164
  16.960         32.50	     6.245
  16.980         25.83	     5.568
  17.000         26.67	     5.657
  17.020         30.83	     6.083
  17.040         40.00	     6.928
  17.060         26.67	     5.657
  17.080         30.00	     6.000
  17.100         48.33	     7.616
  17.120         30.83	     6.083
  17.140         28.33	     5.831
  17.160         27.50	     5.745
  17.180         36.67	     6.633
  17.200         28.33	     5.831
  17.220         34.17	     6.403
  17.240         34.17	     6.403
  17.260         36.67	     6.633
  17.280         38.33	     6.782
  17.300         36.67	     6.633
  17.320         41.67	     7.071
  17.340         37.50	     6.708
  17.360         36.67	     6.633
  17.380         30.83	     6.083
  17.400         36.67	     6.633
  17.420         37.50	     6.708
  17.440         41.67	     7.071
  17.460         48.33	     7.616
  17.480         35.00	     6.481
  17.500         42.50	     7.141
  17.520         32.50	     6.245
  17.540         35.83	     6.557
  17.560         39.17	     6.856
  17.580         39.17	     6.856
  17.600         39.17	     6.856
  17.620         40.83	     7.000
  17.640         39.17	     6.856
  17.660         67.50	     9.000
  17.680         71.67	     9.274
  17.700         72.50	     9.327
  17.720         62.50	     8.660
  17.740         53.33	     8.000
  17.760         79.17	     9.747
  17.780         85.83	    10.149
  17.800        109.17	    11.446
  17.820        142.50	    13.077
  17.840        147.50	    13.304
  17.860        169.17	    14.248
  17.880        170.00	    14.283
  17.900        137.50	    12.845
  17.920        105.00	    11.225
  17.940         80.83	     9.849
  17.960         70.83	     9.220
  17.980         65.83	     8.888
  18.000         53.33	     8.000
  18.020         51.67	     7.874
  18.040         46.67	     7.483
  18.060         55.83	     8.185
  18.080         50.00	     7.746
  18.100         39.17	     6.856
  18.120         44.17	     7.280
  18.140         44.17	     7.280
  18.160         38.33	     6.782
  18.180         45.83	     7.416
  18.200         31.67	     6.164
  18.220         41.67	     7.071
  18.240         38.33	     6.782
  18.260         38.33	     6.782
  18.280         41.67	     7.071
  18.300         30.83	     6.083
  18.320         38.33	     6.782
  18.340         45.83	     7.416
  18.360         47.50	     7.550
  18.380         36.67	     6.633
  18.400         43.33	     7.211
  18.420         34.17	     6.403
  18.440         55.83	     8.185
  18.460         45.00	     7.348
  18.480         49.17	     7.681
  18.500         52.50	     7.937
  18.520         44.17	     7.280
  18.540         64.17	     8.775
  18.560         82.50	     9.950
  18.580         66.67	     8.944
  18.600         88.33	    10.296
  18.620         88.33	    10.296
  18.640         88.33	    10.296
  18.660         65.00	     8.832
  18.680         77.50	     9.644
  18.700         65.00	     8.832
  18.720         56.67	     8.246
  18.740         80.83	     9.849
  18.760         85.83	    10.149
  18.780        107.50	    11.358
  18.800        103.33	    11.136
  18.820        111.67	    11.576
  18.840         97.50	    10.817
  18.860        112.50	    11.619
  18.880         96.67	    10.770
  18.900         94.17	    10.630
  18.920         63.33	     8.718
  18.940         64.17	     8.775
  18.960         55.83	     8.185
  18.980         52.50	     7.937
  19.000         55.00	     8.124
  19.020         79.17	     9.747
  19.040         48.33	     7.616
  19.060         52.50	     7.937
  19.080         51.67	     7.874
  19.100         50.00	     7.746
  19.120         50.83	     7.810
  19.140         34.17	     6.403
  19.160         41.67	     7.071
  19.180         37.50	     6.708
  19.200         48.33	     7.616
  19.220         39.17	     6.856
  19.240         50.00	     7.746
  19.260         46.67	     7.483
  19.280         46.67	     7.483
  19.300         39.17	     6.856
  19.320         46.67	     7.483
  19.340         39.17	     6.856
  19.360         51.67	     7.874
  19.380         42.50	     7.141
  19.400         41.67	     7.071
  19.420         44.17	     7.280
  19.440         47.50	     7.550
  19.460         40.83	     7.000
  19.480         42.50	     7.141
  19.500         45.83	     7.416
  19.520         35.83	     6.557
  19.540         44.17	     7.280
  19.560         32.50	     6.245
  19.580         45.83	     7.416
  19.600         56.67	     8.246
  19.620         50.00	     7.746
  19.640         43.33	     7.211
  19.660         44.17	     7.280
  19.680         45.00	     7.348
  19.700         53.33	     8.000
  19.720         50.83	     7.810
  19.740         43.33	     7.211
  19.760         56.67	     8.246
  19.780         67.50	     9.000
  19.800         76.67	     9.592
  19.820         57.50	     8.307
  19.840         53.33	     8.000
  19.860         54.17	     8.062
  19.880         79.17	     9.747
  19.900         78.33	     9.695
  19.920         71.67	     9.274
  19.940         65.00	     8.832
  19.960         64.17	     8.775
  19.980         69.17	     9.110
  20.000         58.33	     8.367
  20.020         50.00	     7.746
  20.040         39.17	     6.856
  20.060         47.50	     7.550
  20.080         45.00	     7.348
  20.100         38.33	     6.782
  20.120         42.50	     7.141
  20.140         43.33	     7.211
  20.160         44.17	     7.280
  20.180         40.00	     6.928
  20.200         37.50	     6.708
  20.220         48.33	     7.616
  20.240         54.17	     8.062
  20.260         46.67	     7.483
  20.280         42.50	     7.141
  20.300         40.83	     7.000
  20.320         38.33	     6.782
  20.340         31.67	     6.164
  20.360         30.00	     6.000
  20.380         37.50	     6.708
  20.400         45.83	     7.416
  20.420         42.50	     7.141
  20.440         40.83	     7.000
  20.460         41.67	     7.071
  20.480         30.83	     6.083
  20.500         44.17	     7.280
  20.520         35.83	     6.557
  20.540         40.00	     6.928
  20.560         40.83	     7.000
  20.580         50.83	     7.810
  20.600         48.33	     7.616
  20.620         55.00	     8.124
  20.640         49.17	     7.681
  20.660         47.50	     7.550
  20.680         59.17	     8.426
  20.700         50.83	     7.810
  20.720         62.50	     8.660
  20.740         60.83	     8.544
  20.760         80.83	     9.849
  20.780         84.17	    10.050
  20.800         96.67	    10.770
  20.820        208.33	    15.811
  20.840        400.00	    21.909
  20.860        755.83	    30.116
  20.880        813.33	    31.241
  20.900        680.00	    28.566
  20.920        573.33	    26.230
  20.940        462.50	    23.558
  20.960        325.83	    19.774
  20.980        195.83	    15.330
  21.000        171.67	    14.353
  21.020        147.50	    13.304
  21.040        145.83	    13.229
  21.060        116.67	    11.832
  21.080         95.83	    10.724
  21.100        100.83	    11.000
  21.120         80.83	     9.849
  21.140         70.83	     9.220
  21.160         73.33	     9.381
  21.180         59.17	     8.426
  21.200         47.50	     7.550
  21.220         47.50	     7.550
  21.240         38.33	     6.782
  21.260         47.50	     7.550
  21.280         45.00	     7.348
  21.300         48.33	     7.616
  21.320         44.17	     7.280
  21.340         42.50	     7.141
  21.360         47.50	     7.550
  21.380         35.00	     6.481
  21.400         48.33	     7.616
  21.420         49.17	     7.681
  21.440         28.33	     5.831
  21.460         37.50	     6.708
  21.480         37.50	     6.708
  21.500         39.17	     6.856
  21.520         33.33	     6.325
  21.540         36.67	     6.633
  21.560         50.00	     7.746
  21.580         35.00	     6.481
  21.600         46.67	     7.483
  21.620         39.17	     6.856
  21.640         44.17	     7.280
  21.660         42.50	     7.141
  21.680         44.17	     7.280
  21.700         30.83	     6.083
  21.720         42.50	     7.141
  21.740         32.50	     6.245
  21.760         36.67	     6.633
  21.780         45.00	     7.348
  21.800         43.33	     7.211
  21.820         42.50	     7.141
  21.840         34.17	     6.403
  21.860         42.50	     7.141
  21.880         38.33	     6.782
  21.900         45.00	     7.348
  21.920         54.17	     8.062
  21.940         45.83	     7.416
  21.960         46.67	     7.483
  21.980         67.50	     9.000
  22.000         85.00	    10.100
  22.020        159.17	    13.820
  22.040        256.67	    17.550
  22.060        281.67	    18.385
  22.080        270.83	    18.028
  22.100        260.00	    17.664
  22.120        211.67	    15.937
  22.140        131.67	    12.570
  22.160        106.67	    11.314
  22.180         91.67	    10.488
  22.200         60.83	     8.544
  22.220         76.67	     9.592
  22.240         46.67	     7.483
  22.260         60.83	     8.544
  22.280         55.00	     8.124
  22.300         60.83	     8.544
  22.320         45.83	     7.416
  22.340         40.83	     7.000
  22.360         40.83	     7.000
  22.380         42.50	     7.141
  22.400         45.00	     7.348
  22.420         57.50	     8.307
  22.440         54.17	     8.062
  22.460         48.33	     7.616
  22.480         44.17	     7.280
  22.500         59.17	     8.426
  22.520         47.50	     7.550
  22.540         57.50	     8.307
  22.560         55.00	     8.124
  22.580         51.67	     7.874
  22.600         52.50	     7.937
  22.620         54.17	     8.062
  22.640         43.33	     7.211
  22.660         39.17	     6.856
  22.680         45.83	     7.416
  22.700         39.17	     6.856
  22.720         45.83	     7.416
  22.740         44.17	     7.280
  22.760         50.00	     7.746
  22.780         40.00	     6.928
  22.800         59.17	     8.426
  22.820         46.67	     7.483
  22.840         45.83	     7.416
  22.860         60.83	     8.544
  22.880         50.83	     7.810
  22.900         54.17	     8.062
  22.920         65.00	     8.832
  22.940         79.17	     9.747
  22.960         70.83	     9.220
  22.980         84.17	    10.050
  23.000         71.67	     9.274
  23.020         80.00	     9.798
  23.040         76.67	     9.592
  23.060         64.17	     8.775
  23.080         73.33	     9.381
  23.100         82.50	     9.950
  23.120         56.67	     8.246
  23.140         53.33	     8.000
  23.160         67.50	     9.000
  23.180         57.50	     8.307
  23.200         43.33	     7.211
  23.220         40.83	     7.000
  23.240         35.00	     6.481
  23.260         50.83	     7.810
  23.280         48.33	     7.616
  23.300         55.83	     8.185
  23.320         41.67	     7.071
  23.340         54.17	     8.062
  23.360         48.33	     7.616
  23.380         40.83	     7.000
  23.400         45.83	     7.416
  23.420         50.83	     7.810
  23.440         43.33	     7.211
  23.460         51.67	     7.874
  23.480         60.00	     8.485
  23.500         57.50	     8.307
  23.520         86.67	    10.198
  23.540         95.83	    10.724
  23.560        133.33	    12.649
  23.580        125.83	    12.288
  23.600        143.33	    13.115
  23.620        150.83	    13.454
  23.640        120.00	    12.000
  23.660        125.00	    12.247
  23.680        105.00	    11.225
  23.700         94.17	    10.630
  23.720         65.83	     8.888
  23.740         64.17	     8.775
  23.760         69.17	     9.110
  23.780         78.33	     9.695
  23.800         75.83	     9.539
  23.820         64.17	     8.775
  23.840         60.00	     8.485
  23.860         84.17	    10.050
  23.880         64.17	     8.775
  23.900         65.00	     8.832
  23.920         57.50	     8.307
  23.940         55.83	     8.185
  23.960         65.83	     8.888
  23.980         70.00	     9.165
  24.000         76.67	     9.592
  24.020         68.33	     9.055
  24.040         55.83	     8.185
  24.060         78.33	     9.695
  24.080         68.33	     9.055
  24.100         72.50	     9.327
  24.120         80.83	     9.849
  24.140         64.17	     8.775
  24.160         80.00	     9.798
  24.180         86.67	    10.198
  24.200         84.17	    10.050
  24.220         95.00	    10.677
  24.240         86.67	    10.198
  24.260        104.17	    11.180
  24.280        110.00	    11.489
  24.300        115.83	    11.790
  24.320         90.83	    10.440
  24.340        110.00	    11.489
  24.360        106.67	    11.314
  24.380        107.50	    11.358
  24.400        100.00	    10.954
  24.420         94.17	    10.630
  24.440         68.33	     9.055
  24.460         72.50	     9.327
  24.480         79.17	     9.747
  24.500         96.67	    10.770
  24.520        100.83	    11.000
  24.540        145.00	    13.191
  24.560        175.83	    14.526
  24.580        218.33	    16.186
  24.600        233.33	    16.733
  24.620        298.33	    18.921
  24.640        334.17	    20.025
  24.660        272.50	    18.083
  24.680        273.33	    18.111
  24.700        231.67	    16.673
  24.720        205.00	    15.684
  24.740        200.00	    15.492
  24.760        198.33	    15.427
  24.780        155.00	    13.638
  24.800        157.50	    13.748
  24.820        160.00	    13.856
  24.840        155.83	    13.675
  24.860        145.00	    13.191
  24.880        122.50	    12.124
  24.900        120.00	    12.000
  24.920        118.33	    11.916
  24.940        106.67	    11.314
  24.960        109.17	    11.446
  24.980        110.00	    11.489
  25.000         98.33	    10.863
  25.020        105.83	    11.269
  25.040        106.67	    11.314
  25.060        130.83	    12.530
  25.080        143.33	    13.115
  25.100        160.00	    13.856
  25.120        165.00	    14.071
  25.140        168.33	    14.213
  25.160        212.50	    15.969
  25.180        225.00	    16.432
  25.200        241.67	    17.029
  25.220        197.50	    15.395
  25.240        192.50	    15.199
  25.260        151.67	    13.491
  25.280        135.00	    12.728
  25.300        133.33	    12.649
  25.320        110.00	    11.489
  25.340        112.50	    11.619
  25.360        121.67	    12.083
  25.380        127.50	    12.369
  25.400        110.83	    11.533
  25.420        124.17	    12.207
  25.440        122.50	    12.124
  25.460        141.67	    13.038
  25.480        149.17	    13.379
  25.500        173.33	    14.422
  25.520        180.00	    14.697
  25.540        143.33	    13.115
  25.560        164.17	    14.036
  25.580        141.67	    13.038
  25.600        120.00	    12.000
  25.620        115.00	    11.747
  25.640        110.83	    11.533
  25.660        125.00	    12.247
  25.680        110.83	    11.533
  25.700        121.67	    12.083
  25.720         91.67	    10.488
  25.740        113.33	    11.662
  25.760         90.00	    10.392
  25.780         75.00	     9.487
  25.800         85.00	    10.100
  25.820         79.17	     9.747
  25.840         66.67	     8.944
  25.860         60.83	     8.544
  25.880         55.00	     8.124
  25.900         51.67	     7.874
  25.920         65.00	     8.832
  25.940         58.33	     8.367
  25.960         54.17	     8.062
  25.980         59.17	     8.426
  26.000         60.00	     8.485
  26.020         51.67	     7.874
  26.040         51.67	     7.874
  26.060         60.00	     8.485
  26.080         55.00	     8.124
  26.100         60.83	     8.544
  26.120         60.83	     8.544
  26.140         56.67	     8.246
  26.160         65.83	     8.888
  26.180         63.33	     8.718
  26.200         77.50	     9.644
  26.220         65.00	     8.832
  26.240         89.17	    10.344
  26.260         79.17	     9.747
  26.280         94.17	    10.630
  26.300         79.17	     9.747
  26.320         68.33	     9.055
  26.340         84.17	    10.050
  26.360        101.67	    11.045
  26.380        109.17	    11.446
  26.400        125.83	    12.288
  26.420        139.17	    12.923
  26.440        165.00	    14.071
  26.460        234.17	    16.763
  26.480        198.33	    15.427
  26.500        218.33	    16.186
  26.520        238.33	    16.912
  26.540        247.50	    17.234
  26.560        292.50	    18.735
  26.580        551.67	    25.729
  26.600       1119.17	    36.647
  26.620       1810.00	    46.605
  26.640       2111.67	    50.339
  26.660       2372.50	    53.357
  26.680       2553.33	    55.353
  26.700       2235.83	    51.798
  26.720       1685.00	    44.967
  26.740       1476.67	    42.095
  26.760       1178.33	    37.603
  26.780        792.50	    30.838
  26.800        599.17	    26.814
  26.820        521.67	    25.020
  26.840        554.17	    25.788
  26.860        570.83	    26.173
  26.880        657.50	    28.089
  26.900        675.83	    28.478
  26.920        635.00	    27.604
  26.940        541.67	    25.495
  26.960        501.67	    24.536
  26.980        392.50	    21.703
  27.000        294.17	    18.788
  27.020        237.50	    16.882
  27.040        186.67	    14.967
  27.060        180.83	    14.731
  27.080        147.50	    13.304
  27.100        124.17	    12.207
  27.120        122.50	    12.124
  27.140        105.83	    11.269
  27.160         95.83	    10.724
  27.180         98.33	    10.863
  27.200         78.33	     9.695
  27.220         86.67	    10.198
  27.240         85.83	    10.149
  27.260         83.33	    10.000
  27.280         90.00	    10.392
  27.300         92.50	    10.536
  27.320         85.00	    10.100
  27.340         67.50	     9.000
  27.360         71.67	     9.274
  27.380         77.50	     9.644
  27.400         75.83	     9.539
  27.420        100.00	    10.954
  27.440        178.33	    14.629
  27.460        360.00	    20.785
  27.480        490.00	    24.249
  27.500        406.67	    22.091
  27.520        282.50	    18.412
  27.540        320.00	    19.596
  27.560        321.67	    19.647
  27.580        237.50	    16.882
  27.600        152.50	    13.528
  27.620        152.50	    13.528
  27.640        155.83	    13.675
  27.660        127.50	    12.369
  27.680        135.00	    12.728
  27.700        161.67	    13.928
  27.720        208.33	    15.811
  27.740        236.67	    16.852
  27.760        215.00	    16.062
  27.780        239.17	    16.941
  27.800        225.00	    16.432
  27.820        205.83	    15.716
  27.840        253.33	    17.436
  27.860        225.83	    16.462
  27.880        274.17	    18.138
  27.900        365.00	    20.928
  27.920        360.00	    20.785
  27.940        410.00	    22.181
  27.960        405.00	    22.045
  27.980        413.33	    22.271
  28.000        405.00	    22.045
  28.020        280.00	    18.330
  28.040        275.00	    18.166
  28.060        253.33	    17.436
  28.080        205.00	    15.684
  28.100        217.50	    16.155
  28.120        207.50	    15.780
  28.140        170.00	    14.283
  28.160        189.17	    15.067
  28.180        174.17	    14.457
  28.200        148.33	    13.342
  28.220        140.83	    13.000
  28.240        140.83	    13.000
  28.260        129.17	    12.450
  28.280        124.17	    12.207
  28.300        103.33	    11.136
  28.320        117.50	    11.874
  28.340        106.67	    11.314
  28.360         88.33	    10.296
  28.380         76.67	     9.592
  28.400         76.67	     9.592
  28.420         68.33	     9.055
  28.440         56.67	     8.246
  28.460         70.83	     9.220
  28.480         69.17	     9.110
  28.500         53.33	     8.000
  28.520         75.00	     9.487
  28.540         92.50	    10.536
  28.560         91.67	    10.488
  28.580        105.83	    11.269
  28.600        103.33	    11.136
  28.620        114.17	    11.705
  28.640        134.17	    12.689
  28.660        127.50	    12.369
  28.680        128.33	    12.410
  28.700        110.83	    11.533
  28.720        136.67	    12.806
  28.740        110.83	    11.533
  28.760        108.33	    11.402
  28.780        102.50	    11.091
  28.800         95.00	    10.677
  28.820         90.00	    10.392
  28.840         78.33	     9.695
  28.860         78.33	     9.695
  28.880         55.00	     8.124
  28.900         63.33	     8.718
  28.920         44.17	     7.280
  28.940         51.67	     7.874
  28.960         60.83	     8.544
  28.980         40.83	     7.000
  29.000         47.50	     7.550
  29.020         45.83	     7.416
  29.040         59.17	     8.426
  29.060         41.67	     7.071
  29.080         35.83	     6.557
  29.100         44.17	     7.280
  29.120         49.17	     7.681
  29.140         41.67	     7.071
  29.160         50.00	     7.746
  29.180         33.33	     6.325
  29.200         45.00	     7.348
  29.220         42.50	     7.141
  29.240         46.67	     7.483
  29.260         54.17	     8.062
  29.280         46.67	     7.483
  29.300         49.17	     7.681
  29.320         26.67	     5.657
  29.340         28.33	     5.831
  29.360         44.17	     7.280
  29.380         45.83	     7.416
  29.400         44.17	     7.280
  29.420         33.33	     6.325
  29.440         38.33	     6.782
  29.460         45.83	     7.416
  29.480         35.00	     6.481
  29.500         50.00	     7.746
  29.520         40.83	     7.000
  29.540         51.67	     7.874
  29.560         42.50	     7.141
  29.580         49.17	     7.681
  29.600         45.00	     7.348
  29.620         56.67	     8.246
  29.640         44.17	     7.280
  29.660         51.67	     7.874
  29.680         55.00	     8.124
  29.700         48.33	     7.616
  29.720         56.67	     8.246
  29.740         62.50	     8.660
  29.760         55.83	     8.185
  29.780         68.33	     9.055
  29.800         75.83	     9.539
  29.820         90.00	    10.392
  29.840        121.67	    12.083
  29.860        155.83	    13.675
  29.880        135.83	    12.767
  29.900        142.50	    13.077
  29.920        159.17	    13.820
  29.940        132.50	    12.610
  29.960        111.67	    11.576
  29.980        108.33	    11.402
  30.000        120.83	    12.042
  30.020        115.83	    11.790
  30.040         89.17	    10.344
  30.060         92.50	    10.536
  30.080        108.33	    11.402
  30.100        153.33	    13.565
  30.120        160.83	    13.892
  30.140        177.50	    14.595
  30.160        153.33	    13.565
  30.180        125.00	    12.247
  30.200        139.17	    12.923
  30.220        170.00	    14.283
  30.240        117.50	    11.874
  30.260        109.17	    11.446
  30.280        132.50	    12.610
  30.300        114.17	    11.705
  30.320         81.67	     9.899
  30.340         94.17	    10.630
  30.360         96.67	    10.770
  30.380         87.50	    10.247
  30.400         85.00	    10.100
  30.420         85.00	    10.100
  30.440         80.00	     9.798
  30.460         88.33	    10.296
  30.480        101.67	    11.045
  30.500         79.17	     9.747
  30.520         87.50	    10.247
  30.540        110.83	    11.533
  30.560         83.33	    10.000
  30.580         90.00	    10.392
  30.600         80.00	     9.798
  30.620         78.33	     9.695
  30.640         66.67	     8.944
  30.660         52.50	     7.937
  30.680         55.00	     8.124
  30.700         55.83	     8.185
  30.720         65.83	     8.888
  30.740         58.33	     8.367
  30.760         58.33	     8.367
  30.780         66.67	     8.944
  30.800         56.67	     8.246
  30.820         65.83	     8.888
  30.840         68.33	     9.055
  30.860         74.17	     9.434
  30.880         87.50	    10.247
  30.900         89.17	    10.344
  30.920         72.50	     9.327
  30.940         65.83	     8.888
  30.960         77.50	     9.644
  30.980         65.83	     8.888
  31.000         70.83	     9.220
  31.020         59.17	     8.426
  31.040         62.50	     8.660
  31.060         57.50	     8.307
  31.080         59.17	     8.426
  31.100         73.33	     9.381
  31.120         83.33	    10.000
  31.140         70.83	     9.220
  31.160         82.50	     9.950
  31.180         93.33	    10.583
  31.200         99.17	    10.909
  31.220         95.83	    10.724
  31.240        127.50	    12.369
  31.260        120.83	    12.042
  31.280        135.83	    12.767
  31.300        129.17	    12.450
  31.320        120.83	    12.042
  31.340        101.67	    11.045
  31.360         85.83	    10.149
  31.380         89.17	    10.344
  31.400         83.33	    10.000
  31.420         70.00	     9.165
  31.440         82.50	     9.950
  31.460         74.17	     9.434
  31.480         76.67	     9.592
  31.500         75.83	     9.539
  31.520         76.67	     9.592
  31.540         85.00	    10.100
  31.560         75.83	     9.539
  31.580         94.17	    10.630
  31.600         67.50	     9.000
  31.620         75.83	     9.539
  31.640         70.00	     9.165
  31.660         72.50	     9.327
  31.680         65.83	     8.888
  31.700         64.17	     8.775
  31.720         52.50	     7.937
  31.740         40.00	     6.928
  31.760         45.83	     7.416
  31.780         51.67	     7.874
  31.800         44.17	     7.280
  31.820         45.00	     7.348
  31.840         51.67	     7.874
  31.860         34.17	     6.403
  31.880         50.83	     7.810
  31.900         45.00	     7.348
  31.920         48.33	     7.616
  31.940         62.50	     8.660
  31.960         51.67	     7.874
  31.980         60.00	     8.485
  32.000         45.83	     7.416
  32.020         54.17	     8.062
  32.040         68.33	     9.055
  32.060         86.67	    10.198
  32.080         75.83	     9.539
  32.100         78.33	     9.695
  32.120         92.50	    10.536
  32.140         79.17	     9.747
  32.160         72.50	     9.327
  32.180         87.50	    10.247
  32.200         50.83	     7.810
  32.220         65.00	     8.832
  32.240         73.33	     9.381
  32.260         46.67	     7.483
  32.280         50.83	     7.810
  32.300         49.17	     7.681
  32.320         54.17	     8.062
  32.340         44.17	     7.280
  32.360         50.00	     7.746
  32.380         50.00	     7.746
  32.400         32.50	     6.245
  32.420         45.83	     7.416
  32.440         40.83	     7.000
  32.460         30.00	     6.000
  32.480         39.17	     6.856
  32.500         35.83	     6.557
  32.520         30.00	     6.000
  32.540         48.33	     7.616
  32.560         32.50	     6.245
  32.580         41.67	     7.071
  32.600         37.50	     6.708
  32.620         30.00	     6.000
  32.640         30.83	     6.083
  32.660         25.00	     5.477
  32.680         31.67	     6.164
  32.700         28.33	     5.831
  32.720         32.50	     6.245
  32.740         28.33	     5.831
  32.760         22.50	     5.196
  32.780         33.33	     6.325
  32.800         30.83	     6.083
  32.820         25.83	     5.568
  32.840         25.00	     5.477
  32.860         42.50	     7.141
  32.880         40.00	     6.928
  32.900         33.33	     6.325
  32.920         45.00	     7.348
  32.940         40.00	     6.928
  32.960         37.50	     6.708
  32.980         41.67	     7.071
  33.000         44.17	     7.280
  33.020         40.00	     6.928
  33.040         44.17	     7.280
  33.060         60.83	     8.544
  33.080         68.33	     9.055
  33.100         54.17	     8.062
  33.120         60.83	     8.544
  33.140         60.83	     8.544
  33.160         55.83	     8.185
  33.180         71.67	     9.274
  33.200         69.17	     9.110
  33.220         50.00	     7.746
  33.240         47.50	     7.550
  33.260         43.33	     7.211
  33.280         47.50	     7.550
  33.300         38.33	     6.782
  33.320         36.67	     6.633
  33.340         36.67	     6.633
  33.360         50.00	     7.746
  33.380         45.83	     7.416
  33.400         51.67	     7.874
  33.420         37.50	     6.708
  33.440         46.67	     7.483
  33.460         35.83	     6.557
  33.480         42.50	     7.141
  33.500         49.17	     7.681
  33.520         29.17	     5.916
  33.540         36.67	     6.633
  33.560         37.50	     6.708
  33.580         45.00	     7.348
  33.600         41.67	     7.071
  33.620         35.83	     6.557
  33.640         40.00	     6.928
  33.660         30.00	     6.000
  33.680         34.17	     6.403
  33.700         34.17	     6.403
  33.720         38.33	     6.782
  33.740         45.83	     7.416
  33.760         29.17	     5.916
  33.780         29.17	     5.916
  33.800         34.17	     6.403
  33.820         37.50	     6.708
  33.840         43.33	     7.211
  33.860         33.33	     6.325
  33.880         45.00	     7.348
  33.900         48.33	     7.616
  33.920         49.17	     7.681
  33.940         39.17	     6.856
  33.960         47.50	     7.550
  33.980         50.00	     7.746
  34.000         65.83	     8.888
  34.020         65.83	     8.888
  34.040         78.33	     9.695
  34.060         50.83	     7.810
  34.080         55.00	     8.124
  34.100         48.33	     7.616
  34.120         55.83	     8.185
  34.140         48.33	     7.616
  34.160         33.33	     6.325
  34.180         55.00	     8.124
  34.200         48.33	     7.616
  34.220         50.83	     7.810
  34.240         39.17	     6.856
  34.260         36.67	     6.633
  34.280         47.50	     7.550
  34.300         40.00	     6.928
  34.320         48.33	     7.616
  34.340         49.17	     7.681
  34.360         48.33	     7.616
  34.380         51.67	     7.874
  34.400         43.33	     7.211
  34.420         47.50	     7.550
  34.440         50.83	     7.810
  34.460         60.00	     8.485
  34.480         60.83	     8.544
  34.500         55.83	     8.185
  34.520         70.83	     9.220
  34.540         66.67	     8.944
  34.560         77.50	     9.644
  34.580         88.33	    10.296
  34.600         95.83	    10.724
  34.620        125.00	    12.247
  34.640        113.33	    11.662
  34.660         99.17	    10.909
  34.680        105.00	    11.225
  34.700        110.00	    11.489
  34.720         96.67	    10.770
  34.740        115.00	    11.747
  34.760        127.50	    12.369
  34.780        134.17	    12.689
  34.800        109.17	    11.446
  34.820         87.50	    10.247
  34.840         94.17	    10.630
  34.860         87.50	    10.247
  34.880         97.50	    10.817
  34.900         86.67	    10.198
  34.920         71.67	     9.274
  34.940         85.00	    10.100
  34.960         75.00	     9.487
  34.980         83.33	    10.000
  35.000        125.83	    12.288
  35.020        114.17	    11.705
  35.040        130.00	    12.490
  35.060        129.17	    12.450
  35.080        135.00	    12.728
  35.100        119.17	    11.958
  35.120        113.33	    11.662
  35.140        118.33	    11.916
  35.160         94.17	    10.630
  35.180         76.67	     9.592
  35.200         85.00	    10.100
  35.220         62.50	     8.660
  35.240         70.00	     9.165
  35.260         60.83	     8.544
  35.280         60.83	     8.544
  35.300         71.67	     9.274
  35.320         59.17	     8.426
  35.340         59.17	     8.426
  35.360         74.17	     9.434
  35.380         72.50	     9.327
  35.400         64.17	     8.775
  35.420         75.83	     9.539
  35.440         77.50	     9.644
  35.460         75.00	     9.487
  35.480         89.17	    10.344
  35.500         87.50	    10.247
  35.520         90.83	    10.440
  35.540        108.33	    11.402
  35.560        134.17	    12.689
  35.580        110.00	    11.489
  35.600        100.00	    10.954
  35.620        104.17	    11.180
  35.640        100.83	    11.000
  35.660        116.67	    11.832
  35.680        115.00	    11.747
  35.700         98.33	    10.863
  35.720        118.33	    11.916
  35.740        142.50	    13.077
  35.760        210.00	    15.875
  35.780        140.83	    13.000
  35.800         90.83	    10.440
  35.820        111.67	    11.576
  35.840        122.50	    12.124
  35.860        118.33	    11.916
  35.880         75.00	     9.487
  35.900         78.33	     9.695
  35.920         79.17	     9.747
  35.940         81.67	     9.899
  35.960         80.00	     9.798
  35.980         80.83	     9.849
  36.000        104.17	    11.180
  36.020         71.67	     9.274
  36.040         70.00	     9.165
  36.060         75.83	     9.539
  36.080         86.67	    10.198
  36.100         89.17	    10.344
  36.120         90.00	    10.392
  36.140        100.00	    10.954
  36.160         78.33	     9.695
  36.180         87.50	    10.247
  36.200         80.83	     9.849
  36.220         71.67	     9.274
  36.240         70.00	     9.165
  36.260         47.50	     7.550
  36.280         58.33	     8.367
  36.300         47.50	     7.550
  36.320         42.50	     7.141
  36.340         46.67	     7.483
  36.360         52.50	     7.937
  36.380         64.17	     8.775
  36.400         49.17	     7.681
  36.420         60.83	     8.544
  36.440         53.33	     8.000
  36.460         62.50	     8.660
  36.480         78.33	     9.695
  36.500        100.00	    10.954
  36.520        102.50	    11.091
  36.540        165.83	    14.107
  36.560        215.00	    16.062
  36.580        260.83	    17.692
  36.600        278.33	    18.276
  36.620        290.83	    18.682
  36.640        310.00	    19.287
  36.660        334.17	    20.025
  36.680        320.83	    19.621
  36.700        268.33	    17.944
  36.720        207.50	    15.780
  36.740        195.00	    15.297
  36.760        190.83	    15.133
  36.780        185.00	    14.900
  36.800        145.83	    13.229
  36.820        122.50	    12.124
  36.840         90.83	    10.440
  36.860         86.67	    10.198
  36.880         85.83	    10.149
  36.900         84.17	    10.050
  36.920         71.67	     9.274
  36.940         65.00	     8.832
  36.960         61.67	     8.602
  36.980         64.17	     8.775
  37.000         50.83	     7.810
  37.020         45.83	     7.416
  37.040         50.00	     7.746
  37.060         45.83	     7.416
  37.080         55.83	     8.185
  37.100         53.33	     8.000
  37.120         45.83	     7.416
  37.140         57.50	     8.307
  37.160         57.50	     8.307
  37.180         35.83	     6.557
  37.200         51.67	     7.874
  37.220         47.50	     7.550
  37.240         56.67	     8.246
  37.260         45.83	     7.416
  37.280         54.17	     8.062
  37.300         50.83	     7.810
  37.320         55.00	     8.124
  37.340         45.00	     7.348
  37.360         48.33	     7.616
  37.380         63.33	     8.718
  37.400         56.67	     8.246
  37.420         58.33	     8.367
  37.440         68.33	     9.055
  37.460         58.33	     8.367
  37.480         69.17	     9.110
  37.500         56.67	     8.246
  37.520         54.17	     8.062
  37.540         69.17	     9.110
  37.560         53.33	     8.000
  37.580        109.17	    11.446
  37.600        113.33	    11.662
  37.620        100.00	    10.954
  37.640         96.67	    10.770
  37.660         77.50	     9.644
  37.680         99.17	    10.909
  37.700         92.50	    10.536
  37.720         90.83	    10.440
  37.740         88.33	    10.296
  37.760         75.83	     9.539
  37.780         76.67	     9.592
  37.800         69.17	     9.110
  37.820         63.33	     8.718
  37.840         65.00	     8.832
  37.860         41.67	     7.071
  37.880         48.33	     7.616
  37.900         38.33	     6.782
  37.920         47.50	     7.550
  37.940         49.17	     7.681
  37.960         45.00	     7.348
  37.980         41.67	     7.071
  38.000         48.33	     7.616
  38.020         53.33	     8.000
  38.040         62.50	     8.660
  38.060         52.50	     7.937
  38.080         66.67	     8.944
  38.100         58.33	     8.367
  38.120         52.50	     7.937
  38.140         50.00	     7.746
  38.160         49.17	     7.681
  38.180         59.17	     8.426
  38.200         47.50	     7.550
  38.220         46.67	     7.483
  38.240         32.50	     6.245
  38.260         41.67	     7.071
  38.280         31.67	     6.164
  38.300         39.17	     6.856
  38.320         40.00	     6.928
  38.340         41.67	     7.071
  38.360         42.50	     7.141
  38.380         30.83	     6.083
  38.400         34.17	     6.403
  38.420         33.33	     6.325
  38.440         35.83	     6.557
  38.460         59.17	     8.426
  38.480         27.50	     5.745
  38.500         45.83	     7.416
  38.520         46.67	     7.483
  38.540         49.17	     7.681
  38.560         36.67	     6.633
  38.580         42.50	     7.141
  38.600         35.00	     6.481
  38.620         48.33	     7.616
  38.640         53.33	     8.000
  38.660         41.67	     7.071
  38.680         46.67	     7.483
  38.700         40.83	     7.000
  38.720         46.67	     7.483
  38.740         71.67	     9.274
  38.760         69.17	     9.110
  38.780         69.17	     9.110
  38.800         74.17	     9.434
  38.820         82.50	     9.950
  38.840         76.67	     9.592
  38.860         62.50	     8.660
  38.880         72.50	     9.327
  38.900         94.17	    10.630
  38.920         56.67	     8.246
  38.940         40.83	     7.000
  38.960         45.00	     7.348
  38.980         41.67	     7.071
  39.000         50.00	     7.746
  39.020         35.00	     6.481
  39.040         40.83	     7.000
  39.060         40.00	     6.928
  39.080         44.17	     7.280
  39.100         45.83	     7.416
  39.120         43.33	     7.211
  39.140         45.83	     7.416
  39.160         41.67	     7.071
  39.180         45.83	     7.416
  39.200         53.33	     8.000
  39.220         34.17	     6.403
  39.240         44.17	     7.280
  39.260         46.67	     7.483
  39.280         40.83	     7.000
  39.300         40.83	     7.000
  39.320         35.83	     6.557
  39.340         45.00	     7.348
  39.360         30.83	     6.083
  39.380         35.00	     6.481
  39.400         37.50	     6.708
  39.420         50.00	     7.746
  39.440         57.50	     8.307
  39.460         90.83	    10.440
  39.480        117.50	    11.874
  39.500        118.33	    11.916
  39.520        110.83	    11.533
  39.540         84.17	    10.050
  39.560         87.50	    10.247
  39.580        105.83	    11.269
  39.600         96.67	    10.770
  39.620         80.83	     9.849
  39.640         75.00	     9.487
  39.660         59.17	     8.426
  39.680         66.67	     8.944
  39.700         49.17	     7.681
  39.720         57.50	     8.307
  39.740         48.33	     7.616
  39.760         41.67	     7.071
  39.780         59.17	     8.426
  39.800         57.50	     8.307
  39.820         60.00	     8.485
  39.840         47.50	     7.550
  39.860         39.17	     6.856
  39.880         39.17	     6.856
  39.900         54.17	     8.062
  39.920         40.83	     7.000
  39.940         35.00	     6.481
  39.960         25.83	     5.568
  39.980         39.17	     6.856
  40.000         47.50	     7.550
  40.020         51.67	     7.874
  40.040         35.00	     6.481
  40.060         40.83	     7.000
  40.080         44.17	     7.280
  40.100         42.50	     7.141
  40.120         35.83	     6.557
  40.140         36.67	     6.633
  40.160         40.00	     6.928
  40.180         38.33	     6.782
  40.200         39.17	     6.856
  40.220         38.33	     6.782
  40.240         50.00	     7.746
  40.260         64.17	     8.775
  40.280         90.00	    10.392
  40.300         89.17	    10.344
  40.320        120.83	    12.042
  40.340        105.00	    11.225
  40.360         90.83	    10.440
  40.380         93.33	    10.583
  40.400        110.00	    11.489
  40.420         83.33	    10.000
  40.440         75.83	     9.539
  40.460         70.83	     9.220
  40.480         58.33	     8.367
  40.500         57.50	     8.307
  40.520         43.33	     7.211
  40.540         39.17	     6.856
  40.560         45.00	     7.348
  40.580         42.50	     7.141
  40.600         48.33	     7.616
  40.620         43.33	     7.211
  40.640         30.83	     6.083
  40.660         33.33	     6.325
  40.680         40.00	     6.928
  40.700         25.83	     5.568
  40.720         40.83	     7.000
  40.740         35.83	     6.557
  40.760         35.83	     6.557
  40.780         33.33	     6.325
  40.800         40.83	     7.000
  40.820         50.00	     7.746
  40.840         30.00	     6.000
  40.860         38.33	     6.782
  40.880         41.67	     7.071
  40.900         47.50	     7.550
  40.920         48.33	     7.616
  40.940         42.50	     7.141
  40.960         41.67	     7.071
  40.980         41.67	     7.071
  41.000         32.50	     6.245
  41.020         44.17	     7.280
  41.040         39.17	     6.856
  41.060         40.00	     6.928
  41.080         36.67	     6.633
  41.100         37.50	     6.708
  41.120         37.50	     6.708
  41.140         35.83	     6.557
  41.160         35.83	     6.557
  41.180         47.50	     7.550
  41.200         31.67	     6.164
  41.220         45.83	     7.416
  41.240         38.33	     6.782
  41.260         32.50	     6.245
  41.280         34.17	     6.403
  41.300         43.33	     7.211
  41.320         43.33	     7.211
  41.340         35.00	     6.481
  41.360         44.17	     7.280
  41.380         40.83	     7.000
  41.400         41.67	     7.071
  41.420         43.33	     7.211
  41.440         40.83	     7.000
  41.460         34.17	     6.403
  41.480         45.00	     7.348
  41.500         38.33	     6.782
  41.520         40.00	     6.928
  41.540         39.17	     6.856
  41.560         38.33	     6.782
  41.580         47.50	     7.550
  41.600         38.33	     6.782
  41.620         45.83	     7.416
  41.640         40.00	     6.928
  41.660         50.83	     7.810
  41.680         64.17	     8.775
  41.700         64.17	     8.775
  41.720         65.83	     8.888
  41.740         79.17	     9.747
  41.760         75.83	     9.539
  41.780         66.67	     8.944
  41.800         86.67	    10.198
  41.820         70.00	     9.165
  41.840         67.50	     9.000
  41.860         57.50	     8.307
  41.880         55.00	     8.124
  41.900         57.50	     8.307
  41.920         57.50	     8.307
  41.940         72.50	     9.327
  41.960         70.00	     9.165
  41.980         81.67	     9.899
  42.000         72.50	     9.327
  42.020         46.67	     7.483
  42.040         83.33	    10.000
  42.060         67.50	     9.000
  42.080         64.17	     8.775
  42.100         49.17	     7.681
  42.120         52.50	     7.937
  42.140         52.50	     7.937
  42.160         47.50	     7.550
  42.180         41.67	     7.071
  42.200         43.33	     7.211
  42.220         42.50	     7.141
  42.240         44.17	     7.280
  42.260         52.50	     7.937
  42.280         54.17	     8.062
  42.300         50.83	     7.810
  42.320         67.50	     9.000
  42.340         67.50	     9.000
  42.360         81.67	     9.899
  42.380         90.00	    10.392
  42.400         90.83	    10.440
  42.420        103.33	    11.136
  42.440        167.50	    14.177
  42.460        195.83	    15.330
  42.480        191.67	    15.166
  42.500        140.00	    12.961
  42.520        139.17	    12.923
  42.540        137.50	    12.845
  42.560        147.50	    13.304
  42.580        138.33	    12.884
  42.600        125.00	    12.247
  42.620        122.50	    12.124
  42.640         90.00	    10.392
  42.660         65.00	     8.832
  42.680         61.67	     8.602
  42.700         65.83	     8.888
  42.720         65.83	     8.888
  42.740         56.67	     8.246
  42.760         35.00	     6.481
  42.780         55.83	     8.185
  42.800         57.50	     8.307
  42.820         43.33	     7.211
  42.840         48.33	     7.616
  42.860         49.17	     7.681
  42.880         51.67	     7.874
  42.900         44.17	     7.280
  42.920         45.00	     7.348
  42.940         35.83	     6.557
  42.960         40.83	     7.000
  42.980         42.50	     7.141
  43.000         49.17	     7.681
  43.020         49.17	     7.681
  43.040         55.00	     8.124
  43.060         60.00	     8.485
  43.080         48.33	     7.616
  43.100         48.33	     7.616
  43.120         40.83	     7.000
  43.140         50.00	     7.746
  43.160         60.83	     8.544
  43.180         35.00	     6.481
  43.200         36.67	     6.633
  43.220         38.33	     6.782
  43.240         31.67	     6.164
  43.260         32.50	     6.245
  43.280         41.67	     7.071
  43.300         35.83	     6.557
  43.320         30.83	     6.083
  43.340         30.00	     6.000
  43.360         32.50	     6.245
  43.380         36.67	     6.633
  43.400         33.33	     6.325
  43.420         42.50	     7.141
  43.440         37.50	     6.708
  43.460         43.33	     7.211
  43.480         42.50	     7.141
  43.500         40.83	     7.000
  43.520         51.67	     7.874
  43.540         58.33	     8.367
  43.560         60.00	     8.485
  43.580         62.50	     8.660
  43.600         58.33	     8.367
  43.620         64.17	     8.775
  43.640         49.17	     7.681
  43.660         45.83	     7.416
  43.680         45.00	     7.348
  43.700         52.50	     7.937
  43.720         35.83	     6.557
  43.740         37.50	     6.708
  43.760         43.33	     7.211
  43.780         45.00	     7.348
  43.800         35.83	     6.557
  43.820         35.83	     6.557
  43.840         43.33	     7.211
  43.860         35.00	     6.481
  43.880         38.33	     6.782
  43.900         40.00	     6.928
  43.920         34.17	     6.403
  43.940         34.17	     6.403
  43.960         40.83	     7.000
  43.980         35.83	     6.557
  44.000         25.00	     5.477
  44.020         29.17	     5.916
  44.040         35.83	     6.557
  44.060         33.33	     6.325
  44.080         34.17	     6.403
  44.100         28.33	     5.831
  44.120         37.50	     6.708
  44.140         32.50	     6.245
  44.160         44.17	     7.280
  44.180         37.50	     6.708
  44.200         41.67	     7.071
  44.220         50.83	     7.810
  44.240         70.83	     9.220
  44.260         66.67	     8.944
  44.280         65.00	     8.832
  44.300         50.00	     7.746
  44.320         40.00	     6.928
  44.340         40.00	     6.928
  44.360         65.83	     8.888
  44.380         45.83	     7.416
  44.400         50.83	     7.810
  44.420         39.17	     6.856
  44.440         37.50	     6.708
  44.460         44.17	     7.280
  44.480         34.17	     6.403
  44.500         40.00	     6.928
  44.520         41.67	     7.071
  44.540         35.83	     6.557
  44.560         35.83	     6.557
  44.580         43.33	     7.211
  44.600         40.00	     6.928
  44.620         33.33	     6.325
  44.640         36.67	     6.633
  44.660         26.67	     5.657
  44.680         39.17	     6.856
  44.700         25.00	     5.477
  44.720         37.50	     6.708
  44.740         31.67	     6.164
  44.760         41.67	     7.071
  44.780         28.33	     5.831
  44.800         37.50	     6.708
  44.820         37.50	     6.708
  44.840         31.67	     6.164
  44.860         49.17	     7.681
  44.880         58.33	     8.367
  44.900         44.17	     7.280
  44.920         55.83	     8.185
  44.940         50.00	     7.746
  44.960         50.83	     7.810
  44.980         59.17	     8.426
  45.000         55.00	     8.124
  45.020         52.50	     7.937
  45.040         46.67	     7.483
  45.060         46.67	     7.483
  45.080         67.50	     9.000
  45.100         54.17	     8.062
  45.120         70.83	     9.220
  45.140         57.50	     8.307
  45.160         61.67	     8.602
  45.180         46.67	     7.483
  45.200         57.50	     8.307
  45.220         54.17	     8.062
  45.240         61.67	     8.602
  45.260         53.33	     8.000
  45.280         63.33	     8.718
  45.300         69.17	     9.110
  45.320         61.67	     8.602
  45.340         60.83	     8.544
  45.360         81.67	     9.899
  45.380         74.17	     9.434
  45.400         82.50	     9.950
  45.420         80.00	     9.798
  45.440        101.67	    11.045
  45.460        113.33	    11.662
  45.480        124.17	    12.207
  45.500        134.17	    12.689
  45.520        140.00	    12.961
  45.540        176.67	    14.560
  45.560        202.50	    15.588
  45.580        240.00	    16.971
  45.600        298.33	    18.921
  45.620        317.50	    19.519
  45.640        304.17	    19.105
  45.660        254.17	    17.464
  45.680        235.00	    16.793
  45.700        203.33	    15.620
  45.720        199.17	    15.460
  45.740        221.67	    16.310
  45.760        190.83	    15.133
  45.780        159.17	    13.820
  45.800        141.67	    13.038
  45.820        138.33	    12.884
  45.840        128.33	    12.410
  45.860        139.17	    12.923
  45.880        107.50	    11.358
  45.900         95.83	    10.724
  45.920         82.50	     9.950
  45.940         83.33	    10.000
  45.960         87.50	    10.247
  45.980         74.17	     9.434
  46.000         74.17	     9.434
  46.020         66.67	     8.944
  46.040         55.00	     8.124
  46.060         50.83	     7.810
  46.080         59.17	     8.426
  46.100         49.17	     7.681
  46.120         50.83	     7.810
  46.140         43.33	     7.211
  46.160         55.00	     8.124
  46.180         50.83	     7.810
  46.200         51.67	     7.874
  46.220         50.00	     7.746
  46.240         40.83	     7.000
  46.260         37.50	     6.708
  46.280         35.83	     6.557
  46.300         45.83	     7.416
  46.320         48.33	     7.616
  46.340         40.00	     6.928
  46.360         36.67	     6.633
  46.380         30.00	     6.000
  46.400         36.67	     6.633
  46.420         37.50	     6.708
  46.440         25.83	     5.568
  46.460         42.50	     7.141
  46.480         28.33	     5.831
  46.500         28.33	     5.831
  46.520         37.50	     6.708
  46.540         33.33	     6.325
  46.560         27.50	     5.745
  46.580         39.17	     6.856
  46.600         35.00	     6.481
  46.620         27.50	     5.745
  46.640         37.50	     6.708
  46.660         37.50	     6.708
  46.680         30.00	     6.000
  46.700         38.33	     6.782
  46.720         30.00	     6.000
  46.740         39.17	     6.856
  46.760         29.17	     5.916
  46.780         33.33	     6.325
  46.800         24.17	     5.385
  46.820         25.83	     5.568
  46.840         36.67	     6.633
  46.860         29.17	     5.916
  46.880         23.33	     5.292
  46.900         23.33	     5.292
  46.920         28.33	     5.831
  46.940         33.33	     6.325
  46.960         30.00	     6.000
  46.980         24.17	     5.385
  47.000         35.00	     6.481
  47.020         25.83	     5.568
  47.040         24.17	     5.385
  47.060         37.50	     6.708
  47.080         37.50	     6.708
  47.100         36.67	     6.633
  47.120         36.67	     6.633
  47.140         38.33	     6.782
  47.160         38.33	     6.782
  47.180         45.83	     7.416
  47.200         40.00	     6.928
  47.220         36.67	     6.633
  47.240         32.50	     6.245
  47.260         35.83	     6.557
  47.280         45.00	     7.348
  47.300         35.00	     6.481
  47.320         30.00	     6.000
  47.340         40.00	     6.928
  47.360         29.17	     5.916
  47.380         30.83	     6.083
  47.400         29.17	     5.916
  47.420         24.17	     5.385
  47.440         33.33	     6.325
  47.460         25.00	     5.477
  47.480         32.50	     6.245
  47.500         35.83	     6.557
  47.520         30.83	     6.083
  47.540         25.00	     5.477
  47.560         38.33	     6.782
  47.580         26.67	     5.657
  47.600         35.00	     6.481
  47.620         24.17	     5.385
  47.640         51.67	     7.874
  47.660         25.83	     5.568
  47.680         29.17	     5.916
  47.700         17.50	     4.583
  47.720         30.00	     6.000
  47.740         24.17	     5.385
  47.760         38.33	     6.782
  47.780         35.83	     6.557
  47.800         29.17	     5.916
  47.820         31.67	     6.164
  47.840         22.50	     5.196
  47.860         35.00	     6.481
  47.880         30.00	     6.000
  47.900         35.83	     6.557
  47.920         40.00	     6.928
  47.940         47.50	     7.550
  47.960         61.67	     8.602
  47.980         59.17	     8.426
  48.000         58.33	     8.367
  48.020         67.50	     9.000
  48.040         45.83	     7.416
  48.060         62.50	     8.660
  48.080         55.00	     8.124
  48.100         45.83	     7.416
  48.120         56.67	     8.246
  48.140         46.67	     7.483
  48.160         51.67	     7.874
  48.180         47.50	     7.550
  48.200         41.67	     7.071
  48.220         45.83	     7.416
  48.240         55.00	     8.124
  48.260         43.33	     7.211
  48.280         53.33	     8.000
  48.300         33.33	     6.325
  48.320         50.00	     7.746
  48.340         59.17	     8.426
  48.360         52.50	     7.937
  48.380         60.83	     8.544
  48.400         55.83	     8.185
  48.420         29.17	     5.916
  48.440         39.17	     6.856
  48.460         52.50	     7.937
  48.480         34.17	     6.403
  48.500         45.00	     7.348
  48.520         44.17	     7.280
  48.540         35.00	     6.481
  48.560         45.00	     7.348
  48.580         42.50	     7.141
  48.600         35.83	     6.557
  48.620         38.33	     6.782
  48.640         44.17	     7.280
  48.660         40.00	     6.928
  48.680         44.17	     7.280
  48.700         45.83	     7.416
  48.720         29.17	     5.916
  48.740         45.83	     7.416
  48.760         30.00	     6.000
  48.780         31.67	     6.164
  48.800         27.50	     5.745
  48.820         29.17	     5.916
  48.840         46.67	     7.483
  48.860         29.17	     5.916
  48.880         34.17	     6.403
  48.900         28.33	     5.831
  48.920         30.00	     6.000
  48.940         28.33	     5.831
  48.960         40.83	     7.000
  48.980         28.33	     5.831
  49.000         36.67	     6.633
  49.020         43.33	     7.211
  49.040         40.83	     7.000
  49.060         37.50	     6.708
  49.080         41.67	     7.071
  49.100         35.83	     6.557
  49.120         41.67	     7.071
  49.140         32.50	     6.245
  49.160         34.17	     6.403
  49.180         35.83	     6.557
  49.200         35.83	     6.557
  49.220         56.67	     8.246
  49.240        109.17	    11.446
  49.260        128.33	    12.410
  49.280        113.33	    11.662
  49.300         75.00	     9.487
  49.320         42.50	     7.141
  49.340         46.67	     7.483
  49.360         64.17	     8.775
  49.380         92.50	    10.536
  49.400         80.00	     9.798
  49.420         70.00	     9.165
  49.440         55.83	     8.185
  49.460         47.50	     7.550
  49.480         48.33	     7.616
  49.500         37.50	     6.708
  49.520         48.33	     7.616
  49.540         45.83	     7.416
  49.560         44.17	     7.280
  49.580         49.17	     7.681
  49.600         54.17	     8.062
  49.620         54.17	     8.062
  49.640         67.50	     9.000
  49.660         66.67	     8.944
  49.680         53.33	     8.000
  49.700         43.33	     7.211
  49.720         54.17	     8.062
  49.740         55.83	     8.185
  49.760         60.00	     8.485
  49.780         48.33	     7.616
  49.800         53.33	     8.000
  49.820         60.00	     8.485
  49.840         51.67	     7.874
  49.860         57.50	     8.307
  49.880         55.83	     8.185
  49.900         55.83	     8.185
  49.920         65.00	     8.832
  49.940         64.17	     8.775
  49.960         61.67	     8.602
  49.980         75.83	     9.539
  50.000         63.33	     8.718
  50.020         68.33	     9.055
  50.040         67.50	     9.000
  50.060         84.17	    10.050
  50.080         90.83	    10.440
  50.100        146.67	    13.266
  50.120        202.50	    15.588
  50.140        289.17	    18.628
  50.160        312.50	    19.365
  50.180        219.17	    16.217
  50.200        156.67	    13.711
  50.220        152.50	    13.528
  50.240        180.00	    14.697
  50.260        206.67	    15.748
  50.280        246.67	    17.205
  50.300        204.17	    15.652
  50.320        127.50	    12.369
  50.340        110.00	    11.489
  50.360        101.67	    11.045
  50.380         80.00	     9.798
  50.400         60.00	     8.485
  50.420         65.83	     8.888
  50.440         39.17	     6.856
  50.460         57.50	     8.307
  50.480         42.50	     7.141
  50.500         53.33	     8.000
  50.520         68.33	     9.055
  50.540         82.50	     9.950
  50.560        158.33	    13.784
  50.580        184.17	    14.866
  50.600        128.33	    12.410
  50.620        102.50	    11.091
  50.640         65.83	     8.888
  50.660         76.67	     9.592
  50.680        105.83	    11.269
  50.700        131.67	    12.570
  50.720        144.17	    13.153
  50.740        106.67	    11.314
  50.760         78.33	     9.695
  50.780         61.67	     8.602
  50.800         69.17	     9.110
  50.820         64.17	     8.775
  50.840         60.00	     8.485
  50.860         55.00	     8.124
  50.880         46.67	     7.483
  50.900         50.83	     7.810
  50.920         38.33	     6.782
  50.940         39.17	     6.856
  50.960         35.00	     6.481
  50.980         34.17	     6.403
  51.000         31.67	     6.164
  51.020         25.00	     5.477
  51.040         39.17	     6.856
  51.060         38.33	     6.782
  51.080         33.33	     6.325
  51.100         37.50	     6.708
  51.120         40.83	     7.000
  51.140         52.50	     7.937
  51.160         64.17	     8.775
  51.180         60.00	     8.485
  51.200         51.67	     7.874
  51.220         62.50	     8.660
  51.240         42.50	     7.141
  51.260         56.67	     8.246
  51.280         49.17	     7.681
  51.300         53.33	     8.000
  51.320         58.33	     8.367
  51.340         45.83	     7.416
  51.360         51.67	     7.874
  51.380         56.67	     8.246
  51.400         48.33	     7.616
  51.420         27.50	     5.745
  51.440         23.33	     5.292
  51.460         42.50	     7.141
  51.480         37.50	     6.708
  51.500         40.83	     7.000
  51.520         25.00	     5.477
  51.540         35.83	     6.557
  51.560         25.83	     5.568
  51.580         30.00	     6.000
  51.600         41.67	     7.071
  51.620         30.83	     6.083
  51.640         25.83	     5.568
  51.660         30.00	     6.000
  51.680         29.17	     5.916
  51.700         30.00	     6.000
  51.720         35.00	     6.481
  51.740         39.17	     6.856
  51.760         26.67	     5.657
  51.780         30.00	     6.000
  51.800         26.67	     5.657
  51.820         27.50	     5.745
  51.840         25.83	     5.568
  51.860         32.50	     6.245
  51.880         25.83	     5.568
  51.900         27.50	     5.745
  51.920         35.83	     6.557
  51.940         36.67	     6.633
  51.960         26.67	     5.657
  51.980         25.00	     5.477
  52.000         24.17	     5.385
  52.020         23.33	     5.292
  52.040         35.83	     6.557
  52.060         33.33	     6.325
  52.080         36.67	     6.633
  52.100         41.67	     7.071
  52.120         41.67	     7.071
  52.140         52.50	     7.937
  52.160         41.67	     7.071
  52.180         44.17	     7.280
  52.200         25.00	     5.477
  52.220         39.17	     6.856
  52.240         41.67	     7.071
  52.260         52.50	     7.937
  52.280         50.00	     7.746
  52.300         38.33	     6.782
  52.320         39.17	     6.856
  52.340         45.00	     7.348
  52.360         44.17	     7.280
  52.380         47.50	     7.550
  52.400         48.33	     7.616
  52.420         40.00	     6.928
  52.440         44.17	     7.280
  52.460         50.83	     7.810
  52.480         54.17	     8.062
  52.500         39.17	     6.856
  52.520         52.50	     7.937
  52.540         49.17	     7.681
  52.560         41.67	     7.071
  52.580         57.50	     8.307
  52.600         40.83	     7.000
  52.620         38.33	     6.782
  52.640         33.33	     6.325
  52.660         49.17	     7.681
  52.680         45.83	     7.416
  52.700         41.67	     7.071
  52.720         37.50	     6.708
  52.740         35.00	     6.481
  52.760         40.00	     6.928
  52.780         38.33	     6.782
  52.800         33.33	     6.325
  52.820         40.83	     7.000
  52.840         45.83	     7.416
  52.860         44.17	     7.280
  52.880         36.67	     6.633
  52.900         28.33	     5.831
  52.920         48.33	     7.616
  52.940         40.00	     6.928
  52.960         46.67	     7.483
  52.980         40.00	     6.928
  53.000         38.33	     6.782
  53.020         43.33	     7.211
  53.040         36.67	     6.633
  53.060         46.67	     7.483
  53.080         30.83	     6.083
  53.100         35.00	     6.481
  53.120         38.33	     6.782
  53.140         46.67	     7.483
  53.160         39.17	     6.856
  53.180         40.00	     6.928
  53.200         45.83	     7.416
  53.220         45.83	     7.416
  53.240         45.00	     7.348
  53.260         47.50	     7.550
  53.280         52.50	     7.937
  53.300         67.50	     9.000
  53.320         70.83	     9.220
  53.340         54.17	     8.062
  53.360         41.67	     7.071
  53.380         47.50	     7.550
  53.400         40.83	     7.000
  53.420         49.17	     7.681
  53.440         51.67	     7.874
  53.460         44.17	     7.280
  53.480         50.00	     7.746
  53.500         45.00	     7.348
  53.520         31.67	     6.164
  53.540         34.17	     6.403
  53.560         27.50	     5.745
  53.580         25.00	     5.477
  53.600         37.50	     6.708
  53.620         27.50	     5.745
  53.640         31.67	     6.164
  53.660         27.50	     5.745
  53.680         29.17	     5.916
  53.700         37.50	     6.708
  53.720         33.33	     6.325
  53.740         28.33	     5.831
  53.760         38.33	     6.782
  53.780         35.00	     6.481
  53.800         40.00	     6.928
  53.820         36.67	     6.633
  53.840         46.67	     7.483
  53.860         37.50	     6.708
  53.880         30.00	     6.000
  53.900         35.00	     6.481
  53.920         40.00	     6.928
  53.940         34.17	     6.403
  53.960         32.50	     6.245
  53.980         42.50	     7.141
  54.000         31.67	     6.164
  54.020         31.67	     6.164
  54.040         43.33	     7.211
  54.060         24.17	     5.385
  54.080         35.00	     6.481
  54.100         35.83	     6.557
  54.120         27.50	     5.745
  54.140         37.50	     6.708
  54.160         25.83	     5.568
  54.180         38.33	     6.782
  54.200         30.00	     6.000
  54.220         30.83	     6.083
  54.240         28.33	     5.831
  54.260         31.67	     6.164
  54.280         31.67	     6.164
  54.300         37.50	     6.708
  54.320         35.83	     6.557
  54.340         40.00	     6.928
  54.360         30.00	     6.000
  54.380         52.50	     7.937
  54.400         44.17	     7.280
  54.420         37.50	     6.708
  54.440         38.33	     6.782
  54.460         40.83	     7.000
  54.480         42.50	     7.141
  54.500         40.00	     6.928
  54.520         35.00	     6.481
  54.540         41.67	     7.071
  54.560         41.67	     7.071
  54.580         36.67	     6.633
  54.600         43.33	     7.211
  54.620         39.17	     6.856
  54.640         37.50	     6.708
  54.660         50.00	     7.746
  54.680         47.50	     7.550
  54.700         47.50	     7.550
  54.720         37.50	     6.708
  54.740         47.50	     7.550
  54.760         49.17	     7.681
  54.780         53.33	     8.000
  54.800         51.67	     7.874
  54.820         90.00	    10.392
  54.840        140.00	    12.961
  54.860        146.67	    13.266
  54.880        146.67	    13.266
  54.900        103.33	    11.136
  54.920         97.50	    10.817
  54.940         76.67	     9.592
  54.960        101.67	    11.045
  54.980         91.67	    10.488
  55.000        120.00	    12.000
  55.020        108.33	    11.402
  55.040         93.33	    10.583
  55.060         80.83	     9.849
  55.080         66.67	     8.944
  55.100         60.00	     8.485
  55.120         79.17	     9.747
  55.140         56.67	     8.246
  55.160         51.67	     7.874
  55.180         50.00	     7.746
  55.200         51.67	     7.874
  55.220         57.50	     8.307
  55.240         55.83	     8.185
  55.260         58.33	     8.367
  55.280         62.50	     8.660
  55.300         70.00	     9.165
  55.320         60.83	     8.544
  55.340         80.00	     9.798
  55.360         60.00	     8.485
  55.380         64.17	     8.775
  55.400         75.83	     9.539
  55.420         64.17	     8.775
  55.440         52.50	     7.937
  55.460         51.67	     7.874
  55.480         55.00	     8.124
  55.500         65.00	     8.832
  55.520         57.50	     8.307
  55.540         55.00	     8.124
  55.560         40.83	     7.000
  55.580         42.50	     7.141
  55.600         45.00	     7.348
  55.620         36.67	     6.633
  55.640         35.00	     6.481
  55.660         50.00	     7.746
  55.680         50.00	     7.746
  55.700         46.67	     7.483
  55.720         49.17	     7.681
  55.740         51.67	     7.874
  55.760         60.83	     8.544
  55.780         53.33	     8.000
  55.800         65.00	     8.832
  55.820         58.33	     8.367
  55.840         60.00	     8.485
  55.860         49.17	     7.681
  55.880         69.17	     9.110
  55.900         64.17	     8.775
  55.920         55.00	     8.124
  55.940         62.50	     8.660
  55.960         64.17	     8.775
  55.980         59.17	     8.426
  56.000         65.00	     8.832
  56.020         50.00	     7.746
  56.040         56.67	     8.246
  56.060         53.33	     8.000
  56.080         53.33	     8.000
  56.100         47.50	     7.550
  56.120         45.83	     7.416
  56.140         46.67	     7.483
  56.160         44.17	     7.280
  56.180         45.00	     7.348
  56.200         46.67	     7.483
  56.220         46.67	     7.483
  56.240         50.00	     7.746
  56.260         38.33	     6.782
  56.280         38.33	     6.782
  56.300         37.50	     6.708
  56.320         50.83	     7.810
  56.340         36.67	     6.633
  56.360         35.00	     6.481
  56.380         38.33	     6.782
  56.400         37.50	     6.708
  56.420         38.33	     6.782
  56.440         35.00	     6.481
  56.460         45.00	     7.348
  56.480         46.67	     7.483
  56.500         48.33	     7.616
  56.520         37.50	     6.708
  56.540         34.17	     6.403
  56.560         32.50	     6.245
  56.580         34.17	     6.403
  56.600         28.33	     5.831
  56.620         28.33	     5.831
  56.640         38.33	     6.782
  56.660         42.50	     7.141
  56.680         35.00	     6.481
  56.700         37.50	     6.708
  56.720         31.67	     6.164
  56.740         32.50	     6.245
  56.760         39.17	     6.856
  56.780         34.17	     6.403
  56.800         40.00	     6.928
  56.820         42.50	     7.141
  56.840         31.67	     6.164
  56.860         35.83	     6.557
  56.880         44.17	     7.280
  56.900         50.00	     7.746
  56.920         41.67	     7.071
  56.940         40.83	     7.000
  56.960         39.17	     6.856
  56.980         40.00	     6.928
  57.000         35.83	     6.557
  57.020         31.67	     6.164
  57.040         35.00	     6.481
  57.060         40.00	     6.928
  57.080         35.83	     6.557
  57.100         25.83	     5.568
  57.120         34.17	     6.403
  57.140         33.33	     6.325
  57.160         35.83	     6.557
  57.180         32.50	     6.245
  57.200         35.00	     6.481
  57.220         39.17	     6.856
  57.240         29.17	     5.916
  57.260         50.83	     7.810
  57.280         33.33	     6.325
  57.300         40.83	     7.000
  57.320         34.17	     6.403
  57.340         33.33	     6.325
  57.360         30.00	     6.000
  57.380         30.00	     6.000
  57.400         39.17	     6.856
  57.420         39.17	     6.856
  57.440         33.33	     6.325
  57.460         34.17	     6.403
  57.480         34.17	     6.403
  57.500         29.17	     5.916
  57.520         23.33	     5.292
  57.540         31.67	     6.164
  57.560         40.83	     7.000
  57.580         36.67	     6.633
  57.600         25.83	     5.568
  57.620         32.50	     6.245
  57.640         37.50	     6.708
  57.660         37.50	     6.708
  57.680         36.67	     6.633
  57.700         34.17	     6.403
  57.720         31.67	     6.164
  57.740         24.17	     5.385
  57.760         35.83	     6.557
  57.780         25.83	     5.568
  57.800         36.67	     6.633
  57.820         31.67	     6.164
  57.840         36.67	     6.633
  57.860         36.67	     6.633
  57.880         36.67	     6.633
  57.900         32.50	     6.245
  57.920         35.00	     6.481
  57.940         33.33	     6.325
  57.960         35.83	     6.557
  57.980         25.83	     5.568
  58.000         39.17	     6.856
  58.020         27.50	     5.745
  58.040         42.50	     7.141
  58.060         29.17	     5.916
  58.080         43.33	     7.211
  58.100         36.67	     6.633
  58.120         38.33	     6.782
  58.140         35.00	     6.481
  58.160         41.67	     7.071
  58.180         44.17	     7.280
  58.200         35.83	     6.557
  58.220         42.50	     7.141
  58.240         37.50	     6.708
  58.260         26.67	     5.657
  58.280         45.00	     7.348
  58.300         43.33	     7.211
  58.320         35.83	     6.557
  58.340         52.50	     7.937
  58.360         41.67	     7.071
  58.380         41.67	     7.071
  58.400         38.33	     6.782
  58.420         28.33	     5.831
  58.440         34.17	     6.403
  58.460         38.33	     6.782
  58.480         51.67	     7.874
  58.500         35.00	     6.481
  58.520         32.50	     6.245
  58.540         47.50	     7.550
  58.560         46.67	     7.483
  58.580         50.83	     7.810
  58.600         51.67	     7.874
  58.620         43.33	     7.211
  58.640         55.83	     8.185
  58.660         45.83	     7.416
  58.680         52.50	     7.937
  58.700         35.83	     6.557
  58.720         53.33	     8.000
  58.740         75.00	     9.487
  58.760         65.83	     8.888
  58.780         50.00	     7.746
  58.800         61.67	     8.602
  58.820         46.67	     7.483
  58.840         49.17	     7.681
  58.860         65.00	     8.832
  58.880         50.83	     7.810
  58.900         50.83	     7.810
  58.920         50.83	     7.810
  58.940         50.00	     7.746
  58.960         60.83	     8.544
  58.980         55.00	     8.124
  59.000         49.17	     7.681
  59.020         53.33	     8.000
  59.040         58.33	     8.367
  59.060         40.00	     6.928
  59.080         50.00	     7.746
  59.100         55.83	     8.185
  59.120         49.17	     7.681
  59.140         48.33	     7.616
  59.160         53.33	     8.000
  59.180         70.83	     9.220
  59.200         58.33	     8.367
  59.220         58.33	     8.367
  59.240         50.00	     7.746
  59.260         47.50	     7.550
  59.280         50.83	     7.810
  59.300         51.67	     7.874
  59.320         40.00	     6.928
  59.340         46.67	     7.483
  59.360         37.50	     6.708
  59.380         53.33	     8.000
  59.400         36.67	     6.633
  59.420         43.33	     7.211
  59.440         40.83	     7.000
  59.460         36.67	     6.633
  59.480         35.83	     6.557
  59.500         41.67	     7.071
  59.520         35.00	     6.481
  59.540         35.83	     6.557
  59.560         35.83	     6.557
  59.580         34.17	     6.403
  59.600         36.67	     6.633
  59.620         44.17	     7.280
  59.640         34.17	     6.403
  59.660         41.67	     7.071
  59.680         41.67	     7.071
  59.700         42.50	     7.141
  59.720         42.50	     7.141
  59.740         48.33	     7.616
  59.760         35.00	     6.481
  59.780         50.83	     7.810
  59.800         52.50	     7.937
  59.820         49.17	     7.681
  59.840         60.00	     8.485
  59.860         50.00	     7.746
  59.880         59.17	     8.426
  59.900         83.33	    10.000
  59.920        102.50	    11.091
  59.940        151.67	    13.491
  59.960        213.33	    16.000
  59.980        239.17	    16.941
  60.000        243.33	    17.088
  60.020        175.83	    14.526
  60.040        175.00	    14.491
  60.060        140.83	    13.000
  60.080        118.33	    11.916
  60.100        135.83	    12.767
  60.120        155.83	    13.675
  60.140        149.17	    13.379
  60.160        159.17	    13.820
  60.180        135.83	    12.767
  60.200        110.83	    11.533
  60.220         90.83	    10.440
  60.240         75.00	     9.487
  60.260         65.00	     8.832
  60.280         55.83	     8.185
  60.300         51.67	     7.874
  60.320         60.83	     8.544
  60.340         60.83	     8.544
  60.360         49.17	     7.681
  60.380         45.00	     7.348
  60.400         39.17	     6.856
  60.420         40.83	     7.000
  60.440         58.33	     8.367
  60.460         45.00	     7.348
  60.480         48.33	     7.616
  60.500         60.00	     8.485
  60.520         60.00	     8.485
  60.540         50.83	     7.810
  60.560         60.00	     8.485
  60.580         64.17	     8.775
  60.600         51.67	     7.874
  60.620         56.67	     8.246
  60.640         55.00	     8.124
  60.660         53.33	     8.000
  60.680         51.67	     7.874
  60.700         51.67	     7.874
  60.720         42.50	     7.141
  60.740         49.17	     7.681
  60.760         65.00	     8.832
  60.780         50.83	     7.810
  60.800         70.83	     9.220
  60.820         67.50	     9.000
  60.840         64.17	     8.775
  60.860         69.17	     9.110
  60.880         55.83	     8.185
  60.900         60.83	     8.544
  60.920         55.83	     8.185
  60.940         57.50	     8.307
  60.960         56.67	     8.246
  60.980         57.50	     8.307
  61.000         67.50	     9.000
  61.020         88.33	    10.296
  61.040         61.67	     8.602
  61.060         44.17	     7.280
  61.080         55.83	     8.185
  61.100         59.17	     8.426
  61.120         59.17	     8.426
  61.140         51.67	     7.874
  61.160         55.83	     8.185
  61.180         56.67	     8.246
  61.200         54.17	     8.062
  61.220         54.17	     8.062
  61.240         58.33	     8.367
  61.260         51.67	     7.874
  61.280         59.17	     8.426
  61.300         45.83	     7.416
  61.320         51.67	     7.874
  61.340         60.00	     8.485
  61.360         44.17	     7.280
  61.380         54.17	     8.062
  61.400         55.83	     8.185
  61.420         50.00	     7.746
  61.440         69.17	     9.110
  61.460         59.17	     8.426
  61.480         75.00	     9.487
  61.500         69.17	     9.110
  61.520         83.33	    10.000
  61.540         67.50	     9.000
  61.560         71.67	     9.274
  61.580         63.33	     8.718
  61.600         62.50	     8.660
  61.620         63.33	     8.718
  61.640         65.83	     8.888
  61.660         62.50	     8.660
  61.680         59.17	     8.426
  61.700         54.17	     8.062
  61.720         53.33	     8.000
  61.740         67.50	     9.000
  61.760         62.50	     8.660
  61.780         55.83	     8.185
  61.800         46.67	     7.483
  61.820         50.83	     7.810
  61.840         56.67	     8.246
  61.860         50.83	     7.810
  61.880         51.67	     7.874
  61.900         54.17	     8.062
  61.920         53.33	     8.000
  61.940         55.00	     8.124
  61.960         75.00	     9.487
  61.980         55.00	     8.124
  62.000         45.00	     7.348
  62.020         46.67	     7.483
  62.040         53.33	     8.000
  62.060         44.17	     7.280
  62.080         45.83	     7.416
  62.100         41.67	     7.071
  62.120         45.83	     7.416
  62.140         36.67	     6.633
  62.160         45.00	     7.348
  62.180         43.33	     7.211
  62.200         40.00	     6.928
  62.220         40.00	     6.928
  62.240         48.33	     7.616
  62.260         52.50	     7.937
  62.280         35.00	     6.481
  62.300         43.33	     7.211
  62.320         32.50	     6.245
  62.340         37.50	     6.708
  62.360         36.67	     6.633
  62.380         36.67	     6.633
  62.400         35.83	     6.557
  62.420         40.00	     6.928
  62.440         32.50	     6.245
  62.460         36.67	     6.633
  62.480         23.33	     5.292
  62.500         30.00	     6.000
  62.520         28.33	     5.831
  62.540         35.00	     6.481
  62.560         34.17	     6.403
  62.580         35.83	     6.557
  62.600         35.83	     6.557
  62.620         42.50	     7.141
  62.640         36.67	     6.633
  62.660         43.33	     7.211
  62.680         32.50	     6.245
  62.700         49.17	     7.681
  62.720         37.50	     6.708
  62.740         38.33	     6.782
  62.760         45.00	     7.348
  62.780         50.00	     7.746
  62.800         35.83	     6.557
  62.820         42.50	     7.141
  62.840         39.17	     6.856
  62.860         35.83	     6.557
  62.880         35.83	     6.557
  62.900         41.67	     7.071
  62.920         37.50	     6.708
  62.940         35.00	     6.481
  62.960         39.17	     6.856
  62.980         37.50	     6.708
  63.000         34.17	     6.403
  63.020         47.50	     7.550
  63.040         49.17	     7.681
  63.060         32.50	     6.245
  63.080         28.33	     5.831
  63.100         35.83	     6.557
  63.120         35.00	     6.481
  63.140         35.83	     6.557
  63.160         51.67	     7.874
  63.180         36.67	     6.633
  63.200         38.33	     6.782
  63.220         36.67	     6.633
  63.240         32.50	     6.245
  63.260         37.50	     6.708
  63.280         35.00	     6.481
  63.300         35.00	     6.481
  63.320         35.00	     6.481
  63.340         40.00	     6.928
  63.360         33.33	     6.325
  63.380         35.00	     6.481
  63.400         52.50	     7.937
  63.420         55.00	     8.124
  63.440         52.50	     7.937
  63.460         39.17	     6.856
  63.480         44.17	     7.280
  63.500         42.50	     7.141
  63.520         40.83	     7.000
  63.540         53.33	     8.000
  63.560         54.17	     8.062
  63.580         67.50	     9.000
  63.600         63.33	     8.718
  63.620         53.33	     8.000
  63.640         59.17	     8.426
  63.660         47.50	     7.550
  63.680         43.33	     7.211
  63.700         48.33	     7.616
  63.720         53.33	     8.000
  63.740         57.50	     8.307
  63.760         57.50	     8.307
  63.780         59.17	     8.426
  63.800         50.83	     7.810
  63.820         71.67	     9.274
  63.840         38.33	     6.782
  63.860         42.50	     7.141
  63.880         50.00	     7.746
  63.900         52.50	     7.937
  63.920         45.00	     7.348
  63.940         50.00	     7.746
  63.960         47.50	     7.550
  63.980         60.83	     8.544
  64.000         64.17	     8.775
  64.020         51.67	     7.874
  64.040         80.83	     9.849
  64.060         65.83	     8.888
  64.080         66.67	     8.944
  64.100         70.00	     9.165
  64.120         74.17	     9.434
  64.140         62.50	     8.660
  64.160         54.17	     8.062
  64.180         64.17	     8.775
  64.200         60.83	     8.544
  64.220         75.00	     9.487
  64.240         55.00	     8.124
  64.260         59.17	     8.426
  64.280         62.50	     8.660
  64.300         51.67	     7.874
  64.320         50.83	     7.810
  64.340         55.00	     8.124
  64.360         70.00	     9.165
  64.380         69.17	     9.110
  64.400         92.50	    10.536
  64.420         64.17	     8.775
  64.440         62.50	     8.660
  64.460         55.83	     8.185
  64.480         45.83	     7.416
  64.500         36.67	     6.633
  64.520         40.83	     7.000
  64.540         47.50	     7.550
  64.560         55.00	     8.124
  64.580         59.17	     8.426
  64.600         66.67	     8.944
  64.620         50.83	     7.810
  64.640         49.17	     7.681
  64.660         51.67	     7.874
  64.680         40.00	     6.928
  64.700         45.00	     7.348
  64.720         51.67	     7.874
  64.740         41.67	     7.071
  64.760         36.67	     6.633
  64.780         43.33	     7.211
  64.800         54.17	     8.062
  64.820         45.00	     7.348
  64.840         78.33	     9.695
  64.860         98.33	    10.863
  64.880        134.17	    12.689
  64.900        129.17	    12.450
  64.920         72.50	     9.327
  64.940         52.50	     7.937
  64.960         47.50	     7.550
  64.980         46.67	     7.483
  65.000         45.00	     7.348
