
Filename:
	C:\Program Files\Thermo Electron\WinXRD\Datafiles\F_HERMAN\FIEN\22_AUG_P_RT.raw

File Created:
	January 22, 2019 - 04:30 PM

Specimen Id:
	8.1 AUG (SUR SUPPORT)

Specimen Name:
	

Specimen Description:
	

Comment:
Scan Type: 2Theta Scan
Start Angle: 1 deg.
Stop Angle: 65 deg.
Num Points: 3201
Step Size: 0.02 deg.
Scan Rate: 1.000000
Scan Mode: Continuous
Wavelength: 1.540562
\Kalpha1: 1.540562	\Kalpha2: 1.544390	\Kbeta: 1.392218

Optics:
		Detector:
			 Type: Fixed Slits
		Tube: 
			 Type: Fixed Slits


Datas:
 Pos [deg]       Rate [CPS]      ESD [-]

Range 1 ---> Iteration 1
   1.000        991.67	    34.496
   1.020        653.33	    28.000
   1.040        679.17	    28.548
   1.060        565.83	    26.058
   1.080        582.50	    26.439
   1.100        522.50	    25.040
   1.120        474.17	    23.854
   1.140        531.67	    25.259
   1.160        400.00	    21.909
   1.180        392.50	    21.703
   1.200        444.17	    23.087
   1.220        395.00	    21.772
   1.240        418.33	    22.405
   1.260        417.50	    22.383
   1.280        514.17	    24.839
   1.300        538.33	    25.417
   1.320        695.00	    28.879
   1.340        860.83	    32.140
   1.360       1145.83	    37.081
   1.380       1394.17	    40.902
   1.400       1431.67	    41.449
   1.420       1508.33	    42.544
   1.440       1275.00	    39.115
   1.460       1320.00	    39.799
   1.480       1352.50	    40.286
   1.500       1310.83	    39.661
   1.520       1263.33	    38.936
   1.540       1160.83	    37.323
   1.560       1150.00	    37.148
   1.580        987.50	    34.424
   1.600       1066.67	    35.777
   1.620        984.17	    34.366
   1.640        949.17	    33.749
   1.660        982.50	    34.337
   1.680        814.17	    31.257
   1.700        761.67	    30.232
   1.720        816.67	    31.305
   1.740        730.00	    29.597
   1.760        708.33	    29.155
   1.780        636.67	    27.641
   1.800        590.83	    26.627
   1.820        572.50	    26.211
   1.840        580.00	    26.382
   1.860        550.83	    25.710
   1.880        546.67	    25.612
   1.900        553.33	    25.768
   1.920        516.67	    24.900
   1.940        520.00	    24.980
   1.960        490.00	    24.249
   1.980        455.00	    23.367
   2.000        477.50	    23.937
   2.020        448.33	    23.195
   2.040        428.33	    22.672
   2.060        497.50	    24.434
   2.080        404.17	    22.023
   2.100        439.17	    22.956
   2.120        461.67	    23.537
   2.140        421.67	    22.494
   2.160        407.50	    22.113
   2.180        414.17	    22.293
   2.200        384.17	    21.471
   2.220        404.17	    22.023
   2.240        385.83	    21.517
   2.260        370.83	    21.095
   2.280        393.33	    21.726
   2.300        370.83	    21.095
   2.320        360.83	    20.809
   2.340        351.67	    20.543
   2.360        345.00	    20.347
   2.380        348.33	    20.445
   2.400        347.50	    20.421
   2.420        326.67	    19.799
   2.440        349.17	    20.469
   2.460        351.67	    20.543
   2.480        339.17	    20.174
   2.500        335.83	    20.075
   2.520        322.50	    19.672
   2.540        297.50	    18.894
   2.560        315.83	    19.468
   2.580        355.00	    20.640
   2.600        304.17	    19.105
   2.620        315.00	    19.442
   2.640        314.17	    19.416
   2.660        286.67	    18.547
   2.680        301.67	    19.026
   2.700        307.50	    19.209
   2.720        324.17	    19.723
   2.740        287.50	    18.574
   2.760        294.17	    18.788
   2.780        316.67	    19.494
   2.800        287.50	    18.574
   2.820        302.50	    19.053
   2.840        278.33	    18.276
   2.860        251.67	    17.378
   2.880        269.17	    17.972
   2.900        295.83	    18.841
   2.920        286.67	    18.547
   2.940        264.17	    17.804
   2.960        282.50	    18.412
   2.980        292.50	    18.735
   3.000        273.33	    18.111
   3.020        273.33	    18.111
   3.040        262.50	    17.748
   3.060        264.17	    17.804
   3.080        233.33	    16.733
   3.100        261.67	    17.720
   3.120        270.83	    18.028
   3.140        246.67	    17.205
   3.160        285.00	    18.493
   3.180        252.50	    17.407
   3.200        247.50	    17.234
   3.220        250.00	    17.321
   3.240        240.83	    17.000
   3.260        233.33	    16.733
   3.280        242.50	    17.059
   3.300        245.00	    17.146
   3.320        243.33	    17.088
   3.340        231.67	    16.673
   3.360        227.50	    16.523
   3.380        240.00	    16.971
   3.400        236.67	    16.852
   3.420        221.67	    16.310
   3.440        220.83	    16.279
   3.460        214.17	    16.031
   3.480        217.50	    16.155
   3.500        220.83	    16.279
   3.520        230.83	    16.643
   3.540        211.67	    15.937
   3.560        225.83	    16.462
   3.580        210.00	    15.875
   3.600        221.67	    16.310
   3.620        197.50	    15.395
   3.640        228.33	    16.553
   3.660        218.33	    16.186
   3.680        198.33	    15.427
   3.700        215.83	    16.093
   3.720        210.00	    15.875
   3.740        181.67	    14.765
   3.760        197.50	    15.395
   3.780        205.83	    15.716
   3.800        204.17	    15.652
   3.820        223.33	    16.371
   3.840        187.50	    15.000
   3.860        199.17	    15.460
   3.880        195.83	    15.330
   3.900        198.33	    15.427
   3.920        184.17	    14.866
   3.940        200.83	    15.524
   3.960        179.17	    14.663
   3.980        191.67	    15.166
   4.000        192.50	    15.199
   4.020        198.33	    15.427
   4.040        179.17	    14.663
   4.060        180.83	    14.731
   4.080        185.83	    14.933
   4.100        191.67	    15.166
   4.120        184.17	    14.866
   4.140        180.00	    14.697
   4.160        202.50	    15.588
   4.180        186.67	    14.967
   4.200        193.33	    15.232
   4.220        194.17	    15.264
   4.240        188.33	    15.033
   4.260        153.33	    13.565
   4.280        150.00	    13.416
   4.300        151.67	    13.491
   4.320        145.83	    13.229
   4.340        167.50	    14.177
   4.360        186.67	    14.967
   4.380        172.50	    14.387
   4.400        150.83	    13.454
   4.420        158.33	    13.784
   4.440        165.83	    14.107
   4.460        162.50	    13.964
   4.480        155.00	    13.638
   4.500        160.00	    13.856
   4.520        177.50	    14.595
   4.540        166.67	    14.142
   4.560        154.17	    13.601
   4.580        145.00	    13.191
   4.600        173.33	    14.422
   4.620        168.33	    14.213
   4.640        151.67	    13.491
   4.660        165.00	    14.071
   4.680        164.17	    14.036
   4.700        155.83	    13.675
   4.720        160.83	    13.892
   4.740        154.17	    13.601
   4.760        155.83	    13.675
   4.780        155.83	    13.675
   4.800        141.67	    13.038
   4.820        159.17	    13.820
   4.840        134.17	    12.689
   4.860        155.00	    13.638
   4.880        156.67	    13.711
   4.900        146.67	    13.266
   4.920        141.67	    13.038
   4.940        125.83	    12.288
   4.960        161.67	    13.928
   4.980        157.50	    13.748
   5.000        147.50	    13.304
   5.020        168.33	    14.213
   5.040        131.67	    12.570
   5.060        163.33	    14.000
   5.080        161.67	    13.928
   5.100        150.00	    13.416
   5.120        145.00	    13.191
   5.140        147.50	    13.304
   5.160        125.83	    12.288
   5.180        137.50	    12.845
   5.200        143.33	    13.115
   5.220        133.33	    12.649
   5.240        143.33	    13.115
   5.260        149.17	    13.379
   5.280        147.50	    13.304
   5.300        119.17	    11.958
   5.320        158.33	    13.784
   5.340        153.33	    13.565
   5.360        126.67	    12.329
   5.380        135.83	    12.767
   5.400        148.33	    13.342
   5.420        169.17	    14.248
   5.440        138.33	    12.884
   5.460        139.17	    12.923
   5.480        142.50	    13.077
   5.500        141.67	    13.038
   5.520        144.17	    13.153
   5.540        155.83	    13.675
   5.560        163.33	    14.000
   5.580        123.33	    12.166
   5.600        122.50	    12.124
   5.620        138.33	    12.884
   5.640        123.33	    12.166
   5.660        121.67	    12.083
   5.680        124.17	    12.207
   5.700        135.00	    12.728
   5.720        137.50	    12.845
   5.740        132.50	    12.610
   5.760        152.50	    13.528
   5.780        140.83	    13.000
   5.800        145.83	    13.229
   5.820        115.00	    11.747
   5.840        114.17	    11.705
   5.860        119.17	    11.958
   5.880        120.00	    12.000
   5.900        139.17	    12.923
   5.920        137.50	    12.845
   5.940        115.83	    11.790
   5.960        140.83	    13.000
   5.980        150.00	    13.416
   6.000        150.00	    13.416
   6.020        133.33	    12.649
   6.040        138.33	    12.884
   6.060        159.17	    13.820
   6.080        157.50	    13.748
   6.100        169.17	    14.248
   6.120        159.17	    13.820
   6.140        200.83	    15.524
   6.160        200.83	    15.524
   6.180        195.00	    15.297
   6.200        197.50	    15.395
   6.220        195.00	    15.297
   6.240        162.50	    13.964
   6.260        163.33	    14.000
   6.280        156.67	    13.711
   6.300        150.83	    13.454
   6.320        146.67	    13.266
   6.340        133.33	    12.649
   6.360        144.17	    13.153
   6.380        140.00	    12.961
   6.400        120.83	    12.042
   6.420        138.33	    12.884
   6.440        125.00	    12.247
   6.460        130.83	    12.530
   6.480        120.00	    12.000
   6.500        119.17	    11.958
   6.520        121.67	    12.083
   6.540        125.00	    12.247
   6.560        115.83	    11.790
   6.580         97.50	    10.817
   6.600        128.33	    12.410
   6.620        112.50	    11.619
   6.640        116.67	    11.832
   6.660        119.17	    11.958
   6.680        110.83	    11.533
   6.700        113.33	    11.662
   6.720        124.17	    12.207
   6.740        124.17	    12.207
   6.760        115.00	    11.747
   6.780        116.67	    11.832
   6.800        109.17	    11.446
   6.820        110.83	    11.533
   6.840        133.33	    12.649
   6.860        111.67	    11.576
   6.880        112.50	    11.619
   6.900        103.33	    11.136
   6.920         99.17	    10.909
   6.940        103.33	    11.136
   6.960         94.17	    10.630
   6.980         93.33	    10.583
   7.000        110.00	    11.489
   7.020         96.67	    10.770
   7.040         96.67	    10.770
   7.060        107.50	    11.358
   7.080        115.83	    11.790
   7.100         95.83	    10.724
   7.120        115.83	    11.790
   7.140        114.17	    11.705
   7.160        115.83	    11.790
   7.180        120.83	    12.042
   7.200        101.67	    11.045
   7.220        103.33	    11.136
   7.240        100.83	    11.000
   7.260        100.83	    11.000
   7.280        112.50	    11.619
   7.300         90.00	    10.392
   7.320         90.83	    10.440
   7.340         99.17	    10.909
   7.360        124.17	    12.207
   7.380        107.50	    11.358
   7.400        108.33	    11.402
   7.420        100.83	    11.000
   7.440        114.17	    11.705
   7.460        100.83	    11.000
   7.480         89.17	    10.344
   7.500        115.00	    11.747
   7.520         96.67	    10.770
   7.540        105.00	    11.225
   7.560         89.17	    10.344
   7.580         95.83	    10.724
   7.600         99.17	    10.909
   7.620         98.33	    10.863
   7.640         85.83	    10.149
   7.660         97.50	    10.817
   7.680         96.67	    10.770
   7.700         95.00	    10.677
   7.720         83.33	    10.000
   7.740        114.17	    11.705
   7.760        115.83	    11.790
   7.780         80.83	     9.849
   7.800         81.67	     9.899
   7.820        106.67	    11.314
   7.840        105.83	    11.269
   7.860         99.17	    10.909
   7.880         92.50	    10.536
   7.900         94.17	    10.630
   7.920         94.17	    10.630
   7.940         84.17	    10.050
   7.960         83.33	    10.000
   7.980        107.50	    11.358
   8.000         88.33	    10.296
   8.020         99.17	    10.909
   8.040         85.00	    10.100
   8.060         90.83	    10.440
   8.080         85.83	    10.149
   8.100        105.00	    11.225
   8.120         96.67	    10.770
   8.140         82.50	     9.950
   8.160         92.50	    10.536
   8.180         92.50	    10.536
   8.200         95.83	    10.724
   8.220         96.67	    10.770
   8.240         79.17	     9.747
   8.260        121.67	    12.083
   8.280         95.00	    10.677
   8.300         84.17	    10.050
   8.320         83.33	    10.000
   8.340         95.83	    10.724
   8.360         90.00	    10.392
   8.380        107.50	    11.358
   8.400         95.83	    10.724
   8.420        100.83	    11.000
   8.440         92.50	    10.536
   8.460         72.50	     9.327
   8.480        100.83	    11.000
   8.500         89.17	    10.344
   8.520         94.17	    10.630
   8.540         90.83	    10.440
   8.560        106.67	    11.314
   8.580        122.50	    12.124
   8.600        115.00	    11.747
   8.620        113.33	    11.662
   8.640        121.67	    12.083
   8.660        127.50	    12.369
   8.680        145.83	    13.229
   8.700        125.00	    12.247
   8.720        147.50	    13.304
   8.740        160.83	    13.892
   8.760        160.83	    13.892
   8.780        196.67	    15.362
   8.800        267.50	    17.916
   8.820        418.33	    22.405
   8.840        483.33	    24.083
   8.860        454.17	    23.345
   8.880        313.33	    19.391
   8.900        149.17	    13.379
   8.920        138.33	    12.884
   8.940        111.67	    11.576
   8.960         91.67	    10.488
   8.980         89.17	    10.344
   9.000         89.17	    10.344
   9.020         74.17	     9.434
   9.040        119.17	    11.958
   9.060         92.50	    10.536
   9.080         85.00	    10.100
   9.100        118.33	    11.916
   9.120         80.83	     9.849
   9.140         86.67	    10.198
   9.160         79.17	     9.747
   9.180         90.83	    10.440
   9.200         98.33	    10.863
   9.220         70.83	     9.220
   9.240         97.50	    10.817
   9.260        110.83	    11.533
   9.280         85.00	    10.100
   9.300         77.50	     9.644
   9.320         86.67	    10.198
   9.340         68.33	     9.055
   9.360         77.50	     9.644
   9.380         75.83	     9.539
   9.400         90.00	    10.392
   9.420         79.17	     9.747
   9.440         89.17	    10.344
   9.460         82.50	     9.950
   9.480         92.50	    10.536
   9.500         75.83	     9.539
   9.520         86.67	    10.198
   9.540         82.50	     9.950
   9.560         70.00	     9.165
   9.580         89.17	    10.344
   9.600         64.17	     8.775
   9.620         85.00	    10.100
   9.640         80.83	     9.849
   9.660         75.00	     9.487
   9.680         87.50	    10.247
   9.700         66.67	     8.944
   9.720         80.00	     9.798
   9.740         85.00	    10.100
   9.760         76.67	     9.592
   9.780         79.17	     9.747
   9.800         71.67	     9.274
   9.820         88.33	    10.296
   9.840         94.17	    10.630
   9.860         66.67	     8.944
   9.880         78.33	     9.695
   9.900         75.00	     9.487
   9.920         81.67	     9.899
   9.940         85.83	    10.149
   9.960         63.33	     8.718
   9.980         75.00	     9.487
  10.000         68.33	     9.055
  10.020         68.33	     9.055
  10.040         69.17	     9.110
  10.060         80.83	     9.849
  10.080         67.50	     9.000
  10.100         64.17	     8.775
  10.120         69.17	     9.110
  10.140         65.83	     8.888
  10.160         78.33	     9.695
  10.180         76.67	     9.592
  10.200         68.33	     9.055
  10.220         68.33	     9.055
  10.240         71.67	     9.274
  10.260         75.83	     9.539
  10.280         70.00	     9.165
  10.300         73.33	     9.381
  10.320         73.33	     9.381
  10.340         75.00	     9.487
  10.360         80.00	     9.798
  10.380         68.33	     9.055
  10.400         73.33	     9.381
  10.420         72.50	     9.327
  10.440         90.83	    10.440
  10.460         89.17	    10.344
  10.480         97.50	    10.817
  10.500         69.17	     9.110
  10.520         80.83	     9.849
  10.540         79.17	     9.747
  10.560         65.83	     8.888
  10.580         83.33	    10.000
  10.600         66.67	     8.944
  10.620         75.00	     9.487
  10.640         80.00	     9.798
  10.660         74.17	     9.434
  10.680         72.50	     9.327
  10.700         59.17	     8.426
  10.720         77.50	     9.644
  10.740         54.17	     8.062
  10.760         80.83	     9.849
  10.780         70.83	     9.220
  10.800         81.67	     9.899
  10.820         80.00	     9.798
  10.840         87.50	    10.247
  10.860         68.33	     9.055
  10.880         75.00	     9.487
  10.900         77.50	     9.644
  10.920         65.00	     8.832
  10.940         76.67	     9.592
  10.960         65.00	     8.832
  10.980         62.50	     8.660
  11.000         56.67	     8.246
  11.020         74.17	     9.434
  11.040         80.83	     9.849
  11.060         60.83	     8.544
  11.080         85.83	    10.149
  11.100         65.00	     8.832
  11.120         63.33	     8.718
  11.140         75.83	     9.539
  11.160         69.17	     9.110
  11.180         62.50	     8.660
  11.200         59.17	     8.426
  11.220         65.00	     8.832
  11.240         77.50	     9.644
  11.260         67.50	     9.000
  11.280         74.17	     9.434
  11.300         59.17	     8.426
  11.320         44.17	     7.280
  11.340         53.33	     8.000
  11.360         63.33	     8.718
  11.380         66.67	     8.944
  11.400         74.17	     9.434
  11.420         72.50	     9.327
  11.440         60.00	     8.485
  11.460         70.00	     9.165
  11.480         71.67	     9.274
  11.500         67.50	     9.000
  11.520         73.33	     9.381
  11.540         68.33	     9.055
  11.560         65.00	     8.832
  11.580         75.83	     9.539
  11.600         60.00	     8.485
  11.620         65.00	     8.832
  11.640         61.67	     8.602
  11.660         62.50	     8.660
  11.680         67.50	     9.000
  11.700         70.00	     9.165
  11.720         60.83	     8.544
  11.740         70.00	     9.165
  11.760         83.33	    10.000
  11.780         62.50	     8.660
  11.800         70.00	     9.165
  11.820         57.50	     8.307
  11.840         67.50	     9.000
  11.860         63.33	     8.718
  11.880         69.17	     9.110
  11.900         53.33	     8.000
  11.920         74.17	     9.434
  11.940         59.17	     8.426
  11.960         68.33	     9.055
  11.980         75.83	     9.539
  12.000         68.33	     9.055
  12.020         66.67	     8.944
  12.040         80.83	     9.849
  12.060         86.67	    10.198
  12.080         93.33	    10.583
  12.100        120.83	    12.042
  12.120        140.00	    12.961
  12.140        173.33	    14.422
  12.160        163.33	    14.000
  12.180        169.17	    14.248
  12.200        113.33	    11.662
  12.220        114.17	    11.705
  12.240         98.33	    10.863
  12.260        112.50	    11.619
  12.280        125.00	    12.247
  12.300        124.17	    12.207
  12.320        141.67	    13.038
  12.340        170.00	    14.283
  12.360        145.83	    13.229
  12.380        155.83	    13.675
  12.400        125.83	    12.288
  12.420        140.83	    13.000
  12.440        189.17	    15.067
  12.460        205.83	    15.716
  12.480        199.17	    15.460
  12.500        151.67	    13.491
  12.520        110.00	    11.489
  12.540         85.00	    10.100
  12.560         68.33	     9.055
  12.580         79.17	     9.747
  12.600         64.17	     8.775
  12.620         61.67	     8.602
  12.640         72.50	     9.327
  12.660         77.50	     9.644
  12.680         88.33	    10.296
  12.700         65.83	     8.888
  12.720         55.83	     8.185
  12.740         60.83	     8.544
  12.760         67.50	     9.000
  12.780         74.17	     9.434
  12.800         65.83	     8.888
  12.820         53.33	     8.000
  12.840         70.83	     9.220
  12.860         61.67	     8.602
  12.880         67.50	     9.000
  12.900         70.00	     9.165
  12.920         51.67	     7.874
  12.940         68.33	     9.055
  12.960         65.00	     8.832
  12.980         60.00	     8.485
  13.000         53.33	     8.000
  13.020         66.67	     8.944
  13.040         67.50	     9.000
  13.060         60.00	     8.485
  13.080         53.33	     8.000
  13.100         56.67	     8.246
  13.120         55.83	     8.185
  13.140         72.50	     9.327
  13.160         66.67	     8.944
  13.180         60.83	     8.544
  13.200         79.17	     9.747
  13.220         68.33	     9.055
  13.240         67.50	     9.000
  13.260         72.50	     9.327
  13.280         64.17	     8.775
  13.300         60.83	     8.544
  13.320         48.33	     7.616
  13.340         75.00	     9.487
  13.360         50.00	     7.746
  13.380         69.17	     9.110
  13.400         56.67	     8.246
  13.420         75.83	     9.539
  13.440         68.33	     9.055
  13.460         63.33	     8.718
  13.480         56.67	     8.246
  13.500         59.17	     8.426
  13.520         70.00	     9.165
  13.540         67.50	     9.000
  13.560         75.00	     9.487
  13.580         80.83	     9.849
  13.600         87.50	    10.247
  13.620         74.17	     9.434
  13.640         75.83	     9.539
  13.660         65.83	     8.888
  13.680         80.00	     9.798
  13.700         69.17	     9.110
  13.720         75.00	     9.487
  13.740         75.00	     9.487
  13.760         82.50	     9.950
  13.780         74.17	     9.434
  13.800         85.00	    10.100
  13.820         78.33	     9.695
  13.840         89.17	    10.344
  13.860         83.33	    10.000
  13.880         71.67	     9.274
  13.900         73.33	     9.381
  13.920         60.83	     8.544
  13.940         66.67	     8.944
  13.960         61.67	     8.602
  13.980         60.83	     8.544
  14.000         63.33	     8.718
  14.020         65.00	     8.832
  14.040         64.17	     8.775
  14.060         61.67	     8.602
  14.080         62.50	     8.660
  14.100         59.17	     8.426
  14.120         73.33	     9.381
  14.140         53.33	     8.000
  14.160         54.17	     8.062
  14.180         53.33	     8.000
  14.200         57.50	     8.307
  14.220         63.33	     8.718
  14.240         60.00	     8.485
  14.260         47.50	     7.550
  14.280         52.50	     7.937
  14.300         55.83	     8.185
  14.320         66.67	     8.944
  14.340         59.17	     8.426
  14.360         70.83	     9.220
  14.380         56.67	     8.246
  14.400         60.00	     8.485
  14.420         52.50	     7.937
  14.440         60.00	     8.485
  14.460         65.00	     8.832
  14.480         55.83	     8.185
  14.500         57.50	     8.307
  14.520         74.17	     9.434
  14.540         55.83	     8.185
  14.560         43.33	     7.211
  14.580         52.50	     7.937
  14.600         63.33	     8.718
  14.620         61.67	     8.602
  14.640         49.17	     7.681
  14.660         55.83	     8.185
  14.680         56.67	     8.246
  14.700         55.00	     8.124
  14.720         60.00	     8.485
  14.740         60.00	     8.485
  14.760         49.17	     7.681
  14.780         58.33	     8.367
  14.800         43.33	     7.211
  14.820         57.50	     8.307
  14.840         54.17	     8.062
  14.860         70.00	     9.165
  14.880         58.33	     8.367
  14.900         65.83	     8.888
  14.920         58.33	     8.367
  14.940         63.33	     8.718
  14.960         57.50	     8.307
  14.980         75.83	     9.539
  15.000         63.33	     8.718
  15.020         66.67	     8.944
  15.040         63.33	     8.718
  15.060         58.33	     8.367
  15.080         51.67	     7.874
  15.100         45.83	     7.416
  15.120         60.83	     8.544
  15.140         60.83	     8.544
  15.160         55.83	     8.185
  15.180         62.50	     8.660
  15.200         53.33	     8.000
  15.220         55.83	     8.185
  15.240         67.50	     9.000
  15.260         48.33	     7.616
  15.280         53.33	     8.000
  15.300         54.17	     8.062
  15.320         60.83	     8.544
  15.340         68.33	     9.055
  15.360         53.33	     8.000
  15.380         63.33	     8.718
  15.400         62.50	     8.660
  15.420         61.67	     8.602
  15.440         50.83	     7.810
  15.460         58.33	     8.367
  15.480         46.67	     7.483
  15.500         55.83	     8.185
  15.520         68.33	     9.055
  15.540         57.50	     8.307
  15.560         62.50	     8.660
  15.580         60.00	     8.485
  15.600         46.67	     7.483
  15.620         61.67	     8.602
  15.640         56.67	     8.246
  15.660         65.00	     8.832
  15.680         62.50	     8.660
  15.700         55.83	     8.185
  15.720         54.17	     8.062
  15.740         60.83	     8.544
  15.760         61.67	     8.602
  15.780         55.00	     8.124
  15.800         75.83	     9.539
  15.820         60.00	     8.485
  15.840         69.17	     9.110
  15.860         49.17	     7.681
  15.880         50.00	     7.746
  15.900         64.17	     8.775
  15.920         59.17	     8.426
  15.940         58.33	     8.367
  15.960         58.33	     8.367
  15.980         74.17	     9.434
  16.000         54.17	     8.062
  16.020         51.67	     7.874
  16.040         53.33	     8.000
  16.060         65.00	     8.832
  16.080         59.17	     8.426
  16.100         56.67	     8.246
  16.120         35.00	     6.481
  16.140         59.17	     8.426
  16.160         57.50	     8.307
  16.180         61.67	     8.602
  16.200         60.83	     8.544
  16.220         55.83	     8.185
  16.240         45.83	     7.416
  16.260         58.33	     8.367
  16.280         68.33	     9.055
  16.300         57.50	     8.307
  16.320         49.17	     7.681
  16.340         46.67	     7.483
  16.360         50.83	     7.810
  16.380         67.50	     9.000
  16.400         72.50	     9.327
  16.420         48.33	     7.616
  16.440         51.67	     7.874
  16.460         64.17	     8.775
  16.480         56.67	     8.246
  16.500         70.00	     9.165
  16.520         49.17	     7.681
  16.540         50.83	     7.810
  16.560         55.00	     8.124
  16.580         50.00	     7.746
  16.600         61.67	     8.602
  16.620         57.50	     8.307
  16.640         52.50	     7.937
  16.660         48.33	     7.616
  16.680         56.67	     8.246
  16.700         59.17	     8.426
  16.720         58.33	     8.367
  16.740         57.50	     8.307
  16.760         54.17	     8.062
  16.780         54.17	     8.062
  16.800         54.17	     8.062
  16.820         52.50	     7.937
  16.840         43.33	     7.211
  16.860         54.17	     8.062
  16.880         58.33	     8.367
  16.900         52.50	     7.937
  16.920         44.17	     7.280
  16.940         56.67	     8.246
  16.960         55.83	     8.185
  16.980         50.83	     7.810
  17.000         57.50	     8.307
  17.020         50.00	     7.746
  17.040         55.00	     8.124
  17.060         57.50	     8.307
  17.080         63.33	     8.718
  17.100         50.00	     7.746
  17.120         56.67	     8.246
  17.140         44.17	     7.280
  17.160         63.33	     8.718
  17.180         54.17	     8.062
  17.200         48.33	     7.616
  17.220         54.17	     8.062
  17.240         53.33	     8.000
  17.260         68.33	     9.055
  17.280         84.17	    10.050
  17.300         63.33	     8.718
  17.320         63.33	     8.718
  17.340         66.67	     8.944
  17.360         68.33	     9.055
  17.380         60.00	     8.485
  17.400         54.17	     8.062
  17.420         54.17	     8.062
  17.440         55.00	     8.124
  17.460         51.67	     7.874
  17.480         72.50	     9.327
  17.500         49.17	     7.681
  17.520         60.83	     8.544
  17.540         55.83	     8.185
  17.560         65.83	     8.888
  17.580         70.00	     9.165
  17.600         68.33	     9.055
  17.620         52.50	     7.937
  17.640         78.33	     9.695
  17.660         59.17	     8.426
  17.680         86.67	    10.198
  17.700         97.50	    10.817
  17.720        105.83	    11.269
  17.740        135.83	    12.767
  17.760        172.50	    14.387
  17.780        183.33	    14.832
  17.800        207.50	    15.780
  17.820        188.33	    15.033
  17.840        111.67	    11.576
  17.860         85.83	    10.149
  17.880         94.17	    10.630
  17.900         48.33	     7.616
  17.920         50.83	     7.810
  17.940         65.00	     8.832
  17.960         50.00	     7.746
  17.980         73.33	     9.381
  18.000         52.50	     7.937
  18.020         49.17	     7.681
  18.040         65.83	     8.888
  18.060         49.17	     7.681
  18.080         50.00	     7.746
  18.100         67.50	     9.000
  18.120         51.67	     7.874
  18.140         50.83	     7.810
  18.160         47.50	     7.550
  18.180         48.33	     7.616
  18.200         69.17	     9.110
  18.220         41.67	     7.071
  18.240         58.33	     8.367
  18.260         45.00	     7.348
  18.280         61.67	     8.602
  18.300         55.83	     8.185
  18.320         45.00	     7.348
  18.340         67.50	     9.000
  18.360         55.83	     8.185
  18.380         68.33	     9.055
  18.400         56.67	     8.246
  18.420         56.67	     8.246
  18.440         58.33	     8.367
  18.460         80.00	     9.798
  18.480         69.17	     9.110
  18.500         83.33	    10.000
  18.520         90.00	    10.392
  18.540        109.17	    11.446
  18.560        143.33	    13.115
  18.580        142.50	    13.077
  18.600        115.83	    11.790
  18.620         83.33	    10.000
  18.640         89.17	    10.344
  18.660         87.50	    10.247
  18.680         79.17	     9.747
  18.700         75.83	     9.539
  18.720        105.00	    11.225
  18.740        102.50	    11.091
  18.760        116.67	    11.832
  18.780        101.67	    11.045
  18.800         97.50	    10.817
  18.820         79.17	     9.747
  18.840         70.00	     9.165
  18.860         47.50	     7.550
  18.880         62.50	     8.660
  18.900         61.67	     8.602
  18.920         57.50	     8.307
  18.940         63.33	     8.718
  18.960         58.33	     8.367
  18.980         74.17	     9.434
  19.000         45.00	     7.348
  19.020         50.83	     7.810
  19.040         50.00	     7.746
  19.060         54.17	     8.062
  19.080         59.17	     8.426
  19.100         53.33	     8.000
  19.120         60.83	     8.544
  19.140         53.33	     8.000
  19.160         58.33	     8.367
  19.180         61.67	     8.602
  19.200         69.17	     9.110
  19.220         60.83	     8.544
  19.240         67.50	     9.000
  19.260         56.67	     8.246
  19.280         65.83	     8.888
  19.300         74.17	     9.434
  19.320         56.67	     8.246
  19.340         62.50	     8.660
  19.360         55.83	     8.185
  19.380         51.67	     7.874
  19.400         55.00	     8.124
  19.420         57.50	     8.307
  19.440         70.00	     9.165
  19.460         49.17	     7.681
  19.480         52.50	     7.937
  19.500         60.83	     8.544
  19.520         66.67	     8.944
  19.540         45.83	     7.416
  19.560         55.83	     8.185
  19.580         58.33	     8.367
  19.600         70.00	     9.165
  19.620         67.50	     9.000
  19.640         77.50	     9.644
  19.660         72.50	     9.327
  19.680         76.67	     9.592
  19.700         70.00	     9.165
  19.720         80.00	     9.798
  19.740         75.83	     9.539
  19.760        100.00	    10.954
  19.780         95.00	    10.677
  19.800         87.50	    10.247
  19.820         90.83	    10.440
  19.840         95.83	    10.724
  19.860         88.33	    10.296
  19.880         79.17	     9.747
  19.900         64.17	     8.775
  19.920         73.33	     9.381
  19.940         79.17	     9.747
  19.960         75.83	     9.539
  19.980         48.33	     7.616
  20.000         71.67	     9.274
  20.020         61.67	     8.602
  20.040         60.83	     8.544
  20.060         51.67	     7.874
  20.080         58.33	     8.367
  20.100         65.83	     8.888
  20.120         56.67	     8.246
  20.140         62.50	     8.660
  20.160         54.17	     8.062
  20.180         60.83	     8.544
  20.200         45.00	     7.348
  20.220         45.00	     7.348
  20.240         48.33	     7.616
  20.260         53.33	     8.000
  20.280         40.00	     6.928
  20.300         53.33	     8.000
  20.320         63.33	     8.718
  20.340         63.33	     8.718
  20.360         54.17	     8.062
  20.380         52.50	     7.937
  20.400         60.00	     8.485
  20.420         59.17	     8.426
  20.440         55.83	     8.185
  20.460         50.00	     7.746
  20.480         56.67	     8.246
  20.500         56.67	     8.246
  20.520         56.67	     8.246
  20.540         55.00	     8.124
  20.560         67.50	     9.000
  20.580         72.50	     9.327
  20.600         60.00	     8.485
  20.620         64.17	     8.775
  20.640         68.33	     9.055
  20.660         75.00	     9.487
  20.680         81.67	     9.899
  20.700         75.83	     9.539
  20.720         97.50	    10.817
  20.740        114.17	    11.705
  20.760        209.17	    15.843
  20.780        380.83	    21.378
  20.800        571.67	    26.192
  20.820        569.17	    26.134
  20.840        447.50	    23.173
  20.860        339.17	    20.174
  20.880        259.17	    17.635
  20.900        129.17	    12.450
  20.920        109.17	    11.446
  20.940         97.50	    10.817
  20.960         99.17	    10.909
  20.980         86.67	    10.198
  21.000         81.67	     9.899
  21.020         74.17	     9.434
  21.040         61.67	     8.602
  21.060         84.17	    10.050
  21.080         57.50	     8.307
  21.100         53.33	     8.000
  21.120         55.83	     8.185
  21.140         60.83	     8.544
  21.160         55.83	     8.185
  21.180         52.50	     7.937
  21.200         65.00	     8.832
  21.220         46.67	     7.483
  21.240         46.67	     7.483
  21.260         39.17	     6.856
  21.280         50.83	     7.810
  21.300         59.17	     8.426
  21.320         53.33	     8.000
  21.340         44.17	     7.280
  21.360         63.33	     8.718
  21.380         52.50	     7.937
  21.400         57.50	     8.307
  21.420         60.00	     8.485
  21.440         50.83	     7.810
  21.460         50.83	     7.810
  21.480         61.67	     8.602
  21.500         53.33	     8.000
  21.520         63.33	     8.718
  21.540         51.67	     7.874
  21.560         42.50	     7.141
  21.580         61.67	     8.602
  21.600         45.00	     7.348
  21.620         60.00	     8.485
  21.640         56.67	     8.246
  21.660         55.83	     8.185
  21.680         58.33	     8.367
  21.700         60.83	     8.544
  21.720         71.67	     9.274
  21.740         46.67	     7.483
  21.760         55.00	     8.124
  21.780         55.00	     8.124
  21.800         71.67	     9.274
  21.820         47.50	     7.550
  21.840         56.67	     8.246
  21.860         54.17	     8.062
  21.880         50.00	     7.746
  21.900         81.67	     9.899
  21.920         82.50	     9.950
  21.940        142.50	    13.077
  21.960        226.67	    16.492
  21.980        301.67	    19.026
  22.000        305.83	    19.157
  22.020        309.17	    19.261
  22.040        262.50	    17.748
  22.060        165.00	    14.071
  22.080        124.17	    12.207
  22.100        107.50	    11.358
  22.120         69.17	     9.110
  22.140         56.67	     8.246
  22.160         65.83	     8.888
  22.180         48.33	     7.616
  22.200         54.17	     8.062
  22.220         40.83	     7.000
  22.240         68.33	     9.055
  22.260         70.00	     9.165
  22.280         57.50	     8.307
  22.300         57.50	     8.307
  22.320         59.17	     8.426
  22.340         66.67	     8.944
  22.360         60.83	     8.544
  22.380         65.83	     8.888
  22.400         54.17	     8.062
  22.420         77.50	     9.644
  22.440         71.67	     9.274
  22.460         71.67	     9.274
  22.480         69.17	     9.110
  22.500         56.67	     8.246
  22.520         53.33	     8.000
  22.540         51.67	     7.874
  22.560         48.33	     7.616
  22.580         55.83	     8.185
  22.600         57.50	     8.307
  22.620         60.00	     8.485
  22.640         54.17	     8.062
  22.660         51.67	     7.874
  22.680         63.33	     8.718
  22.700         74.17	     9.434
  22.720         51.67	     7.874
  22.740         55.00	     8.124
  22.760         57.50	     8.307
  22.780         61.67	     8.602
  22.800         76.67	     9.592
  22.820         75.00	     9.487
  22.840         78.33	     9.695
  22.860         77.50	     9.644
  22.880         77.50	     9.644
  22.900         67.50	     9.000
  22.920         69.17	     9.110
  22.940         74.17	     9.434
  22.960         85.83	    10.149
  22.980         80.00	     9.798
  23.000        105.00	    11.225
  23.020        115.00	    11.747
  23.040         82.50	     9.950
  23.060         82.50	     9.950
  23.080         73.33	     9.381
  23.100         50.83	     7.810
  23.120         52.50	     7.937
  23.140         57.50	     8.307
  23.160         45.00	     7.348
  23.180         47.50	     7.550
  23.200         55.00	     8.124
  23.220         53.33	     8.000
  23.240         52.50	     7.937
  23.260         64.17	     8.775
  23.280         50.83	     7.810
  23.300         60.83	     8.544
  23.320         58.33	     8.367
  23.340         52.50	     7.937
  23.360         71.67	     9.274
  23.380         70.83	     9.220
  23.400         62.50	     8.660
  23.420         78.33	     9.695
  23.440        138.33	    12.884
  23.460        206.67	    15.748
  23.480        177.50	    14.595
  23.500        177.50	    14.595
  23.520        178.33	    14.629
  23.540        148.33	    13.342
  23.560        118.33	    11.916
  23.580        105.83	    11.269
  23.600         86.67	    10.198
  23.620         73.33	     9.381
  23.640         65.83	     8.888
  23.660         74.17	     9.434
  23.680         70.83	     9.220
  23.700         72.50	     9.327
  23.720         63.33	     8.718
  23.740         65.00	     8.832
  23.760         79.17	     9.747
  23.780         66.67	     8.944
  23.800         76.67	     9.592
  23.820         72.50	     9.327
  23.840         70.00	     9.165
  23.860         70.83	     9.220
  23.880         69.17	     9.110
  23.900         57.50	     8.307
  23.920         65.83	     8.888
  23.940         82.50	     9.950
  23.960         64.17	     8.775
  23.980         84.17	    10.050
  24.000         87.50	    10.247
  24.020         83.33	    10.000
  24.040         96.67	    10.770
  24.060         80.83	     9.849
  24.080         85.83	    10.149
  24.100        107.50	    11.358
  24.120         96.67	    10.770
  24.140        111.67	    11.576
  24.160        115.83	    11.790
  24.180        140.83	    13.000
  24.200        153.33	    13.565
  24.220        189.17	    15.067
  24.240        198.33	    15.427
  24.260        210.83	    15.906
  24.280        202.50	    15.588
  24.300        170.00	    14.283
  24.320        105.83	    11.269
  24.340         98.33	    10.863
  24.360         85.00	    10.100
  24.380         80.83	     9.849
  24.400         77.50	     9.644
  24.420         66.67	     8.944
  24.440         58.33	     8.367
  24.460         75.00	     9.487
  24.480         96.67	    10.770
  24.500         90.83	    10.440
  24.520        124.17	    12.207
  24.540        125.00	    12.247
  24.560        126.67	    12.329
  24.580        130.83	    12.530
  24.600        125.83	    12.288
  24.620        111.67	    11.576
  24.640        105.00	    11.225
  24.660         77.50	     9.644
  24.680         77.50	     9.644
  24.700         84.17	    10.050
  24.720         95.00	    10.677
  24.740         89.17	    10.344
  24.760         85.00	    10.100
  24.780        100.83	    11.000
  24.800         90.00	    10.392
  24.820        110.00	    11.489
  24.840        111.67	    11.576
  24.860        155.83	    13.675
  24.880        141.67	    13.038
  24.900        120.83	    12.042
  24.920        123.33	    12.166
  24.940        108.33	    11.402
  24.960         70.00	     9.165
  24.980         88.33	    10.296
  25.000         78.33	     9.695
  25.020         90.83	    10.440
  25.040        101.67	    11.045
  25.060         97.50	    10.817
  25.080        134.17	    12.689
  25.100        168.33	    14.213
  25.120        180.00	    14.697
  25.140        167.50	    14.177
  25.160        157.50	    13.748
  25.180        152.50	    13.528
  25.200        108.33	    11.402
  25.220        100.00	    10.954
  25.240         80.00	     9.798
  25.260         74.17	     9.434
  25.280         73.33	     9.381
  25.300         84.17	    10.050
  25.320         82.50	     9.950
  25.340         87.50	    10.247
  25.360         83.33	    10.000
  25.380         90.00	    10.392
  25.400        100.83	    11.000
  25.420        125.83	    12.288
  25.440        129.17	    12.450
  25.460        122.50	    12.124
  25.480        121.67	    12.083
  25.500        115.83	    11.790
  25.520         98.33	    10.863
  25.540         99.17	    10.909
  25.560        127.50	    12.369
  25.580         95.00	    10.677
  25.600        125.00	    12.247
  25.620        107.50	    11.358
  25.640         93.33	    10.583
  25.660         90.83	    10.440
  25.680         79.17	     9.747
  25.700         88.33	    10.296
  25.720         69.17	     9.110
  25.740         57.50	     8.307
  25.760         54.17	     8.062
  25.780         66.67	     8.944
  25.800         70.83	     9.220
  25.820         60.83	     8.544
  25.840         59.17	     8.426
  25.860         56.67	     8.246
  25.880         57.50	     8.307
  25.900         52.50	     7.937
  25.920         54.17	     8.062
  25.940         55.83	     8.185
  25.960         48.33	     7.616
  25.980         51.67	     7.874
  26.000         67.50	     9.000
  26.020         59.17	     8.426
  26.040         66.67	     8.944
  26.060         68.33	     9.055
  26.080         70.83	     9.220
  26.100         57.50	     8.307
  26.120         53.33	     8.000
  26.140         53.33	     8.000
  26.160         68.33	     9.055
  26.180         49.17	     7.681
  26.200         66.67	     8.944
  26.220         66.67	     8.944
  26.240         82.50	     9.950
  26.260         81.67	     9.899
  26.280         96.67	    10.770
  26.300        115.83	    11.790
  26.320        113.33	    11.662
  26.340        137.50	    12.845
  26.360        178.33	    14.629
  26.380        144.17	    13.153
  26.400        192.50	    15.199
  26.420        206.67	    15.748
  26.440        175.83	    14.526
  26.460        209.17	    15.843
  26.480        238.33	    16.912
  26.500        322.50	    19.672
  26.520        537.50	    25.397
  26.540        956.67	    33.882
  26.560       1580.83	    43.555
  26.580       2320.83	    52.773
  26.600       2797.50	    57.940
  26.620       2587.50	    55.723
  26.640       1860.83	    47.255
  26.660       1560.00	    43.267
  26.680       1342.50	    40.137
  26.700        806.67	    31.113
  26.720        407.50	    22.113
  26.740        373.33	    21.166
  26.760        346.67	    20.396
  26.780        401.67	    21.954
  26.800        485.00	    24.125
  26.820        567.50	    26.096
  26.840        515.00	    24.860
  26.860        456.67	    23.409
  26.880        461.67	    23.537
  26.900        305.83	    19.157
  26.920        242.50	    17.059
  26.940        200.00	    15.492
  26.960        179.17	    14.663
  26.980        149.17	    13.379
  27.000        156.67	    13.711
  27.020        174.17	    14.457
  27.040        181.67	    14.765
  27.060        175.83	    14.526
  27.080        140.83	    13.000
  27.100        144.17	    13.153
  27.120        144.17	    13.153
  27.140        100.83	    11.000
  27.160         86.67	    10.198
  27.180         75.00	     9.487
  27.200         90.00	    10.392
  27.220         82.50	     9.950
  27.240         96.67	    10.770
  27.260         72.50	     9.327
  27.280         68.33	     9.055
  27.300         74.17	     9.434
  27.320         90.83	    10.440
  27.340         90.83	    10.440
  27.360        127.50	    12.369
  27.380        185.83	    14.933
  27.400        203.33	    15.620
  27.420        217.50	    16.155
  27.440        199.17	    15.460
  27.460        253.33	    17.436
  27.480        227.50	    16.523
  27.500        220.83	    16.279
  27.520        155.83	    13.675
  27.540        134.17	    12.689
  27.560        137.50	    12.845
  27.580        129.17	    12.450
  27.600        115.00	    11.747
  27.620        108.33	    11.402
  27.640        105.83	    11.269
  27.660        113.33	    11.662
  27.680        127.50	    12.369
  27.700        157.50	    13.748
  27.720        161.67	    13.928
  27.740        143.33	    13.115
  27.760        166.67	    14.142
  27.780        180.00	    14.697
  27.800        216.67	    16.125
  27.820        211.67	    15.937
  27.840        311.67	    19.339
  27.860        337.50	    20.125
  27.880        335.83	    20.075
  27.900        320.00	    19.596
  27.920        280.83	    18.358
  27.940        284.17	    18.466
  27.960        245.00	    17.146
  27.980        189.17	    15.067
  28.000        152.50	    13.528
  28.020        114.17	    11.705
  28.040        125.83	    12.288
  28.060        126.67	    12.329
  28.080        118.33	    11.916
  28.100        114.17	    11.705
  28.120        100.83	    11.000
  28.140        105.00	    11.225
  28.160        124.17	    12.207
  28.180         99.17	    10.909
  28.200         80.83	     9.849
  28.220         87.50	    10.247
  28.240        108.33	    11.402
  28.260        135.83	    12.767
  28.280        145.00	    13.191
  28.300        107.50	    11.358
  28.320         88.33	    10.296
  28.340         94.17	    10.630
  28.360         85.83	    10.149
  28.380         70.00	     9.165
  28.400         55.83	     8.185
  28.420         71.67	     9.274
  28.440         70.83	     9.220
  28.460         65.00	     8.832
  28.480         73.33	     9.381
  28.500         83.33	    10.000
  28.520         92.50	    10.536
  28.540         94.17	    10.630
  28.560        103.33	    11.136
  28.580        166.67	    14.142
  28.600        204.17	    15.652
  28.620        235.83	    16.823
  28.640        256.67	    17.550
  28.660        181.67	    14.765
  28.680        170.83	    14.318
  28.700        156.67	    13.711
  28.720        152.50	    13.528
  28.740        124.17	    12.207
  28.760         90.83	    10.440
  28.780         66.67	     8.944
  28.800         69.17	     9.110
  28.820         66.67	     8.944
  28.840         60.00	     8.485
  28.860         65.83	     8.888
  28.880         60.00	     8.485
  28.900         55.83	     8.185
  28.920         58.33	     8.367
  28.940         50.00	     7.746
  28.960         57.50	     8.307
  28.980         51.67	     7.874
  29.000         50.00	     7.746
  29.020         48.33	     7.616
  29.040         47.50	     7.550
  29.060         50.00	     7.746
  29.080         54.17	     8.062
  29.100         50.00	     7.746
  29.120         51.67	     7.874
  29.140         51.67	     7.874
  29.160         55.00	     8.124
  29.180         41.67	     7.071
  29.200         52.50	     7.937
  29.220         60.00	     8.485
  29.240         62.50	     8.660
  29.260         46.67	     7.483
  29.280         49.17	     7.681
  29.300         55.83	     8.185
  29.320         59.17	     8.426
  29.340         54.17	     8.062
  29.360         58.33	     8.367
  29.380         61.67	     8.602
  29.400         60.00	     8.485
  29.420         60.83	     8.544
  29.440         70.83	     9.220
  29.460         59.17	     8.426
  29.480         62.50	     8.660
  29.500         55.83	     8.185
  29.520         62.50	     8.660
  29.540         50.83	     7.810
  29.560         53.33	     8.000
  29.580         55.00	     8.124
  29.600         51.67	     7.874
  29.620         55.00	     8.124
  29.640         70.83	     9.220
  29.660         70.00	     9.165
  29.680         74.17	     9.434
  29.700         91.67	    10.488
  29.720         92.50	    10.536
  29.740         84.17	    10.050
  29.760         90.00	    10.392
  29.780        100.00	    10.954
  29.800        113.33	    11.662
  29.820         94.17	    10.630
  29.840         81.67	     9.899
  29.860        105.00	    11.225
  29.880         90.83	    10.440
  29.900         94.17	    10.630
  29.920         75.00	     9.487
  29.940         83.33	    10.000
  29.960         96.67	    10.770
  29.980         80.83	     9.849
  30.000         75.00	     9.487
  30.020         86.67	    10.198
  30.040         70.00	     9.165
  30.060         83.33	    10.000
  30.080         70.83	     9.220
  30.100         68.33	     9.055
  30.120         83.33	    10.000
  30.140         70.83	     9.220
  30.160         75.00	     9.487
  30.180         80.83	     9.849
  30.200         81.67	     9.899
  30.220         64.17	     8.775
  30.240         62.50	     8.660
  30.260         64.17	     8.775
  30.280         56.67	     8.246
  30.300         66.67	     8.944
  30.320         68.33	     9.055
  30.340         55.00	     8.124
  30.360         58.33	     8.367
  30.380         66.67	     8.944
  30.400         82.50	     9.950
  30.420         85.00	    10.100
  30.440         99.17	    10.909
  30.460         88.33	    10.296
  30.480         83.33	    10.000
  30.500         74.17	     9.434
  30.520         57.50	     8.307
  30.540         77.50	     9.644
  30.560         60.00	     8.485
  30.580         61.67	     8.602
  30.600         63.33	     8.718
  30.620         55.00	     8.124
  30.640         57.50	     8.307
  30.660         79.17	     9.747
  30.680         80.83	     9.849
  30.700         95.83	    10.724
  30.720        106.67	    11.314
  30.740         88.33	    10.296
  30.760        103.33	    11.136
  30.780        107.50	    11.358
  30.800        112.50	    11.619
  30.820        115.83	    11.790
  30.840        105.00	    11.225
  30.860        105.00	    11.225
  30.880         87.50	    10.247
  30.900         80.83	     9.849
  30.920         71.67	     9.274
  30.940         62.50	     8.660
  30.960         70.00	     9.165
  30.980         75.83	     9.539
  31.000         70.00	     9.165
  31.020         53.33	     8.000
  31.040         62.50	     8.660
  31.060         62.50	     8.660
  31.080         50.00	     7.746
  31.100         70.83	     9.220
  31.120         57.50	     8.307
  31.140         67.50	     9.000
  31.160         75.83	     9.539
  31.180         95.83	    10.724
  31.200        112.50	    11.619
  31.220        120.00	    12.000
  31.240        130.83	    12.530
  31.260         75.00	     9.487
  31.280         77.50	     9.644
  31.300        101.67	    11.045
  31.320         68.33	     9.055
  31.340         60.83	     8.544
  31.360         63.33	     8.718
  31.380         63.33	     8.718
  31.400         67.50	     9.000
  31.420         62.50	     8.660
  31.440         73.33	     9.381
  31.460         57.50	     8.307
  31.480         65.00	     8.832
  31.500         64.17	     8.775
  31.520         69.17	     9.110
  31.540         78.33	     9.695
  31.560         75.83	     9.539
  31.580         76.67	     9.592
  31.600         46.67	     7.483
  31.620         69.17	     9.110
  31.640         58.33	     8.367
  31.660         65.00	     8.832
  31.680         49.17	     7.681
  31.700         41.67	     7.071
  31.720         57.50	     8.307
  31.740         38.33	     6.782
  31.760         44.17	     7.280
  31.780         58.33	     8.367
  31.800         58.33	     8.367
  31.820         42.50	     7.141
  31.840         52.50	     7.937
  31.860         48.33	     7.616
  31.880         53.33	     8.000
  31.900         65.00	     8.832
  31.920         55.00	     8.124
  31.940         49.17	     7.681
  31.960         67.50	     9.000
  31.980         62.50	     8.660
  32.000         58.33	     8.367
  32.020         63.33	     8.718
  32.040         69.17	     9.110
  32.060         61.67	     8.602
  32.080         63.33	     8.718
  32.100         55.83	     8.185
  32.120         65.00	     8.832
  32.140         59.17	     8.426
  32.160         51.67	     7.874
  32.180         56.67	     8.246
  32.200         64.17	     8.775
  32.220         36.67	     6.633
  32.240         49.17	     7.681
  32.260         45.83	     7.416
  32.280         58.33	     8.367
  32.300         48.33	     7.616
  32.320         56.67	     8.246
  32.340         50.00	     7.746
  32.360         44.17	     7.280
  32.380         41.67	     7.071
  32.400         40.83	     7.000
  32.420         39.17	     6.856
  32.440         32.50	     6.245
  32.460         53.33	     8.000
  32.480         45.83	     7.416
  32.500         35.83	     6.557
  32.520         44.17	     7.280
  32.540         49.17	     7.681
  32.560         37.50	     6.708
  32.580         27.50	     5.745
  32.600         45.00	     7.348
  32.620         40.83	     7.000
  32.640         37.50	     6.708
  32.660         35.83	     6.557
  32.680         43.33	     7.211
  32.700         39.17	     6.856
  32.720         40.83	     7.000
  32.740         60.83	     8.544
  32.760         50.00	     7.746
  32.780         39.17	     6.856
  32.800         46.67	     7.483
  32.820         39.17	     6.856
  32.840         59.17	     8.426
  32.860         45.83	     7.416
  32.880         50.00	     7.746
  32.900         48.33	     7.616
  32.920         46.67	     7.483
  32.940         56.67	     8.246
  32.960         55.00	     8.124
  32.980         68.33	     9.055
  33.000         52.50	     7.937
  33.020         46.67	     7.483
  33.040         51.67	     7.874
  33.060         45.00	     7.348
  33.080         40.00	     6.928
  33.100         53.33	     8.000
  33.120         63.33	     8.718
  33.140         39.17	     6.856
  33.160         45.00	     7.348
  33.180         40.83	     7.000
  33.200         38.33	     6.782
  33.220         55.00	     8.124
  33.240         45.00	     7.348
  33.260         49.17	     7.681
  33.280         35.83	     6.557
  33.300         30.00	     6.000
  33.320         38.33	     6.782
  33.340         44.17	     7.280
  33.360         38.33	     6.782
  33.380         38.33	     6.782
  33.400         31.67	     6.164
  33.420         45.00	     7.348
  33.440         37.50	     6.708
  33.460         44.17	     7.280
  33.480         38.33	     6.782
  33.500         40.00	     6.928
  33.520         37.50	     6.708
  33.540         34.17	     6.403
  33.560         35.83	     6.557
  33.580         36.67	     6.633
  33.600         38.33	     6.782
  33.620         28.33	     5.831
  33.640         43.33	     7.211
  33.660         41.67	     7.071
  33.680         45.00	     7.348
  33.700         60.83	     8.544
  33.720         50.00	     7.746
  33.740         53.33	     8.000
  33.760         42.50	     7.141
  33.780         46.67	     7.483
  33.800         55.00	     8.124
  33.820         51.67	     7.874
  33.840         60.83	     8.544
  33.860         69.17	     9.110
  33.880         48.33	     7.616
  33.900         65.83	     8.888
  33.920         56.67	     8.246
  33.940         53.33	     8.000
  33.960         52.50	     7.937
  33.980         60.83	     8.544
  34.000         58.33	     8.367
  34.020         57.50	     8.307
  34.040         61.67	     8.602
  34.060         55.83	     8.185
  34.080         64.17	     8.775
  34.100         59.17	     8.426
  34.120         49.17	     7.681
  34.140         37.50	     6.708
  34.160         43.33	     7.211
  34.180         50.83	     7.810
  34.200         47.50	     7.550
  34.220         41.67	     7.071
  34.240         33.33	     6.325
  34.260         50.83	     7.810
  34.280         49.17	     7.681
  34.300         55.00	     8.124
  34.320         61.67	     8.602
  34.340         63.33	     8.718
  34.360         46.67	     7.483
  34.380         57.50	     8.307
  34.400         80.00	     9.798
  34.420         77.50	     9.644
  34.440         80.83	     9.849
  34.460         80.00	     9.798
  34.480         95.00	    10.677
  34.500         82.50	     9.950
  34.520         88.33	    10.296
  34.540         90.83	    10.440
  34.560         76.67	     9.592
  34.580         94.17	    10.630
  34.600         97.50	    10.817
  34.620        100.00	    10.954
  34.640         90.00	    10.392
  34.660        115.00	    11.747
  34.680         88.33	    10.296
  34.700         72.50	     9.327
  34.720         79.17	     9.747
  34.740         69.17	     9.110
  34.760         70.83	     9.220
  34.780         79.17	     9.747
  34.800         79.17	     9.747
  34.820        105.00	    11.225
  34.840         81.67	     9.899
  34.860        120.83	    12.042
  34.880        117.50	    11.874
  34.900         97.50	    10.817
  34.920        102.50	    11.091
  34.940        103.33	    11.136
  34.960         90.00	    10.392
  34.980        110.83	    11.533
  35.000        115.83	    11.790
  35.020         87.50	    10.247
  35.040         97.50	    10.817
  35.060         95.83	    10.724
  35.080         89.17	    10.344
  35.100         89.17	    10.344
  35.120         75.00	     9.487
  35.140         58.33	     8.367
  35.160         95.83	    10.724
  35.180         60.83	     8.544
  35.200         68.33	     9.055
  35.220         59.17	     8.426
  35.240         60.83	     8.544
  35.260         51.67	     7.874
  35.280         48.33	     7.616
  35.300         79.17	     9.747
  35.320         75.00	     9.487
  35.340         60.83	     8.544
  35.360         70.83	     9.220
  35.380         59.17	     8.426
  35.400         63.33	     8.718
  35.420         80.00	     9.798
  35.440         66.67	     8.944
  35.460         82.50	     9.950
  35.480         99.17	    10.909
  35.500         91.67	    10.488
  35.520        101.67	    11.045
  35.540        110.00	    11.489
  35.560         82.50	     9.950
  35.580         80.00	     9.798
  35.600        101.67	    11.045
  35.620         80.00	     9.798
  35.640         73.33	     9.381
  35.660         64.17	     8.775
  35.680         64.17	     8.775
  35.700         63.33	     8.718
  35.720         60.00	     8.485
  35.740         45.00	     7.348
  35.760         42.50	     7.141
  35.780         55.00	     8.124
  35.800         45.00	     7.348
  35.820         43.33	     7.211
  35.840         49.17	     7.681
  35.860         59.17	     8.426
  35.880         52.50	     7.937
  35.900         52.50	     7.937
  35.920         51.67	     7.874
  35.940         58.33	     8.367
  35.960         64.17	     8.775
  35.980         60.83	     8.544
  36.000         56.67	     8.246
  36.020         56.67	     8.246
  36.040         80.00	     9.798
  36.060         53.33	     8.000
  36.080         54.17	     8.062
  36.100         59.17	     8.426
  36.120         50.83	     7.810
  36.140         51.67	     7.874
  36.160         51.67	     7.874
  36.180         58.33	     8.367
  36.200         50.83	     7.810
  36.220         52.50	     7.937
  36.240         61.67	     8.602
  36.260         45.83	     7.416
  36.280         48.33	     7.616
  36.300         50.00	     7.746
  36.320         56.67	     8.246
  36.340         54.17	     8.062
  36.360         66.67	     8.944
  36.380         70.83	     9.220
  36.400         68.33	     9.055
  36.420        101.67	    11.045
  36.440        127.50	    12.369
  36.460        201.67	    15.556
  36.480        389.17	    21.610
  36.500        722.50	    29.445
  36.520        662.50	    28.196
  36.540        427.50	    22.650
  36.560        284.17	    18.466
  36.580        336.67	    20.100
  36.600        426.67	    22.627
  36.620        326.67	    19.799
  36.640        194.17	    15.264
  36.660        125.83	    12.288
  36.680        101.67	    11.045
  36.700        116.67	    11.832
  36.720         97.50	    10.817
  36.740         95.00	    10.677
  36.760         78.33	     9.695
  36.780         71.67	     9.274
  36.800         78.33	     9.695
  36.820         55.00	     8.124
  36.840         45.00	     7.348
  36.860         52.50	     7.937
  36.880         57.50	     8.307
  36.900         45.00	     7.348
  36.920         52.50	     7.937
  36.940         54.17	     8.062
  36.960         36.67	     6.633
  36.980         57.50	     8.307
  37.000         57.50	     8.307
  37.020         43.33	     7.211
  37.040         45.00	     7.348
  37.060         55.83	     8.185
  37.080         45.83	     7.416
  37.100         49.17	     7.681
  37.120         54.17	     8.062
  37.140         57.50	     8.307
  37.160         60.00	     8.485
  37.180         44.17	     7.280
  37.200         63.33	     8.718
  37.220         63.33	     8.718
  37.240         66.67	     8.944
  37.260         56.67	     8.246
  37.280         53.33	     8.000
  37.300         60.83	     8.544
  37.320         70.83	     9.220
  37.340         63.33	     8.718
  37.360         77.50	     9.644
  37.380         58.33	     8.367
  37.400         65.00	     8.832
  37.420         69.17	     9.110
  37.440         62.50	     8.660
  37.460         48.33	     7.616
  37.480         82.50	     9.950
  37.500         71.67	     9.274
  37.520         58.33	     8.367
  37.540         70.83	     9.220
  37.560         77.50	     9.644
  37.580         74.17	     9.434
  37.600         87.50	    10.247
  37.620         70.00	     9.165
  37.640         80.00	     9.798
  37.660         80.00	     9.798
  37.680         70.83	     9.220
  37.700         74.17	     9.434
  37.720         78.33	     9.695
  37.740         59.17	     8.426
  37.760         65.00	     8.832
  37.780         72.50	     9.327
  37.800         45.83	     7.416
  37.820         47.50	     7.550
  37.840         45.00	     7.348
  37.860         43.33	     7.211
  37.880         40.00	     6.928
  37.900         35.00	     6.481
  37.920         37.50	     6.708
  37.940         46.67	     7.483
  37.960         45.00	     7.348
  37.980         33.33	     6.325
  38.000         39.17	     6.856
  38.020         45.00	     7.348
  38.040         38.33	     6.782
  38.060         45.00	     7.348
  38.080         39.17	     6.856
  38.100         36.67	     6.633
  38.120         30.83	     6.083
  38.140         39.17	     6.856
  38.160         35.83	     6.557
  38.180         52.50	     7.937
  38.200         37.50	     6.708
  38.220         35.83	     6.557
  38.240         34.17	     6.403
  38.260         28.33	     5.831
  38.280         42.50	     7.141
  38.300         40.83	     7.000
  38.320         30.83	     6.083
  38.340         47.50	     7.550
  38.360         37.50	     6.708
  38.380         45.00	     7.348
  38.400         46.67	     7.483
  38.420         49.17	     7.681
  38.440         40.83	     7.000
  38.460         35.83	     6.557
  38.480         40.83	     7.000
  38.500         40.83	     7.000
  38.520         60.83	     8.544
  38.540         59.17	     8.426
  38.560         58.33	     8.367
  38.580         47.50	     7.550
  38.600         49.17	     7.681
  38.620         49.17	     7.681
  38.640         54.17	     8.062
  38.660         45.00	     7.348
  38.680         43.33	     7.211
  38.700         51.67	     7.874
  38.720         50.00	     7.746
  38.740         40.83	     7.000
  38.760         57.50	     8.307
  38.780         49.17	     7.681
  38.800         41.67	     7.071
  38.820         50.83	     7.810
  38.840         34.17	     6.403
  38.860         47.50	     7.550
  38.880         43.33	     7.211
  38.900         43.33	     7.211
  38.920         36.67	     6.633
  38.940         33.33	     6.325
  38.960         45.83	     7.416
  38.980         45.83	     7.416
  39.000         40.00	     6.928
  39.020         50.00	     7.746
  39.040         48.33	     7.616
  39.060         37.50	     6.708
  39.080         36.67	     6.633
  39.100         41.67	     7.071
  39.120         52.50	     7.937
  39.140         46.67	     7.483
  39.160         50.00	     7.746
  39.180         54.17	     8.062
  39.200         53.33	     8.000
  39.220         60.00	     8.485
  39.240         44.17	     7.280
  39.260         58.33	     8.367
  39.280         43.33	     7.211
  39.300         66.67	     8.944
  39.320         60.00	     8.485
  39.340         66.67	     8.944
  39.360        108.33	    11.402
  39.380        176.67	    14.560
  39.400        321.67	    19.647
  39.420        453.33	    23.324
  39.440        500.00	    24.495
  39.460        365.00	    20.928
  39.480        185.83	    14.933
  39.500        172.50	    14.387
  39.520        285.83	    18.520
  39.540        279.17	    18.303
  39.560        218.33	    16.186
  39.580        116.67	    11.832
  39.600         68.33	     9.055
  39.620         55.83	     8.185
  39.640         51.67	     7.874
  39.660         54.17	     8.062
  39.680         62.50	     8.660
  39.700         48.33	     7.616
  39.720         49.17	     7.681
  39.740         59.17	     8.426
  39.760         50.00	     7.746
  39.780         39.17	     6.856
  39.800         52.50	     7.937
  39.820         50.00	     7.746
  39.840         32.50	     6.245
  39.860         52.50	     7.937
  39.880         50.00	     7.746
  39.900         51.67	     7.874
  39.920         47.50	     7.550
  39.940         49.17	     7.681
  39.960         60.83	     8.544
  39.980         42.50	     7.141
  40.000         51.67	     7.874
  40.020         52.50	     7.937
  40.040         50.00	     7.746
  40.060         62.50	     8.660
  40.080         45.00	     7.348
  40.100         45.00	     7.348
  40.120         43.33	     7.211
  40.140         50.00	     7.746
  40.160         51.67	     7.874
  40.180         63.33	     8.718
  40.200         82.50	     9.950
  40.220         96.67	    10.770
  40.240        105.83	    11.269
  40.260        101.67	    11.045
  40.280         69.17	     9.110
  40.300         71.67	     9.274
  40.320         74.17	     9.434
  40.340         80.00	     9.798
  40.360         71.67	     9.274
  40.380         65.00	     8.832
  40.400         53.33	     8.000
  40.420         55.83	     8.185
  40.440         41.67	     7.071
  40.460         50.00	     7.746
  40.480         40.83	     7.000
  40.500         42.50	     7.141
  40.520         46.67	     7.483
  40.540         41.67	     7.071
  40.560         40.00	     6.928
  40.580         41.67	     7.071
  40.600         44.17	     7.280
  40.620         38.33	     6.782
  40.640         30.00	     6.000
  40.660         40.00	     6.928
  40.680         39.17	     6.856
  40.700         45.00	     7.348
  40.720         64.17	     8.775
  40.740         50.83	     7.810
  40.760         49.17	     7.681
  40.780         35.83	     6.557
  40.800         42.50	     7.141
  40.820         47.50	     7.550
  40.840         41.67	     7.071
  40.860         53.33	     8.000
  40.880         59.17	     8.426
  40.900         39.17	     6.856
  40.920         40.00	     6.928
  40.940         36.67	     6.633
  40.960         50.83	     7.810
  40.980         45.00	     7.348
  41.000         43.33	     7.211
  41.020         43.33	     7.211
  41.040         40.83	     7.000
  41.060         35.00	     6.481
  41.080         50.00	     7.746
  41.100         44.17	     7.280
  41.120         47.50	     7.550
  41.140         63.33	     8.718
  41.160         58.33	     8.367
  41.180         45.00	     7.348
  41.200         49.17	     7.681
  41.220         53.33	     8.000
  41.240         67.50	     9.000
  41.260         50.83	     7.810
  41.280         55.83	     8.185
  41.300         55.83	     8.185
  41.320         57.50	     8.307
  41.340         61.67	     8.602
  41.360         60.00	     8.485
  41.380         49.17	     7.681
  41.400         40.00	     6.928
  41.420         38.33	     6.782
  41.440         53.33	     8.000
  41.460         40.00	     6.928
  41.480         45.83	     7.416
  41.500         57.50	     8.307
  41.520         51.67	     7.874
  41.540         53.33	     8.000
  41.560         66.67	     8.944
  41.580         54.17	     8.062
  41.600         98.33	    10.863
  41.620        109.17	    11.446
  41.640        182.50	    14.799
  41.660        180.00	    14.697
  41.680        123.33	    12.166
  41.700         99.17	    10.909
  41.720         95.00	    10.677
  41.740        136.67	    12.806
  41.760        105.00	    11.225
  41.780         98.33	    10.863
  41.800         82.50	     9.950
  41.820         57.50	     8.307
  41.840         62.50	     8.660
  41.860         50.00	     7.746
  41.880         62.50	     8.660
  41.900         57.50	     8.307
  41.920         49.17	     7.681
  41.940         41.67	     7.071
  41.960         55.83	     8.185
  41.980         48.33	     7.616
  42.000         35.00	     6.481
  42.020         50.00	     7.746
  42.040         49.17	     7.681
  42.060         30.83	     6.083
  42.080         47.50	     7.550
  42.100         59.17	     8.426
  42.120         50.00	     7.746
  42.140         56.67	     8.246
  42.160         42.50	     7.141
  42.180         50.00	     7.746
  42.200         55.00	     8.124
  42.220         58.33	     8.367
  42.240         44.17	     7.280
  42.260         55.83	     8.185
  42.280         50.83	     7.810
  42.300         61.67	     8.602
  42.320         71.67	     9.274
  42.340         75.00	     9.487
  42.360        119.17	    11.958
  42.380        145.00	    13.191
  42.400        160.00	    13.856
  42.420        136.67	    12.806
  42.440         99.17	    10.909
  42.460         97.50	    10.817
  42.480         94.17	    10.630
  42.500         95.00	    10.677
  42.520         95.00	    10.677
  42.540         75.83	     9.539
  42.560         53.33	     8.000
  42.580         60.00	     8.485
  42.600         49.17	     7.681
  42.620         62.50	     8.660
  42.640         51.67	     7.874
  42.660         51.67	     7.874
  42.680         50.83	     7.810
  42.700         49.17	     7.681
  42.720         54.17	     8.062
  42.740         40.00	     6.928
  42.760         50.83	     7.810
  42.780         40.83	     7.000
  42.800         42.50	     7.141
  42.820         43.33	     7.211
  42.840         39.17	     6.856
  42.860         49.17	     7.681
  42.880         46.67	     7.483
  42.900         50.00	     7.746
  42.920         51.67	     7.874
  42.940         49.17	     7.681
  42.960         60.83	     8.544
  42.980         45.83	     7.416
  43.000         45.00	     7.348
  43.020         36.67	     6.633
  43.040         57.50	     8.307
  43.060         45.83	     7.416
  43.080         58.33	     8.367
  43.100         40.00	     6.928
  43.120         51.67	     7.874
  43.140         46.67	     7.483
  43.160         44.17	     7.280
  43.180         50.83	     7.810
  43.200         45.00	     7.348
  43.220         52.50	     7.937
  43.240         40.83	     7.000
  43.260         50.00	     7.746
  43.280         50.00	     7.746
  43.300         60.83	     8.544
  43.320         37.50	     6.708
  43.340         45.00	     7.348
  43.360         46.67	     7.483
  43.380         70.00	     9.165
  43.400         36.67	     6.633
  43.420         59.17	     8.426
  43.440         60.00	     8.485
  43.460         71.67	     9.274
  43.480         80.00	     9.798
  43.500         66.67	     8.944
  43.520         60.83	     8.544
  43.540         70.00	     9.165
  43.560         90.00	    10.392
  43.580         66.67	     8.944
  43.600         69.17	     9.110
  43.620         68.33	     9.055
  43.640         78.33	     9.695
  43.660         76.67	     9.592
  43.680         89.17	    10.344
  43.700         57.50	     8.307
  43.720         96.67	    10.770
  43.740         86.67	    10.198
  43.760         76.67	     9.592
  43.780         75.83	     9.539
  43.800         96.67	    10.770
  43.820         75.00	     9.487
  43.840         57.50	     8.307
  43.860         78.33	     9.695
  43.880         62.50	     8.660
  43.900         77.50	     9.644
  43.920         65.00	     8.832
  43.940         85.00	    10.100
  43.960         60.83	     8.544
  43.980         74.17	     9.434
  44.000         58.33	     8.367
  44.020         71.67	     9.274
  44.040         69.17	     9.110
  44.060         69.17	     9.110
  44.080         65.00	     8.832
  44.100         75.00	     9.487
  44.120         68.33	     9.055
  44.140         82.50	     9.950
  44.160         72.50	     9.327
  44.180         94.17	    10.630
  44.200        105.83	    11.269
  44.220         82.50	     9.950
  44.240        112.50	    11.619
  44.260         94.17	    10.630
  44.280        101.67	    11.045
  44.300        130.00	    12.490
  44.320        115.83	    11.790
  44.340        104.17	    11.180
  44.360        115.00	    11.747
  44.380        141.67	    13.038
  44.400        116.67	    11.832
  44.420        125.83	    12.288
  44.440        120.83	    12.042
  44.460        140.00	    12.961
  44.480        122.50	    12.124
  44.500        148.33	    13.342
  44.520        132.50	    12.610
  44.540        137.50	    12.845
  44.560        131.67	    12.570
  44.580        110.00	    11.489
  44.600        123.33	    12.166
  44.620        119.17	    11.958
  44.640        101.67	    11.045
  44.660        105.00	    11.225
  44.680         95.83	    10.724
  44.700         98.33	    10.863
  44.720         94.17	    10.630
  44.740         99.17	    10.909
  44.760        102.50	    11.091
  44.780         86.67	    10.198
  44.800         85.83	    10.149
  44.820         95.83	    10.724
  44.840         80.00	     9.798
  44.860         74.17	     9.434
  44.880         81.67	     9.899
  44.900         76.67	     9.592
  44.920         68.33	     9.055
  44.940         87.50	    10.247
  44.960         92.50	    10.536
  44.980         72.50	     9.327
  45.000         69.17	     9.110
  45.020         65.83	     8.888
  45.040         82.50	     9.950
  45.060         62.50	     8.660
  45.080         62.50	     8.660
  45.100         64.17	     8.775
  45.120         67.50	     9.000
  45.140         60.00	     8.485
  45.160         75.00	     9.487
  45.180         59.17	     8.426
  45.200         68.33	     9.055
  45.220         70.83	     9.220
  45.240         89.17	    10.344
  45.260         75.00	     9.487
  45.280         82.50	     9.950
  45.300         70.00	     9.165
  45.320         77.50	     9.644
  45.340         90.83	    10.440
  45.360         79.17	     9.747
  45.380         86.67	    10.198
  45.400        100.83	    11.000
  45.420         86.67	    10.198
  45.440        105.00	    11.225
  45.460        107.50	    11.358
  45.480        138.33	    12.884
  45.500        123.33	    12.166
  45.520        130.00	    12.490
  45.540        137.50	    12.845
  45.560        125.00	    12.247
  45.580        108.33	    11.402
  45.600        105.00	    11.225
  45.620         92.50	    10.536
  45.640         97.50	    10.817
  45.660        104.17	    11.180
  45.680        118.33	    11.916
  45.700        145.00	    13.191
  45.720        175.00	    14.491
  45.740        187.50	    15.000
  45.760        195.83	    15.330
  45.780        177.50	    14.595
  45.800        120.00	    12.000
  45.820        101.67	    11.045
  45.840        129.17	    12.450
  45.860        114.17	    11.705
  45.880        130.00	    12.490
  45.900         99.17	    10.909
  45.920         74.17	     9.434
  45.940         60.00	     8.485
  45.960         67.50	     9.000
  45.980         60.83	     8.544
  46.000         54.17	     8.062
  46.020         62.50	     8.660
  46.040         60.83	     8.544
  46.060         55.83	     8.185
  46.080         45.83	     7.416
  46.100         52.50	     7.937
  46.120         61.67	     8.602
  46.140         50.83	     7.810
  46.160         70.83	     9.220
  46.180         60.83	     8.544
  46.200         36.67	     6.633
  46.220         43.33	     7.211
  46.240         39.17	     6.856
  46.260         51.67	     7.874
  46.280         60.83	     8.544
  46.300         36.67	     6.633
  46.320         42.50	     7.141
  46.340         43.33	     7.211
  46.360         42.50	     7.141
  46.380         40.83	     7.000
  46.400         35.83	     6.557
  46.420         40.00	     6.928
  46.440         31.67	     6.164
  46.460         44.17	     7.280
  46.480         34.17	     6.403
  46.500         41.67	     7.071
  46.520         40.00	     6.928
  46.540         40.00	     6.928
  46.560         39.17	     6.856
  46.580         36.67	     6.633
  46.600         36.67	     6.633
  46.620         42.50	     7.141
  46.640         32.50	     6.245
  46.660         34.17	     6.403
  46.680         34.17	     6.403
  46.700         40.83	     7.000
  46.720         38.33	     6.782
  46.740         39.17	     6.856
  46.760         34.17	     6.403
  46.780         30.00	     6.000
  46.800         31.67	     6.164
  46.820         30.00	     6.000
  46.840         35.83	     6.557
  46.860         42.50	     7.141
  46.880         25.00	     5.477
  46.900         34.17	     6.403
  46.920         33.33	     6.325
  46.940         35.83	     6.557
  46.960         35.00	     6.481
  46.980         47.50	     7.550
  47.000         35.83	     6.557
  47.020         41.67	     7.071
  47.040         31.67	     6.164
  47.060         39.17	     6.856
  47.080         52.50	     7.937
  47.100         22.50	     5.196
  47.120         43.33	     7.211
  47.140         48.33	     7.616
  47.160         43.33	     7.211
  47.180         45.00	     7.348
  47.200         38.33	     6.782
  47.220         36.67	     6.633
  47.240         43.33	     7.211
  47.260         36.67	     6.633
  47.280         32.50	     6.245
  47.300         37.50	     6.708
  47.320         27.50	     5.745
  47.340         49.17	     7.681
  47.360         39.17	     6.856
  47.380         42.50	     7.141
  47.400         37.50	     6.708
  47.420         39.17	     6.856
  47.440         36.67	     6.633
  47.460         48.33	     7.616
  47.480         52.50	     7.937
  47.500         47.50	     7.550
  47.520         44.17	     7.280
  47.540         33.33	     6.325
  47.560         31.67	     6.164
  47.580         33.33	     6.325
  47.600         28.33	     5.831
  47.620         42.50	     7.141
  47.640         41.67	     7.071
  47.660         33.33	     6.325
  47.680         31.67	     6.164
  47.700         35.00	     6.481
  47.720         38.33	     6.782
  47.740         37.50	     6.708
  47.760         45.83	     7.416
  47.780         38.33	     6.782
  47.800         30.83	     6.083
  47.820         40.83	     7.000
  47.840         35.83	     6.557
  47.860         44.17	     7.280
  47.880         42.50	     7.141
  47.900         42.50	     7.141
  47.920         35.83	     6.557
  47.940         42.50	     7.141
  47.960         40.83	     7.000
  47.980         42.50	     7.141
  48.000         42.50	     7.141
  48.020         41.67	     7.071
  48.040         50.00	     7.746
  48.060         50.00	     7.746
  48.080         53.33	     8.000
  48.100         47.50	     7.550
  48.120         47.50	     7.550
  48.140         57.50	     8.307
  48.160         45.00	     7.348
  48.180         45.83	     7.416
  48.200         54.17	     8.062
  48.220         48.33	     7.616
  48.240         32.50	     6.245
  48.260         53.33	     8.000
  48.280         45.83	     7.416
  48.300         42.50	     7.141
  48.320         35.83	     6.557
  48.340         43.33	     7.211
  48.360         38.33	     6.782
  48.380         36.67	     6.633
  48.400         45.00	     7.348
  48.420         45.00	     7.348
  48.440         32.50	     6.245
  48.460         40.83	     7.000
  48.480         39.17	     6.856
  48.500         42.50	     7.141
  48.520         34.17	     6.403
  48.540         38.33	     6.782
  48.560         38.33	     6.782
  48.580         32.50	     6.245
  48.600         31.67	     6.164
  48.620         39.17	     6.856
  48.640         36.67	     6.633
  48.660         41.67	     7.071
  48.680         36.67	     6.633
  48.700         49.17	     7.681
  48.720         49.17	     7.681
  48.740         44.17	     7.280
  48.760         42.50	     7.141
  48.780         38.33	     6.782
  48.800         47.50	     7.550
  48.820         31.67	     6.164
  48.840         36.67	     6.633
  48.860         45.83	     7.416
  48.880         43.33	     7.211
  48.900         43.33	     7.211
  48.920         35.83	     6.557
  48.940         35.83	     6.557
  48.960         47.50	     7.550
  48.980         44.17	     7.280
  49.000         40.83	     7.000
  49.020         49.17	     7.681
  49.040         36.67	     6.633
  49.060         25.00	     5.477
  49.080         41.67	     7.071
  49.100         41.67	     7.071
  49.120         50.83	     7.810
  49.140         49.17	     7.681
  49.160         47.50	     7.550
  49.180         54.17	     8.062
  49.200         51.67	     7.874
  49.220         33.33	     6.325
  49.240         42.50	     7.141
  49.260         48.33	     7.616
  49.280         39.17	     6.856
  49.300         45.83	     7.416
  49.320         40.83	     7.000
  49.340         45.00	     7.348
  49.360         39.17	     6.856
  49.380         45.00	     7.348
  49.400         45.00	     7.348
  49.420         44.17	     7.280
  49.440         49.17	     7.681
  49.460         49.17	     7.681
  49.480         30.83	     6.083
  49.500         34.17	     6.403
  49.520         36.67	     6.633
  49.540         45.00	     7.348
  49.560         41.67	     7.071
  49.580         49.17	     7.681
  49.600         48.33	     7.616
  49.620         65.00	     8.832
  49.640         66.67	     8.944
  49.660         66.67	     8.944
  49.680         83.33	    10.000
  49.700         73.33	     9.381
  49.720         70.00	     9.165
  49.740         66.67	     8.944
  49.760         69.17	     9.110
  49.780         83.33	    10.000
  49.800         81.67	     9.899
  49.820         79.17	     9.747
  49.840         80.00	     9.798
  49.860         78.33	     9.695
  49.880         89.17	    10.344
  49.900         82.50	     9.950
  49.920         71.67	     9.274
  49.940         63.33	     8.718
  49.960         71.67	     9.274
  49.980         93.33	    10.583
  50.000         99.17	    10.909
  50.020        122.50	    12.124
  50.040        200.83	    15.524
  50.060        270.00	    18.000
  50.080        352.50	    20.567
  50.100        396.67	    21.817
  50.120        379.17	    21.331
  50.140        251.67	    17.378
  50.160        169.17	    14.248
  50.180        145.00	    13.191
  50.200        182.50	    14.799
  50.220        234.17	    16.763
  50.240        235.00	    16.793
  50.260        201.67	    15.556
  50.280        131.67	    12.570
  50.300         95.00	    10.677
  50.320         77.50	     9.644
  50.340         73.33	     9.381
  50.360         60.83	     8.544
  50.380         60.00	     8.485
  50.400         65.83	     8.888
  50.420         86.67	    10.198
  50.440        109.17	    11.446
  50.460        143.33	    13.115
  50.480        200.83	    15.524
  50.500        270.00	    18.000
  50.520        320.83	    19.621
  50.540        270.00	    18.000
  50.560        215.00	    16.062
  50.580        187.50	    15.000
  50.600        185.00	    14.900
  50.620        180.00	    14.697
  50.640        224.17	    16.401
  50.660        202.50	    15.588
  50.680        174.17	    14.457
  50.700        135.83	    12.767
  50.720        120.83	    12.042
  50.740         89.17	    10.344
  50.760         70.83	     9.220
  50.780         60.83	     8.544
  50.800         63.33	     8.718
  50.820         54.17	     8.062
  50.840         71.67	     9.274
  50.860         45.83	     7.416
  50.880         49.17	     7.681
  50.900         58.33	     8.367
  50.920         57.50	     8.307
  50.940         45.00	     7.348
  50.960         50.83	     7.810
  50.980         46.67	     7.483
  51.000         45.00	     7.348
  51.020         55.00	     8.124
  51.040         50.83	     7.810
  51.060         57.50	     8.307
  51.080         89.17	    10.344
  51.100         88.33	    10.296
  51.120         53.33	     8.000
  51.140         44.17	     7.280
  51.160         60.00	     8.485
  51.180         47.50	     7.550
  51.200         53.33	     8.000
  51.220         73.33	     9.381
  51.240         57.50	     8.307
  51.260         59.17	     8.426
  51.280         42.50	     7.141
  51.300         38.33	     6.782
  51.320         52.50	     7.937
  51.340         38.33	     6.782
  51.360         28.33	     5.831
  51.380         38.33	     6.782
  51.400         30.83	     6.083
  51.420         43.33	     7.211
  51.440         40.83	     7.000
  51.460         42.50	     7.141
  51.480         33.33	     6.325
  51.500         30.00	     6.000
  51.520         32.50	     6.245
  51.540         28.33	     5.831
  51.560         29.17	     5.916
  51.580         36.67	     6.633
  51.600         33.33	     6.325
  51.620         32.50	     6.245
  51.640         26.67	     5.657
  51.660         37.50	     6.708
  51.680         32.50	     6.245
  51.700         34.17	     6.403
  51.720         32.50	     6.245
  51.740         35.00	     6.481
  51.760         39.17	     6.856
  51.780         38.33	     6.782
  51.800         30.00	     6.000
  51.820         35.00	     6.481
  51.840         35.83	     6.557
  51.860         35.00	     6.481
  51.880         30.83	     6.083
  51.900         33.33	     6.325
  51.920         29.17	     5.916
  51.940         32.50	     6.245
  51.960         36.67	     6.633
  51.980         40.83	     7.000
  52.000         37.50	     6.708
  52.020         35.83	     6.557
  52.040         29.17	     5.916
  52.060         39.17	     6.856
  52.080         43.33	     7.211
  52.100         49.17	     7.681
  52.120         56.67	     8.246
  52.140         59.17	     8.426
  52.160         52.50	     7.937
  52.180         50.83	     7.810
  52.200         50.00	     7.746
  52.220         42.50	     7.141
  52.240         38.33	     6.782
  52.260         46.67	     7.483
  52.280         44.17	     7.280
  52.300         54.17	     8.062
  52.320         55.00	     8.124
  52.340         50.00	     7.746
  52.360         45.83	     7.416
  52.380         42.50	     7.141
  52.400         47.50	     7.550
  52.420         52.50	     7.937
  52.440         60.83	     8.544
  52.460         47.50	     7.550
  52.480         47.50	     7.550
  52.500         47.50	     7.550
  52.520         39.17	     6.856
  52.540         35.83	     6.557
  52.560         36.67	     6.633
  52.580         51.67	     7.874
  52.600         40.00	     6.928
  52.620         40.83	     7.000
  52.640         43.33	     7.211
  52.660         34.17	     6.403
  52.680         35.83	     6.557
  52.700         36.67	     6.633
  52.720         43.33	     7.211
  52.740         35.83	     6.557
  52.760         33.33	     6.325
  52.780         39.17	     6.856
  52.800         30.00	     6.000
  52.820         32.50	     6.245
  52.840         50.83	     7.810
  52.860         40.00	     6.928
  52.880         44.17	     7.280
  52.900         49.17	     7.681
  52.920         42.50	     7.141
  52.940         44.17	     7.280
  52.960         40.00	     6.928
  52.980         49.17	     7.681
  53.000         40.83	     7.000
  53.020         39.17	     6.856
  53.040         36.67	     6.633
  53.060         46.67	     7.483
  53.080         34.17	     6.403
  53.100         49.17	     7.681
  53.120         59.17	     8.426
  53.140         44.17	     7.280
  53.160         50.00	     7.746
  53.180         48.33	     7.616
  53.200         60.00	     8.485
  53.220         57.50	     8.307
  53.240         50.00	     7.746
  53.260         41.67	     7.071
  53.280         40.00	     6.928
  53.300         47.50	     7.550
  53.320         43.33	     7.211
  53.340         43.33	     7.211
  53.360         43.33	     7.211
  53.380         35.83	     6.557
  53.400         43.33	     7.211
  53.420         34.17	     6.403
  53.440         48.33	     7.616
  53.460         30.83	     6.083
  53.480         37.50	     6.708
  53.500         39.17	     6.856
  53.520         33.33	     6.325
  53.540         43.33	     7.211
  53.560         39.17	     6.856
  53.580         30.83	     6.083
  53.600         34.17	     6.403
  53.620         35.00	     6.481
  53.640         39.17	     6.856
  53.660         37.50	     6.708
  53.680         45.83	     7.416
  53.700         35.83	     6.557
  53.720         35.00	     6.481
  53.740         46.67	     7.483
  53.760         35.83	     6.557
  53.780         33.33	     6.325
  53.800         34.17	     6.403
  53.820         30.00	     6.000
  53.840         29.17	     5.916
  53.860         45.83	     7.416
  53.880         36.67	     6.633
  53.900         36.67	     6.633
  53.920         35.83	     6.557
  53.940         39.17	     6.856
  53.960         43.33	     7.211
  53.980         30.83	     6.083
  54.000         31.67	     6.164
  54.020         43.33	     7.211
  54.040         37.50	     6.708
  54.060         32.50	     6.245
  54.080         33.33	     6.325
  54.100         35.00	     6.481
  54.120         38.33	     6.782
  54.140         35.00	     6.481
  54.160         36.67	     6.633
  54.180         53.33	     8.000
  54.200         38.33	     6.782
  54.220         40.00	     6.928
  54.240         54.17	     8.062
  54.260         40.00	     6.928
  54.280         45.00	     7.348
  54.300         43.33	     7.211
  54.320         41.67	     7.071
  54.340         40.00	     6.928
  54.360         33.33	     6.325
  54.380         29.17	     5.916
  54.400         44.17	     7.280
  54.420         30.83	     6.083
  54.440         45.00	     7.348
  54.460         44.17	     7.280
  54.480         45.00	     7.348
  54.500         36.67	     6.633
  54.520         42.50	     7.141
  54.540         47.50	     7.550
  54.560         35.83	     6.557
  54.580         35.00	     6.481
  54.600         40.00	     6.928
  54.620         38.33	     6.782
  54.640         36.67	     6.633
  54.660         35.83	     6.557
  54.680         47.50	     7.550
  54.700         47.50	     7.550
  54.720         41.67	     7.071
  54.740         61.67	     8.602
  54.760         93.33	    10.583
  54.780         68.33	     9.055
  54.800        103.33	    11.136
  54.820        109.17	    11.446
  54.840        109.17	    11.446
  54.860         92.50	    10.536
  54.880         71.67	     9.274
  54.900         67.50	     9.000
  54.920         60.00	     8.485
  54.940         67.50	     9.000
  54.960         80.83	     9.849
  54.980         70.83	     9.220
  55.000         70.00	     9.165
  55.020         65.00	     8.832
  55.040         60.83	     8.544
  55.060         45.83	     7.416
  55.080         56.67	     8.246
  55.100         48.33	     7.616
  55.120         38.33	     6.782
  55.140         36.67	     6.633
  55.160         43.33	     7.211
  55.180         43.33	     7.211
  55.200         55.83	     8.185
  55.220         68.33	     9.055
  55.240         60.83	     8.544
  55.260         69.17	     9.110
  55.280         64.17	     8.775
  55.300         58.33	     8.367
  55.320         69.17	     9.110
  55.340         55.83	     8.185
  55.360         47.50	     7.550
  55.380         59.17	     8.426
  55.400         53.33	     8.000
  55.420         63.33	     8.718
  55.440         45.00	     7.348
  55.460         46.67	     7.483
  55.480         47.50	     7.550
  55.500         45.00	     7.348
  55.520         37.50	     6.708
  55.540         48.33	     7.616
  55.560         51.67	     7.874
  55.580         30.83	     6.083
  55.600         48.33	     7.616
  55.620         40.00	     6.928
  55.640         54.17	     8.062
  55.660         52.50	     7.937
  55.680         56.67	     8.246
  55.700         55.00	     8.124
  55.720         56.67	     8.246
  55.740         55.00	     8.124
  55.760         69.17	     9.110
  55.780         64.17	     8.775
  55.800         54.17	     8.062
  55.820         62.50	     8.660
  55.840         52.50	     7.937
  55.860         73.33	     9.381
  55.880         54.17	     8.062
  55.900         47.50	     7.550
  55.920         51.67	     7.874
  55.940         60.83	     8.544
  55.960         55.83	     8.185
  55.980         61.67	     8.602
  56.000         41.67	     7.071
  56.020         40.00	     6.928
  56.040         38.33	     6.782
  56.060         41.67	     7.071
  56.080         38.33	     6.782
  56.100         45.00	     7.348
  56.120         40.00	     6.928
  56.140         37.50	     6.708
  56.160         30.00	     6.000
  56.180         46.67	     7.483
  56.200         35.00	     6.481
  56.220         25.83	     5.568
  56.240         36.67	     6.633
  56.260         35.83	     6.557
  56.280         35.83	     6.557
  56.300         40.00	     6.928
  56.320         31.67	     6.164
  56.340         35.83	     6.557
  56.360         40.83	     7.000
  56.380         30.00	     6.000
  56.400         24.17	     5.385
  56.420         37.50	     6.708
  56.440         39.17	     6.856
  56.460         42.50	     7.141
  56.480         25.83	     5.568
  56.500         30.83	     6.083
  56.520         39.17	     6.856
  56.540         40.00	     6.928
  56.560         29.17	     5.916
  56.580         37.50	     6.708
  56.600         59.17	     8.426
  56.620         54.17	     8.062
  56.640         45.00	     7.348
  56.660         49.17	     7.681
  56.680         43.33	     7.211
  56.700         43.33	     7.211
  56.720         36.67	     6.633
  56.740         34.17	     6.403
  56.760         39.17	     6.856
  56.780         49.17	     7.681
  56.800         25.83	     5.568
  56.820         41.67	     7.071
  56.840         39.17	     6.856
  56.860         34.17	     6.403
  56.880         44.17	     7.280
  56.900         35.83	     6.557
  56.920         40.00	     6.928
  56.940         37.50	     6.708
  56.960         39.17	     6.856
  56.980         32.50	     6.245
  57.000         44.17	     7.280
  57.020         32.50	     6.245
  57.040         49.17	     7.681
  57.060         35.83	     6.557
  57.080         50.00	     7.746
  57.100         37.50	     6.708
  57.120         44.17	     7.280
  57.140         45.83	     7.416
  57.160         49.17	     7.681
  57.180         50.00	     7.746
  57.200         40.00	     6.928
  57.220         45.83	     7.416
  57.240         39.17	     6.856
  57.260         38.33	     6.782
  57.280         52.50	     7.937
  57.300         37.50	     6.708
  57.320         47.50	     7.550
  57.340         44.17	     7.280
  57.360         48.33	     7.616
  57.380         39.17	     6.856
  57.400         34.17	     6.403
  57.420         37.50	     6.708
  57.440         35.00	     6.481
  57.460         45.00	     7.348
  57.480         30.00	     6.000
  57.500         30.00	     6.000
  57.520         36.67	     6.633
  57.540         35.83	     6.557
  57.560         36.67	     6.633
  57.580         34.17	     6.403
  57.600         43.33	     7.211
  57.620         29.17	     5.916
  57.640         40.00	     6.928
  57.660         36.67	     6.633
  57.680         31.67	     6.164
  57.700         34.17	     6.403
  57.720         41.67	     7.071
  57.740         35.83	     6.557
  57.760         37.50	     6.708
  57.780         33.33	     6.325
  57.800         32.50	     6.245
  57.820         35.00	     6.481
  57.840         29.17	     5.916
  57.860         37.50	     6.708
  57.880         46.67	     7.483
  57.900         37.50	     6.708
  57.920         27.50	     5.745
  57.940         38.33	     6.782
  57.960         30.83	     6.083
  57.980         30.00	     6.000
  58.000         39.17	     6.856
  58.020         33.33	     6.325
  58.040         40.83	     7.000
  58.060         26.67	     5.657
  58.080         35.83	     6.557
  58.100         34.17	     6.403
  58.120         32.50	     6.245
  58.140         40.83	     7.000
  58.160         46.67	     7.483
  58.180         30.00	     6.000
  58.200         41.67	     7.071
  58.220         33.33	     6.325
  58.240         35.83	     6.557
  58.260         30.00	     6.000
  58.280         38.33	     6.782
  58.300         35.83	     6.557
  58.320         31.67	     6.164
  58.340         37.50	     6.708
  58.360         25.83	     5.568
  58.380         30.00	     6.000
  58.400         30.00	     6.000
  58.420         35.00	     6.481
  58.440         37.50	     6.708
  58.460         36.67	     6.633
  58.480         27.50	     5.745
  58.500         34.17	     6.403
  58.520         35.83	     6.557
  58.540         47.50	     7.550
  58.560         45.00	     7.348
  58.580         38.33	     6.782
  58.600         43.33	     7.211
  58.620         40.83	     7.000
  58.640         44.17	     7.280
  58.660         44.17	     7.280
  58.680         42.50	     7.141
  58.700         33.33	     6.325
  58.720         35.00	     6.481
  58.740         47.50	     7.550
  58.760         32.50	     6.245
  58.780         37.50	     6.708
  58.800         36.67	     6.633
  58.820         41.67	     7.071
  58.840         45.00	     7.348
  58.860         39.17	     6.856
  58.880         35.00	     6.481
  58.900         39.17	     6.856
  58.920         47.50	     7.550
  58.940         41.67	     7.071
  58.960         35.83	     6.557
  58.980         47.50	     7.550
  59.000         50.83	     7.810
  59.020         49.17	     7.681
  59.040         30.00	     6.000
  59.060         59.17	     8.426
  59.080         42.50	     7.141
  59.100         58.33	     8.367
  59.120         72.50	     9.327
  59.140         50.00	     7.746
  59.160         50.83	     7.810
  59.180         55.00	     8.124
  59.200         52.50	     7.937
  59.220         42.50	     7.141
  59.240         45.00	     7.348
  59.260         58.33	     8.367
  59.280         49.17	     7.681
  59.300         46.67	     7.483
  59.320         40.83	     7.000
  59.340         56.67	     8.246
  59.360         39.17	     6.856
  59.380         50.83	     7.810
  59.400         50.83	     7.810
  59.420         40.83	     7.000
  59.440         37.50	     6.708
  59.460         31.67	     6.164
  59.480         35.00	     6.481
  59.500         34.17	     6.403
  59.520         41.67	     7.071
  59.540         39.17	     6.856
  59.560         33.33	     6.325
  59.580         44.17	     7.280
  59.600         44.17	     7.280
  59.620         33.33	     6.325
  59.640         54.17	     8.062
  59.660         40.00	     6.928
  59.680         42.50	     7.141
  59.700         50.00	     7.746
  59.720         50.83	     7.810
  59.740         44.17	     7.280
  59.760         44.17	     7.280
  59.780         50.83	     7.810
  59.800         61.67	     8.602
  59.820         83.33	    10.000
  59.840         93.33	    10.583
  59.860        148.33	    13.342
  59.880        212.50	    15.969
  59.900        272.50	    18.083
  59.920        330.83	    19.925
  59.940        276.67	    18.221
  59.960        187.50	    15.000
  59.980        150.83	    13.454
  60.000        120.83	    12.042
  60.020        125.00	    12.247
  60.040        125.83	    12.288
  60.060        181.67	    14.765
  60.080        206.67	    15.748
  60.100        174.17	    14.457
  60.120        141.67	    13.038
  60.140        105.00	    11.225
  60.160         70.83	     9.220
  60.180         58.33	     8.367
  60.200         51.67	     7.874
  60.220         49.17	     7.681
  60.240         58.33	     8.367
  60.260         50.00	     7.746
  60.280         55.83	     8.185
  60.300         33.33	     6.325
  60.320         51.67	     7.874
  60.340         39.17	     6.856
  60.360         40.00	     6.928
  60.380         40.00	     6.928
  60.400         40.00	     6.928
  60.420         50.00	     7.746
  60.440         40.83	     7.000
  60.460         40.83	     7.000
  60.480         41.67	     7.071
  60.500         40.83	     7.000
  60.520         41.67	     7.071
  60.540         36.67	     6.633
  60.560         37.50	     6.708
  60.580         45.83	     7.416
  60.600         40.83	     7.000
  60.620         42.50	     7.141
  60.640         42.50	     7.141
  60.660         44.17	     7.280
  60.680         43.33	     7.211
  60.700         48.33	     7.616
  60.720         48.33	     7.616
  60.740         44.17	     7.280
  60.760         44.17	     7.280
  60.780         63.33	     8.718
  60.800         67.50	     9.000
  60.820         57.50	     8.307
  60.840         52.50	     7.937
  60.860         50.00	     7.746
  60.880         59.17	     8.426
  60.900         55.83	     8.185
  60.920         70.83	     9.220
  60.940         50.83	     7.810
  60.960         51.67	     7.874
  60.980         48.33	     7.616
  61.000         59.17	     8.426
  61.020         31.67	     6.164
  61.040         45.83	     7.416
  61.060         54.17	     8.062
  61.080         38.33	     6.782
  61.100         44.17	     7.280
  61.120         38.33	     6.782
  61.140         39.17	     6.856
  61.160         48.33	     7.616
  61.180         45.00	     7.348
  61.200         50.00	     7.746
  61.220         44.17	     7.280
  61.240         49.17	     7.681
  61.260         47.50	     7.550
  61.280         48.33	     7.616
  61.300         58.33	     8.367
  61.320         50.83	     7.810
  61.340         59.17	     8.426
  61.360         44.17	     7.280
  61.380         48.33	     7.616
  61.400         57.50	     8.307
  61.420         49.17	     7.681
  61.440         53.33	     8.000
  61.460         60.83	     8.544
  61.480         50.83	     7.810
  61.500         58.33	     8.367
  61.520         48.33	     7.616
  61.540         55.00	     8.124
  61.560         43.33	     7.211
  61.580         54.17	     8.062
  61.600         59.17	     8.426
  61.620         45.00	     7.348
  61.640         65.83	     8.888
  61.660         64.17	     8.775
  61.680         45.00	     7.348
  61.700         50.83	     7.810
  61.720         60.00	     8.485
  61.740         51.67	     7.874
  61.760         39.17	     6.856
  61.780         49.17	     7.681
  61.800         46.67	     7.483
  61.820         56.67	     8.246
  61.840         54.17	     8.062
  61.860         45.83	     7.416
  61.880         50.83	     7.810
  61.900         60.00	     8.485
  61.920         60.83	     8.544
  61.940         44.17	     7.280
  61.960         45.00	     7.348
  61.980         38.33	     6.782
  62.000         38.33	     6.782
  62.020         42.50	     7.141
  62.040         34.17	     6.403
  62.060         40.83	     7.000
  62.080         45.83	     7.416
  62.100         46.67	     7.483
  62.120         38.33	     6.782
  62.140         42.50	     7.141
  62.160         41.67	     7.071
  62.180         30.83	     6.083
  62.200         27.50	     5.745
  62.220         40.00	     6.928
  62.240         31.67	     6.164
  62.260         35.00	     6.481
  62.280         42.50	     7.141
  62.300         33.33	     6.325
  62.320         43.33	     7.211
  62.340         29.17	     5.916
  62.360         31.67	     6.164
  62.380         28.33	     5.831
  62.400         39.17	     6.856
  62.420         43.33	     7.211
  62.440         26.67	     5.657
  62.460         36.67	     6.633
  62.480         38.33	     6.782
  62.500         51.67	     7.874
  62.520         35.83	     6.557
  62.540         43.33	     7.211
  62.560         45.83	     7.416
  62.580         33.33	     6.325
  62.600         34.17	     6.403
  62.620         36.67	     6.633
  62.640         35.00	     6.481
  62.660         44.17	     7.280
  62.680         37.50	     6.708
  62.700         45.00	     7.348
  62.720         37.50	     6.708
  62.740         26.67	     5.657
  62.760         40.00	     6.928
  62.780         30.83	     6.083
  62.800         35.00	     6.481
  62.820         40.83	     7.000
  62.840         41.67	     7.071
  62.860         36.67	     6.633
  62.880         31.67	     6.164
  62.900         45.83	     7.416
  62.920         37.50	     6.708
  62.940         37.50	     6.708
  62.960         32.50	     6.245
  62.980         36.67	     6.633
  63.000         33.33	     6.325
  63.020         33.33	     6.325
  63.040         33.33	     6.325
  63.060         30.83	     6.083
  63.080         35.00	     6.481
  63.100         31.67	     6.164
  63.120         31.67	     6.164
  63.140         37.50	     6.708
  63.160         35.83	     6.557
  63.180         27.50	     5.745
  63.200         35.00	     6.481
  63.220         27.50	     5.745
  63.240         44.17	     7.280
  63.260         35.00	     6.481
  63.280         33.33	     6.325
  63.300         30.00	     6.000
  63.320         35.00	     6.481
  63.340         40.83	     7.000
  63.360         39.17	     6.856
  63.380         41.67	     7.071
  63.400         49.17	     7.681
  63.420         47.50	     7.550
  63.440         56.67	     8.246
  63.460         46.67	     7.483
  63.480         44.17	     7.280
  63.500         45.00	     7.348
  63.520         34.17	     6.403
  63.540         29.17	     5.916
  63.560         47.50	     7.550
  63.580         38.33	     6.782
  63.600         42.50	     7.141
  63.620         42.50	     7.141
  63.640         42.50	     7.141
  63.660         46.67	     7.483
  63.680         52.50	     7.937
  63.700         52.50	     7.937
  63.720         43.33	     7.211
  63.740         64.17	     8.775
  63.760         70.83	     9.220
  63.780         80.00	     9.798
  63.800         78.33	     9.695
  63.820         54.17	     8.062
  63.840         47.50	     7.550
  63.860         66.67	     8.944
  63.880         58.33	     8.367
  63.900         51.67	     7.874
  63.920         64.17	     8.775
  63.940         66.67	     8.944
  63.960         87.50	    10.247
  63.980        114.17	    11.705
  64.000        112.50	    11.619
  64.020        104.17	    11.180
  64.040         71.67	     9.274
  64.060         55.00	     8.124
  64.080         57.50	     8.307
  64.100         57.50	     8.307
  64.120         57.50	     8.307
  64.140         69.17	     9.110
  64.160         80.83	     9.849
  64.180         67.50	     9.000
  64.200         60.83	     8.544
  64.220         52.50	     7.937
  64.240         59.17	     8.426
  64.260         56.67	     8.246
  64.280         60.83	     8.544
  64.300         44.17	     7.280
  64.320         50.83	     7.810
  64.340         53.33	     8.000
  64.360         35.83	     6.557
  64.380         43.33	     7.211
  64.400         46.67	     7.483
  64.420         46.67	     7.483
  64.440         41.67	     7.071
  64.460         45.83	     7.416
  64.480         40.83	     7.000
  64.500         45.83	     7.416
  64.520         45.00	     7.348
  64.540         35.83	     6.557
  64.560         47.50	     7.550
  64.580         45.83	     7.416
  64.600         39.17	     6.856
  64.620         44.17	     7.280
  64.640         50.00	     7.746
  64.660         37.50	     6.708
  64.680         45.83	     7.416
  64.700         50.83	     7.810
  64.720         45.83	     7.416
  64.740         36.67	     6.633
  64.760         46.67	     7.483
  64.780         45.83	     7.416
  64.800         53.33	     8.000
  64.820         50.83	     7.810
  64.840         48.33	     7.616
  64.860         47.50	     7.550
  64.880         52.50	     7.937
  64.900         46.67	     7.483
  64.920         54.17	     8.062
  64.940         46.67	     7.483
  64.960         55.83	     8.185
  64.980         45.83	     7.416
  65.000         43.33	     7.211
