
Filename:
	C:\Program Files\Thermo Electron\WinXRD\Datafiles\F_HERMAN\FIEN\22_AG_FILTER.raw

File Created:
	January 08, 2019 - 01:21 PM

Specimen Id:
	2.2 AUG FILTER

Specimen Name:
	

Specimen Description:
	

Comment:
Scan Type: 2Theta Scan
Start Angle: 1 deg.
Stop Angle: 65 deg.
Num Points: 3201
Step Size: 0.02 deg.
Scan Rate: 1.000000
Scan Mode: Continuous
Wavelength: 1.540562
\Kalpha1: 1.540562	\Kalpha2: 1.544390	\Kbeta: 1.392218

Optics:
		Detector:
			 Type: Fixed Slits
		Tube: 
			 Type: Fixed Slits


Datas:
 Pos [deg]       Rate [CPS]      ESD [-]

Range 1 ---> Iteration 1
   1.000       1011.67	    34.843
   1.020        937.50	    33.541
   1.040        619.17	    27.258
   1.060        522.50	    25.040
   1.080        560.83	    25.942
   1.100        569.17	    26.134
   1.120        465.00	    23.622
   1.140        460.00	    23.495
   1.160        413.33	    22.271
   1.180        403.33	    22.000
   1.200        351.67	    20.543
   1.220        403.33	    22.000
   1.240        399.17	    21.886
   1.260        401.67	    21.954
   1.280        497.50	    24.434
   1.300        540.83	    25.475
   1.320        681.67	    28.601
   1.340        792.50	    30.838
   1.360       1120.00	    36.661
   1.380       1220.00	    38.262
   1.400       1232.50	    38.458
   1.420       1277.50	    39.154
   1.440       1264.17	    38.949
   1.460       1255.83	    38.820
   1.480       1185.83	    37.723
   1.500       1188.33	    37.762
   1.520       1105.00	    36.414
   1.540       1130.83	    36.837
   1.560       1134.17	    36.892
   1.580       1005.83	    34.742
   1.600        928.33	    33.377
   1.620        938.33	    33.556
   1.640        858.33	    32.094
   1.660        851.67	    31.969
   1.680        750.00	    30.000
   1.700        735.00	    29.698
   1.720        681.67	    28.601
   1.740        645.83	    27.839
   1.760        549.17	    25.671
   1.780        593.33	    26.683
   1.800        525.83	    25.120
   1.820        500.00	    24.495
   1.840        502.50	    24.556
   1.860        511.67	    24.779
   1.880        439.17	    22.956
   1.900        452.50	    23.302
   1.920        423.33	    22.539
   1.940        425.83	    22.605
   1.960        421.67	    22.494
   1.980        397.50	    21.840
   2.000        422.50	    22.517
   2.020        403.33	    22.000
   2.040        393.33	    21.726
   2.060        390.00	    21.633
   2.080        374.17	    21.190
   2.100        347.50	    20.421
   2.120        358.33	    20.736
   2.140        365.00	    20.928
   2.160        374.17	    21.190
   2.180        312.50	    19.365
   2.200        384.17	    21.471
   2.220        327.50	    19.824
   2.240        336.67	    20.100
   2.260        300.83	    19.000
   2.280        331.67	    19.950
   2.300        285.00	    18.493
   2.320        328.33	    19.849
   2.340        283.33	    18.439
   2.360        300.83	    19.000
   2.380        280.83	    18.358
   2.400        275.00	    18.166
   2.420        275.83	    18.193
   2.440        299.17	    18.947
   2.460        288.33	    18.601
   2.480        296.67	    18.868
   2.500        243.33	    17.088
   2.520        265.83	    17.861
   2.540        270.83	    18.028
   2.560        241.67	    17.029
   2.580        255.00	    17.493
   2.600        255.00	    17.493
   2.620        256.67	    17.550
   2.640        259.17	    17.635
   2.660        244.17	    17.117
   2.680        249.17	    17.292
   2.700        269.17	    17.972
   2.720        233.33	    16.733
   2.740        259.17	    17.635
   2.760        235.83	    16.823
   2.780        245.00	    17.146
   2.800        259.17	    17.635
   2.820        225.00	    16.432
   2.840        240.00	    16.971
   2.860        260.83	    17.692
   2.880        250.00	    17.321
   2.900        210.00	    15.875
   2.920        235.83	    16.823
   2.940        224.17	    16.401
   2.960        205.83	    15.716
   2.980        250.00	    17.321
   3.000        217.50	    16.155
   3.020        212.50	    15.969
   3.040        205.00	    15.684
   3.060        220.00	    16.248
   3.080        217.50	    16.155
   3.100        225.00	    16.432
   3.120        190.00	    15.100
   3.140        217.50	    16.155
   3.160        200.83	    15.524
   3.180        200.00	    15.492
   3.200        220.00	    16.248
   3.220        215.83	    16.093
   3.240        184.17	    14.866
   3.260        185.00	    14.900
   3.280        180.83	    14.731
   3.300        170.00	    14.283
   3.320        176.67	    14.560
   3.340        193.33	    15.232
   3.360        170.00	    14.283
   3.380        190.83	    15.133
   3.400        197.50	    15.395
   3.420        163.33	    14.000
   3.440        168.33	    14.213
   3.460        194.17	    15.264
   3.480        194.17	    15.264
   3.500        185.83	    14.933
   3.520        164.17	    14.036
   3.540        175.00	    14.491
   3.560        160.00	    13.856
   3.580        154.17	    13.601
   3.600        175.83	    14.526
   3.620        185.83	    14.933
   3.640        145.00	    13.191
   3.660        170.00	    14.283
   3.680        161.67	    13.928
   3.700        155.00	    13.638
   3.720        152.50	    13.528
   3.740        190.00	    15.100
   3.760        132.50	    12.610
   3.780        155.00	    13.638
   3.800        152.50	    13.528
   3.820        154.17	    13.601
   3.840        163.33	    14.000
   3.860        140.00	    12.961
   3.880        140.83	    13.000
   3.900        128.33	    12.410
   3.920        167.50	    14.177
   3.940        139.17	    12.923
   3.960        161.67	    13.928
   3.980        141.67	    13.038
   4.000        139.17	    12.923
   4.020        145.83	    13.229
   4.040        150.83	    13.454
   4.060        155.83	    13.675
   4.080        129.17	    12.450
   4.100        160.83	    13.892
   4.120        134.17	    12.689
   4.140        127.50	    12.369
   4.160        134.17	    12.689
   4.180        132.50	    12.610
   4.200        142.50	    13.077
   4.220        140.83	    13.000
   4.240        134.17	    12.689
   4.260        130.83	    12.530
   4.280        147.50	    13.304
   4.300        130.83	    12.530
   4.320        129.17	    12.450
   4.340        131.67	    12.570
   4.360        128.33	    12.410
   4.380        139.17	    12.923
   4.400        132.50	    12.610
   4.420        118.33	    11.916
   4.440        122.50	    12.124
   4.460        131.67	    12.570
   4.480        115.83	    11.790
   4.500        121.67	    12.083
   4.520        132.50	    12.610
   4.540        128.33	    12.410
   4.560        121.67	    12.083
   4.580        102.50	    11.091
   4.600        123.33	    12.166
   4.620        120.00	    12.000
   4.640        119.17	    11.958
   4.660        121.67	    12.083
   4.680        119.17	    11.958
   4.700        122.50	    12.124
   4.720        128.33	    12.410
   4.740        101.67	    11.045
   4.760        104.17	    11.180
   4.780        104.17	    11.180
   4.800        103.33	    11.136
   4.820        123.33	    12.166
   4.840        107.50	    11.358
   4.860        104.17	    11.180
   4.880        107.50	    11.358
   4.900        111.67	    11.576
   4.920        116.67	    11.832
   4.940         99.17	    10.909
   4.960        114.17	    11.705
   4.980         91.67	    10.488
   5.000        126.67	    12.329
   5.020        122.50	    12.124
   5.040        112.50	    11.619
   5.060        119.17	    11.958
   5.080        110.83	    11.533
   5.100         97.50	    10.817
   5.120         90.83	    10.440
   5.140         94.17	    10.630
   5.160        110.83	    11.533
   5.180        110.83	    11.533
   5.200        106.67	    11.314
   5.220        103.33	    11.136
   5.240        107.50	    11.358
   5.260        105.83	    11.269
   5.280        110.00	    11.489
   5.300         85.83	    10.149
   5.320        101.67	    11.045
   5.340         86.67	    10.198
   5.360        114.17	    11.705
   5.380         98.33	    10.863
   5.400         99.17	    10.909
   5.420        114.17	    11.705
   5.440         93.33	    10.583
   5.460        101.67	    11.045
   5.480        105.00	    11.225
   5.500         90.00	    10.392
   5.520        106.67	    11.314
   5.540        101.67	    11.045
   5.560         92.50	    10.536
   5.580         98.33	    10.863
   5.600         97.50	    10.817
   5.620         90.00	    10.392
   5.640         96.67	    10.770
   5.660         90.00	    10.392
   5.680        101.67	    11.045
   5.700        102.50	    11.091
   5.720         90.00	    10.392
   5.740        101.67	    11.045
   5.760        108.33	    11.402
   5.780         80.00	     9.798
   5.800         85.83	    10.149
   5.820         95.00	    10.677
   5.840         93.33	    10.583
   5.860         98.33	    10.863
   5.880        102.50	    11.091
   5.900         85.83	    10.149
   5.920         93.33	    10.583
   5.940         99.17	    10.909
   5.960         92.50	    10.536
   5.980        107.50	    11.358
   6.000        113.33	    11.662
   6.020        120.00	    12.000
   6.040        103.33	    11.136
   6.060        103.33	    11.136
   6.080         97.50	    10.817
   6.100         95.83	    10.724
   6.120        127.50	    12.369
   6.140        101.67	    11.045
   6.160        106.67	    11.314
   6.180        112.50	    11.619
   6.200        120.83	    12.042
   6.220        135.00	    12.728
   6.240        134.17	    12.689
   6.260        136.67	    12.806
   6.280        145.83	    13.229
   6.300        152.50	    13.528
   6.320        170.00	    14.283
   6.340        151.67	    13.491
   6.360        181.67	    14.765
   6.380        153.33	    13.565
   6.400        146.67	    13.266
   6.420        135.83	    12.767
   6.440        114.17	    11.705
   6.460        120.83	    12.042
   6.480        120.83	    12.042
   6.500        126.67	    12.329
   6.520        115.00	    11.747
   6.540        103.33	    11.136
   6.560        108.33	    11.402
   6.580        102.50	    11.091
   6.600         87.50	    10.247
   6.620        102.50	    11.091
   6.640         97.50	    10.817
   6.660         96.67	    10.770
   6.680         96.67	    10.770
   6.700         89.17	    10.344
   6.720         80.83	     9.849
   6.740         80.83	     9.849
   6.760         83.33	    10.000
   6.780         82.50	     9.950
   6.800         86.67	    10.198
   6.820         84.17	    10.050
   6.840         85.83	    10.149
   6.860         77.50	     9.644
   6.880         85.83	    10.149
   6.900         99.17	    10.909
   6.920        105.00	    11.225
   6.940         78.33	     9.695
   6.960         88.33	    10.296
   6.980         87.50	    10.247
   7.000         90.00	    10.392
   7.020         81.67	     9.899
   7.040         90.83	    10.440
   7.060         97.50	    10.817
   7.080         98.33	    10.863
   7.100         85.83	    10.149
   7.120         77.50	     9.644
   7.140         92.50	    10.536
   7.160         89.17	    10.344
   7.180         79.17	     9.747
   7.200         82.50	     9.950
   7.220         95.00	    10.677
   7.240         91.67	    10.488
   7.260         85.00	    10.100
   7.280         78.33	     9.695
   7.300         91.67	    10.488
   7.320         89.17	    10.344
   7.340         80.83	     9.849
   7.360         84.17	    10.050
   7.380         79.17	     9.747
   7.400         82.50	     9.950
   7.420         68.33	     9.055
   7.440         75.83	     9.539
   7.460         69.17	     9.110
   7.480         89.17	    10.344
   7.500         90.00	    10.392
   7.520         77.50	     9.644
   7.540         80.00	     9.798
   7.560         97.50	    10.817
   7.580         93.33	    10.583
   7.600         86.67	    10.198
   7.620         69.17	     9.110
   7.640         84.17	    10.050
   7.660         60.83	     8.544
   7.680         79.17	     9.747
   7.700         93.33	    10.583
   7.720         75.83	     9.539
   7.740         65.83	     8.888
   7.760         87.50	    10.247
   7.780         77.50	     9.644
   7.800         72.50	     9.327
   7.820         80.83	     9.849
   7.840         80.83	     9.849
   7.860         67.50	     9.000
   7.880         74.17	     9.434
   7.900         63.33	     8.718
   7.920         83.33	    10.000
   7.940         65.83	     8.888
   7.960         70.83	     9.220
   7.980         77.50	     9.644
   8.000         70.00	     9.165
   8.020         67.50	     9.000
   8.040         75.00	     9.487
   8.060         76.67	     9.592
   8.080         71.67	     9.274
   8.100         90.83	    10.440
   8.120         75.00	     9.487
   8.140         75.83	     9.539
   8.160         80.83	     9.849
   8.180         93.33	    10.583
   8.200         74.17	     9.434
   8.220         77.50	     9.644
   8.240         69.17	     9.110
   8.260         80.83	     9.849
   8.280         78.33	     9.695
   8.300         64.17	     8.775
   8.320         70.83	     9.220
   8.340         65.83	     8.888
   8.360         77.50	     9.644
   8.380         88.33	    10.296
   8.400         75.00	     9.487
   8.420         75.83	     9.539
   8.440         76.67	     9.592
   8.460         72.50	     9.327
   8.480         68.33	     9.055
   8.500         76.67	     9.592
   8.520         62.50	     8.660
   8.540         82.50	     9.950
   8.560         89.17	    10.344
   8.580         93.33	    10.583
   8.600         92.50	    10.536
   8.620         85.83	    10.149
   8.640        112.50	    11.619
   8.660        104.17	    11.180
   8.680        103.33	    11.136
   8.700        101.67	    11.045
   8.720        115.83	    11.790
   8.740        110.00	    11.489
   8.760        138.33	    12.884
   8.780        121.67	    12.083
   8.800        139.17	    12.923
   8.820        155.00	    13.638
   8.840        160.00	    13.856
   8.860        199.17	    15.460
   8.880        267.50	    17.916
   8.900        258.33	    17.607
   8.920        289.17	    18.628
   8.940        325.00	    19.748
   8.960        435.00	    22.847
   8.980        568.33	    26.115
   9.000        733.33	    29.665
   9.020        969.17	    34.103
   9.040        955.00	    33.853
   9.060        633.33	    27.568
   9.080        310.00	    19.287
   9.100        185.83	    14.933
   9.120        111.67	    11.576
   9.140        115.00	    11.747
   9.160         88.33	    10.296
   9.180         88.33	    10.296
   9.200         78.33	     9.695
   9.220         90.00	    10.392
   9.240         70.00	     9.165
   9.260         91.67	    10.488
   9.280         97.50	    10.817
   9.300         98.33	    10.863
   9.320         80.00	     9.798
   9.340         70.00	     9.165
   9.360         75.00	     9.487
   9.380         65.00	     8.832
   9.400         64.17	     8.775
   9.420         62.50	     8.660
   9.440         76.67	     9.592
   9.460         55.00	     8.124
   9.480         52.50	     7.937
   9.500         69.17	     9.110
   9.520         65.00	     8.832
   9.540         85.00	    10.100
   9.560         98.33	    10.863
   9.580         85.00	    10.100
   9.600         85.83	    10.149
   9.620         73.33	     9.381
   9.640         72.50	     9.327
   9.660         58.33	     8.367
   9.680         60.83	     8.544
   9.700         53.33	     8.000
   9.720         60.00	     8.485
   9.740         66.67	     8.944
   9.760         65.83	     8.888
   9.780         54.17	     8.062
   9.800         50.00	     7.746
   9.820         63.33	     8.718
   9.840         59.17	     8.426
   9.860         62.50	     8.660
   9.880         65.83	     8.888
   9.900         61.67	     8.602
   9.920         68.33	     9.055
   9.940         56.67	     8.246
   9.960         55.83	     8.185
   9.980         49.17	     7.681
  10.000         50.00	     7.746
  10.020         51.67	     7.874
  10.040         49.17	     7.681
  10.060         53.33	     8.000
  10.080         64.17	     8.775
  10.100         59.17	     8.426
  10.120         45.83	     7.416
  10.140         58.33	     8.367
  10.160         48.33	     7.616
  10.180         45.83	     7.416
  10.200         47.50	     7.550
  10.220         43.33	     7.211
  10.240         40.00	     6.928
  10.260         44.17	     7.280
  10.280         41.67	     7.071
  10.300         58.33	     8.367
  10.320         70.83	     9.220
  10.340         56.67	     8.246
  10.360         46.67	     7.483
  10.380         46.67	     7.483
  10.400         44.17	     7.280
  10.420         44.17	     7.280
  10.440         64.17	     8.775
  10.460         55.83	     8.185
  10.480         57.50	     8.307
  10.500         38.33	     6.782
  10.520         50.83	     7.810
  10.540         47.50	     7.550
  10.560         53.33	     8.000
  10.580         77.50	     9.644
  10.600         82.50	     9.950
  10.620         67.50	     9.000
  10.640         82.50	     9.950
  10.660        125.83	    12.288
  10.680        140.83	    13.000
  10.700        109.17	    11.446
  10.720         70.83	     9.220
  10.740         67.50	     9.000
  10.760         55.83	     8.185
  10.780         48.33	     7.616
  10.800         59.17	     8.426
  10.820         44.17	     7.280
  10.840         50.00	     7.746
  10.860         55.00	     8.124
  10.880         48.33	     7.616
  10.900         47.50	     7.550
  10.920         51.67	     7.874
  10.940         55.00	     8.124
  10.960         49.17	     7.681
  10.980         45.00	     7.348
  11.000         43.33	     7.211
  11.020         34.17	     6.403
  11.040         39.17	     6.856
  11.060         50.00	     7.746
  11.080         36.67	     6.633
  11.100         45.00	     7.348
  11.120         55.00	     8.124
  11.140         49.17	     7.681
  11.160         52.50	     7.937
  11.180         52.50	     7.937
  11.200         42.50	     7.141
  11.220         45.00	     7.348
  11.240         44.17	     7.280
  11.260         50.83	     7.810
  11.280         41.67	     7.071
  11.300         53.33	     8.000
  11.320         39.17	     6.856
  11.340         46.67	     7.483
  11.360         45.00	     7.348
  11.380         45.83	     7.416
  11.400         60.00	     8.485
  11.420         40.00	     6.928
  11.440         41.67	     7.071
  11.460         45.00	     7.348
  11.480         43.33	     7.211
  11.500         38.33	     6.782
  11.520         46.67	     7.483
  11.540         40.83	     7.000
  11.560         45.83	     7.416
  11.580         44.17	     7.280
  11.600         52.50	     7.937
  11.620         40.00	     6.928
  11.640         54.17	     8.062
  11.660         46.67	     7.483
  11.680         50.00	     7.746
  11.700         46.67	     7.483
  11.720         53.33	     8.000
  11.740         49.17	     7.681
  11.760         35.83	     6.557
  11.780         40.83	     7.000
  11.800         50.83	     7.810
  11.820         55.00	     8.124
  11.840         48.33	     7.616
  11.860         66.67	     8.944
  11.880         44.17	     7.280
  11.900         54.17	     8.062
  11.920         47.50	     7.550
  11.940         50.00	     7.746
  11.960         50.00	     7.746
  11.980         50.00	     7.746
  12.000         52.50	     7.937
  12.020         55.83	     8.185
  12.040         50.00	     7.746
  12.060         61.67	     8.602
  12.080         61.67	     8.602
  12.100         65.00	     8.832
  12.120         62.50	     8.660
  12.140         87.50	    10.247
  12.160         71.67	     9.274
  12.180         99.17	    10.909
  12.200        101.67	    11.045
  12.220        133.33	    12.649
  12.240        153.33	    13.565
  12.260        215.83	    16.093
  12.280        397.50	    21.840
  12.300        655.83	    28.054
  12.320        860.83	    32.140
  12.340        809.17	    31.161
  12.360        610.83	    27.074
  12.380        385.83	    21.517
  12.400        320.83	    19.621
  12.420        235.00	    16.793
  12.440        235.83	    16.823
  12.460        307.50	    19.209
  12.480        275.83	    18.193
  12.500        307.50	    19.209
  12.520        339.17	    20.174
  12.540        279.17	    18.303
  12.560        265.83	    17.861
  12.580        298.33	    18.921
  12.600        372.50	    21.142
  12.620        421.67	    22.494
  12.640        458.33	    23.452
  12.660        411.67	    22.226
  12.680        274.17	    18.138
  12.700        177.50	    14.595
  12.720        122.50	    12.124
  12.740         94.17	    10.630
  12.760         85.00	    10.100
  12.780         80.83	     9.849
  12.800         74.17	     9.434
  12.820         64.17	     8.775
  12.840         66.67	     8.944
  12.860         69.17	     9.110
  12.880         50.00	     7.746
  12.900         46.67	     7.483
  12.920         60.83	     8.544
  12.940         60.83	     8.544
  12.960         40.00	     6.928
  12.980         65.00	     8.832
  13.000         44.17	     7.280
  13.020         51.67	     7.874
  13.040         52.50	     7.937
  13.060         47.50	     7.550
  13.080         50.83	     7.810
  13.100         36.67	     6.633
  13.120         47.50	     7.550
  13.140         45.00	     7.348
  13.160         52.50	     7.937
  13.180         43.33	     7.211
  13.200         35.00	     6.481
  13.220         51.67	     7.874
  13.240         37.50	     6.708
  13.260         38.33	     6.782
  13.280         50.00	     7.746
  13.300         54.17	     8.062
  13.320         43.33	     7.211
  13.340         37.50	     6.708
  13.360         45.00	     7.348
  13.380         49.17	     7.681
  13.400         27.50	     5.745
  13.420         40.00	     6.928
  13.440         56.67	     8.246
  13.460         43.33	     7.211
  13.480         45.83	     7.416
  13.500         43.33	     7.211
  13.520         49.17	     7.681
  13.540         51.67	     7.874
  13.560         38.33	     6.782
  13.580         44.17	     7.280
  13.600         42.50	     7.141
  13.620         35.83	     6.557
  13.640         35.00	     6.481
  13.660         45.00	     7.348
  13.680         35.00	     6.481
  13.700         39.17	     6.856
  13.720         45.00	     7.348
  13.740         37.50	     6.708
  13.760         59.17	     8.426
  13.780         59.17	     8.426
  13.800         75.00	     9.487
  13.820        104.17	    11.180
  13.840         95.83	    10.724
  13.860         77.50	     9.644
  13.880         71.67	     9.274
  13.900         49.17	     7.681
  13.920         49.17	     7.681
  13.940         55.83	     8.185
  13.960         77.50	     9.644
  13.980         98.33	    10.863
  14.000         78.33	     9.695
  14.020         79.17	     9.747
  14.040         55.00	     8.124
  14.060         49.17	     7.681
  14.080         40.00	     6.928
  14.100         42.50	     7.141
  14.120         48.33	     7.616
  14.140         47.50	     7.550
  14.160         48.33	     7.616
  14.180         53.33	     8.000
  14.200         65.83	     8.888
  14.220         53.33	     8.000
  14.240         39.17	     6.856
  14.260         31.67	     6.164
  14.280         35.83	     6.557
  14.300         42.50	     7.141
  14.320         35.83	     6.557
  14.340         34.17	     6.403
  14.360         35.83	     6.557
  14.380         38.33	     6.782
  14.400         27.50	     5.745
  14.420         35.83	     6.557
  14.440         40.00	     6.928
  14.460         25.00	     5.477
  14.480         25.83	     5.568
  14.500         29.17	     5.916
  14.520         35.83	     6.557
  14.540         32.50	     6.245
  14.560         30.00	     6.000
  14.580         38.33	     6.782
  14.600         33.33	     6.325
  14.620         36.67	     6.633
  14.640         43.33	     7.211
  14.660         28.33	     5.831
  14.680         36.67	     6.633
  14.700         37.50	     6.708
  14.720         30.83	     6.083
  14.740         36.67	     6.633
  14.760         34.17	     6.403
  14.780         34.17	     6.403
  14.800         25.83	     5.568
  14.820         35.00	     6.481
  14.840         28.33	     5.831
  14.860         29.17	     5.916
  14.880         27.50	     5.745
  14.900         31.67	     6.164
  14.920         32.50	     6.245
  14.940         30.00	     6.000
  14.960         34.17	     6.403
  14.980         29.17	     5.916
  15.000         30.83	     6.083
  15.020         38.33	     6.782
  15.040         42.50	     7.141
  15.060         52.50	     7.937
  15.080         40.00	     6.928
  15.100         49.17	     7.681
  15.120         37.50	     6.708
  15.140         34.17	     6.403
  15.160         46.67	     7.483
  15.180         31.67	     6.164
  15.200         44.17	     7.280
  15.220         30.00	     6.000
  15.240         43.33	     7.211
  15.260         38.33	     6.782
  15.280         30.00	     6.000
  15.300         36.67	     6.633
  15.320         26.67	     5.657
  15.340         24.17	     5.385
  15.360         43.33	     7.211
  15.380         35.83	     6.557
  15.400         29.17	     5.916
  15.420         31.67	     6.164
  15.440         30.83	     6.083
  15.460         28.33	     5.831
  15.480         29.17	     5.916
  15.500         35.83	     6.557
  15.520         32.50	     6.245
  15.540         38.33	     6.782
  15.560         30.83	     6.083
  15.580         21.67	     5.099
  15.600         25.83	     5.568
  15.620         32.50	     6.245
  15.640         32.50	     6.245
  15.660         31.67	     6.164
  15.680         36.67	     6.633
  15.700         28.33	     5.831
  15.720         33.33	     6.325
  15.740         23.33	     5.292
  15.760         35.83	     6.557
  15.780         28.33	     5.831
  15.800         30.83	     6.083
  15.820         33.33	     6.325
  15.840         33.33	     6.325
  15.860         19.17	     4.796
  15.880         31.67	     6.164
  15.900         30.00	     6.000
  15.920         30.83	     6.083
  15.940         25.83	     5.568
  15.960         39.17	     6.856
  15.980         35.83	     6.557
  16.000         30.83	     6.083
  16.020         33.33	     6.325
  16.040         37.50	     6.708
  16.060         37.50	     6.708
  16.080         30.83	     6.083
  16.100         31.67	     6.164
  16.120         34.17	     6.403
  16.140         28.33	     5.831
  16.160         45.00	     7.348
  16.180         34.17	     6.403
  16.200         37.50	     6.708
  16.220         35.83	     6.557
  16.240         30.00	     6.000
  16.260         28.33	     5.831
  16.280         31.67	     6.164
  16.300         25.83	     5.568
  16.320         27.50	     5.745
  16.340         29.17	     5.916
  16.360         27.50	     5.745
  16.380         25.83	     5.568
  16.400         35.00	     6.481
  16.420         32.50	     6.245
  16.440         25.00	     5.477
  16.460         32.50	     6.245
  16.480         26.67	     5.657
  16.500         40.00	     6.928
  16.520         46.67	     7.483
  16.540         28.33	     5.831
  16.560         34.17	     6.403
  16.580         34.17	     6.403
  16.600         32.50	     6.245
  16.620         31.67	     6.164
  16.640         30.00	     6.000
  16.660         25.00	     5.477
  16.680         40.00	     6.928
  16.700         39.17	     6.856
  16.720         34.17	     6.403
  16.740         30.00	     6.000
  16.760         28.33	     5.831
  16.780         31.67	     6.164
  16.800         34.17	     6.403
  16.820         23.33	     5.292
  16.840         29.17	     5.916
  16.860         30.83	     6.083
  16.880         30.00	     6.000
  16.900         32.50	     6.245
  16.920         28.33	     5.831
  16.940         26.67	     5.657
  16.960         40.00	     6.928
  16.980         20.00	     4.899
  17.000         26.67	     5.657
  17.020         28.33	     5.831
  17.040         40.83	     7.000
  17.060         33.33	     6.325
  17.080         27.50	     5.745
  17.100         25.83	     5.568
  17.120         26.67	     5.657
  17.140         25.83	     5.568
  17.160         33.33	     6.325
  17.180         30.00	     6.000
  17.200         39.17	     6.856
  17.220         31.67	     6.164
  17.240         24.17	     5.385
  17.260         29.17	     5.916
  17.280         29.17	     5.916
  17.300         35.00	     6.481
  17.320         40.00	     6.928
  17.340         32.50	     6.245
  17.360         26.67	     5.657
  17.380         31.67	     6.164
  17.400         35.00	     6.481
  17.420         26.67	     5.657
  17.440         35.83	     6.557
  17.460         34.17	     6.403
  17.480         35.83	     6.557
  17.500         35.00	     6.481
  17.520         30.83	     6.083
  17.540         27.50	     5.745
  17.560         42.50	     7.141
  17.580         39.17	     6.856
  17.600         35.00	     6.481
  17.620         34.17	     6.403
  17.640         44.17	     7.280
  17.660         26.67	     5.657
  17.680         29.17	     5.916
  17.700         48.33	     7.616
  17.720         51.67	     7.874
  17.740         55.00	     8.124
  17.760         47.50	     7.550
  17.780         50.00	     7.746
  17.800         50.00	     7.746
  17.820         64.17	     8.775
  17.840         70.83	     9.220
  17.860        107.50	    11.358
  17.880        144.17	    13.153
  17.900        206.67	    15.748
  17.920        304.17	    19.105
  17.940        365.83	    20.952
  17.960        400.00	    21.909
  17.980        326.67	    19.799
  18.000        260.00	    17.664
  18.020        181.67	    14.765
  18.040        124.17	    12.207
  18.060         80.00	     9.798
  18.080         60.83	     8.544
  18.100         40.83	     7.000
  18.120         43.33	     7.211
  18.140         35.00	     6.481
  18.160         43.33	     7.211
  18.180         29.17	     5.916
  18.200         29.17	     5.916
  18.220         40.00	     6.928
  18.240         48.33	     7.616
  18.260         44.17	     7.280
  18.280         40.83	     7.000
  18.300         33.33	     6.325
  18.320         40.83	     7.000
  18.340         43.33	     7.211
  18.360         31.67	     6.164
  18.380         47.50	     7.550
  18.400         44.17	     7.280
  18.420         35.83	     6.557
  18.440         29.17	     5.916
  18.460         41.67	     7.071
  18.480         45.00	     7.348
  18.500         53.33	     8.000
  18.520         63.33	     8.718
  18.540         70.00	     9.165
  18.560         66.67	     8.944
  18.580         73.33	     9.381
  18.600         58.33	     8.367
  18.620         65.83	     8.888
  18.640         84.17	    10.050
  18.660        116.67	    11.832
  18.680        131.67	    12.570
  18.700        160.83	    13.892
  18.720        205.00	    15.684
  18.740        187.50	    15.000
  18.760        146.67	    13.266
  18.780        140.83	    13.000
  18.800        121.67	    12.083
  18.820        101.67	    11.045
  18.840        124.17	    12.207
  18.860        140.83	    13.000
  18.880        155.00	    13.638
  18.900        179.17	    14.663
  18.920        200.83	    15.524
  18.940        190.00	    15.100
  18.960        175.83	    14.526
  18.980        113.33	    11.662
  19.000         84.17	    10.050
  19.020         69.17	     9.110
  19.040         57.50	     8.307
  19.060         65.83	     8.888
  19.080         41.67	     7.071
  19.100         34.17	     6.403
  19.120         36.67	     6.633
  19.140         35.83	     6.557
  19.160         45.83	     7.416
  19.180         30.83	     6.083
  19.200         36.67	     6.633
  19.220         28.33	     5.831
  19.240         43.33	     7.211
  19.260         35.83	     6.557
  19.280         27.50	     5.745
  19.300         25.83	     5.568
  19.320         35.00	     6.481
  19.340         41.67	     7.071
  19.360         39.17	     6.856
  19.380         42.50	     7.141
  19.400         39.17	     6.856
  19.420         44.17	     7.280
  19.440         46.67	     7.483
  19.460         40.83	     7.000
  19.480         41.67	     7.071
  19.500         30.00	     6.000
  19.520         25.00	     5.477
  19.540         42.50	     7.141
  19.560         33.33	     6.325
  19.580         40.00	     6.928
  19.600         42.50	     7.141
  19.620         45.83	     7.416
  19.640         25.83	     5.568
  19.660         34.17	     6.403
  19.680         31.67	     6.164
  19.700         27.50	     5.745
  19.720         29.17	     5.916
  19.740         51.67	     7.874
  19.760         38.33	     6.782
  19.780         56.67	     8.246
  19.800         78.33	     9.695
  19.820        101.67	    11.045
  19.840         63.33	     8.718
  19.860         66.67	     8.944
  19.880         61.67	     8.602
  19.900         55.83	     8.185
  19.920         52.50	     7.937
  19.940         52.50	     7.937
  19.960         60.00	     8.485
  19.980         47.50	     7.550
  20.000         69.17	     9.110
  20.020         67.50	     9.000
  20.040         90.83	    10.440
  20.060        136.67	    12.806
  20.080         70.00	     9.165
  20.100         87.50	    10.247
  20.120         63.33	     8.718
  20.140         49.17	     7.681
  20.160         36.67	     6.633
  20.180         38.33	     6.782
  20.200         35.83	     6.557
  20.220         31.67	     6.164
  20.240         39.17	     6.856
  20.260         32.50	     6.245
  20.280         28.33	     5.831
  20.300         35.00	     6.481
  20.320         31.67	     6.164
  20.340         36.67	     6.633
  20.360         35.83	     6.557
  20.380         34.17	     6.403
  20.400         31.67	     6.164
  20.420         35.83	     6.557
  20.440         33.33	     6.325
  20.460         31.67	     6.164
  20.480         35.83	     6.557
  20.500         33.33	     6.325
  20.520         26.67	     5.657
  20.540         30.00	     6.000
  20.560         34.17	     6.403
  20.580         35.83	     6.557
  20.600         25.00	     5.477
  20.620         31.67	     6.164
  20.640         44.17	     7.280
  20.660         33.33	     6.325
  20.680         31.67	     6.164
  20.700         26.67	     5.657
  20.720         38.33	     6.782
  20.740         40.00	     6.928
  20.760         37.50	     6.708
  20.780         40.83	     7.000
  20.800         40.83	     7.000
  20.820         40.83	     7.000
  20.840         47.50	     7.550
  20.860         42.50	     7.141
  20.880         53.33	     8.000
  20.900         49.17	     7.681
  20.920         79.17	     9.747
  20.940        109.17	    11.446
  20.960        189.17	    15.067
  20.980        295.83	    18.841
  21.000        289.17	    18.628
  21.020        229.17	    16.583
  21.040        197.50	    15.395
  21.060        164.17	    14.036
  21.080        116.67	    11.832
  21.100        114.17	    11.705
  21.120         97.50	    10.817
  21.140         94.17	    10.630
  21.160         95.83	    10.724
  21.180         92.50	    10.536
  21.200         67.50	     9.000
  21.220         65.00	     8.832
  21.240         57.50	     8.307
  21.260         47.50	     7.550
  21.280         29.17	     5.916
  21.300         33.33	     6.325
  21.320         32.50	     6.245
  21.340         33.33	     6.325
  21.360         47.50	     7.550
  21.380         27.50	     5.745
  21.400         30.00	     6.000
  21.420         43.33	     7.211
  21.440         37.50	     6.708
  21.460         31.67	     6.164
  21.480         35.83	     6.557
  21.500         41.67	     7.071
  21.520         35.00	     6.481
  21.540         30.00	     6.000
  21.560         30.00	     6.000
  21.580         30.00	     6.000
  21.600         28.33	     5.831
  21.620         25.83	     5.568
  21.640         28.33	     5.831
  21.660         26.67	     5.657
  21.680         33.33	     6.325
  21.700         38.33	     6.782
  21.720         41.67	     7.071
  21.740         45.00	     7.348
  21.760         31.67	     6.164
  21.780         35.83	     6.557
  21.800         34.17	     6.403
  21.820         37.50	     6.708
  21.840         33.33	     6.325
  21.860         36.67	     6.633
  21.880         32.50	     6.245
  21.900         38.33	     6.782
  21.920         30.83	     6.083
  21.940         25.83	     5.568
  21.960         41.67	     7.071
  21.980         27.50	     5.745
  22.000         24.17	     5.385
  22.020         38.33	     6.782
  22.040         30.00	     6.000
  22.060         35.83	     6.557
  22.080         46.67	     7.483
  22.100         60.00	     8.485
  22.120         63.33	     8.718
  22.140        133.33	    12.649
  22.160        182.50	    14.799
  22.180        210.00	    15.875
  22.200        186.67	    14.967
  22.220        157.50	    13.748
  22.240        135.83	    12.767
  22.260         92.50	    10.536
  22.280         75.83	     9.539
  22.300         65.00	     8.832
  22.320         52.50	     7.937
  22.340         37.50	     6.708
  22.360         56.67	     8.246
  22.380         30.83	     6.083
  22.400         47.50	     7.550
  22.420         28.33	     5.831
  22.440         38.33	     6.782
  22.460         30.00	     6.000
  22.480         41.67	     7.071
  22.500         36.67	     6.633
  22.520         29.17	     5.916
  22.540         39.17	     6.856
  22.560         35.83	     6.557
  22.580         31.67	     6.164
  22.600         43.33	     7.211
  22.620         39.17	     6.856
  22.640         35.00	     6.481
  22.660         42.50	     7.141
  22.680         43.33	     7.211
  22.700         42.50	     7.141
  22.720         29.17	     5.916
  22.740         36.67	     6.633
  22.760         38.33	     6.782
  22.780         40.83	     7.000
  22.800         25.83	     5.568
  22.820         30.00	     6.000
  22.840         35.00	     6.481
  22.860         20.83	     5.000
  22.880         43.33	     7.211
  22.900         45.00	     7.348
  22.920         36.67	     6.633
  22.940         45.83	     7.416
  22.960         60.00	     8.485
  22.980        127.50	    12.369
  23.000        189.17	    15.067
  23.020        201.67	    15.556
  23.040        135.83	    12.767
  23.060        121.67	    12.083
  23.080        120.00	    12.000
  23.100         74.17	     9.434
  23.120         53.33	     8.000
  23.140         55.83	     8.185
  23.160         67.50	     9.000
  23.180         53.33	     8.000
  23.200         49.17	     7.681
  23.220         58.33	     8.367
  23.240         56.67	     8.246
  23.260         40.00	     6.928
  23.280         32.50	     6.245
  23.300         30.83	     6.083
  23.320         26.67	     5.657
  23.340         40.83	     7.000
  23.360         35.83	     6.557
  23.380         29.17	     5.916
  23.400         26.67	     5.657
  23.420         32.50	     6.245
  23.440         25.00	     5.477
  23.460         26.67	     5.657
  23.480         31.67	     6.164
  23.500         38.33	     6.782
  23.520         37.50	     6.708
  23.540         31.67	     6.164
  23.560         42.50	     7.141
  23.580         52.50	     7.937
  23.600         52.50	     7.937
  23.620         61.67	     8.602
  23.640         90.83	    10.440
  23.660        126.67	    12.329
  23.680        137.50	    12.845
  23.700        120.83	    12.042
  23.720        103.33	    11.136
  23.740        106.67	    11.314
  23.760         78.33	     9.695
  23.780         65.00	     8.832
  23.800         65.83	     8.888
  23.820         54.17	     8.062
  23.840         57.50	     8.307
  23.860         47.50	     7.550
  23.880         48.33	     7.616
  23.900         56.67	     8.246
  23.920         43.33	     7.211
  23.940         46.67	     7.483
  23.960         55.00	     8.124
  23.980         50.83	     7.810
  24.000         45.83	     7.416
  24.020         59.17	     8.426
  24.040         48.33	     7.616
  24.060         45.00	     7.348
  24.080         32.50	     6.245
  24.100         44.17	     7.280
  24.120         50.00	     7.746
  24.140         45.83	     7.416
  24.160         54.17	     8.062
  24.180         52.50	     7.937
  24.200         50.83	     7.810
  24.220         55.00	     8.124
  24.240         62.50	     8.660
  24.260         59.17	     8.426
  24.280         60.00	     8.485
  24.300         49.17	     7.681
  24.320         75.83	     9.539
  24.340         46.67	     7.483
  24.360         70.00	     9.165
  24.380         79.17	     9.747
  24.400         70.00	     9.165
  24.420         82.50	     9.950
  24.440         60.83	     8.544
  24.460         69.17	     9.110
  24.480         72.50	     9.327
  24.500         64.17	     8.775
  24.520         60.83	     8.544
  24.540         73.33	     9.381
  24.560         63.33	     8.718
  24.580         81.67	     9.899
  24.600         85.00	    10.100
  24.620        105.83	    11.269
  24.640        155.83	    13.675
  24.660        224.17	    16.401
  24.680        335.00	    20.050
  24.700        361.67	    20.833
  24.720        432.50	    22.782
  24.740        490.00	    24.249
  24.760        455.83	    23.388
  24.780        424.17	    22.561
  24.800        353.33	    20.591
  24.820        300.83	    19.000
  24.840        219.17	    16.217
  24.860        177.50	    14.595
  24.880        181.67	    14.765
  24.900        160.83	    13.892
  24.920        152.50	    13.528
  24.940        185.00	    14.900
  24.960        175.83	    14.526
  24.980        203.33	    15.620
  25.000        230.00	    16.613
  25.020        204.17	    15.652
  25.040        170.00	    14.283
  25.060        145.00	    13.191
  25.080        150.83	    13.454
  25.100        112.50	    11.619
  25.120        133.33	    12.649
  25.140        151.67	    13.491
  25.160        162.50	    13.964
  25.180        190.83	    15.133
  25.200        190.83	    15.133
  25.220        225.00	    16.432
  25.240        318.33	    19.545
  25.260        336.67	    20.100
  25.280        342.50	    20.273
  25.300        346.67	    20.396
  25.320        277.50	    18.248
  25.340        231.67	    16.673
  25.360        190.83	    15.133
  25.380        161.67	    13.928
  25.400        127.50	    12.369
  25.420        100.00	    10.954
  25.440        105.83	    11.269
  25.460        135.00	    12.728
  25.480        110.00	    11.489
  25.500        127.50	    12.369
  25.520        113.33	    11.662
  25.540         98.33	    10.863
  25.560        105.83	    11.269
  25.580         95.83	    10.724
  25.600         85.83	    10.149
  25.620        105.00	    11.225
  25.640        103.33	    11.136
  25.660        105.83	    11.269
  25.680        100.00	    10.954
  25.700         93.33	    10.583
  25.720         82.50	     9.950
  25.740         99.17	    10.909
  25.760         82.50	     9.950
  25.780         96.67	    10.770
  25.800         81.67	     9.899
  25.820         73.33	     9.381
  25.840         79.17	     9.747
  25.860         79.17	     9.747
  25.880         57.50	     8.307
  25.900         65.83	     8.888
  25.920         65.83	     8.888
  25.940         50.83	     7.810
  25.960         55.00	     8.124
  25.980         60.83	     8.544
  26.000         59.17	     8.426
  26.020         54.17	     8.062
  26.040         56.67	     8.246
  26.060         50.00	     7.746
  26.080         52.50	     7.937
  26.100         50.83	     7.810
  26.120         47.50	     7.550
  26.140         59.17	     8.426
  26.160         54.17	     8.062
  26.180         50.83	     7.810
  26.200         50.00	     7.746
  26.220         51.67	     7.874
  26.240         55.00	     8.124
  26.260         64.17	     8.775
  26.280         71.67	     9.274
  26.300         68.33	     9.055
  26.320         60.83	     8.544
  26.340         82.50	     9.950
  26.360         76.67	     9.592
  26.380         77.50	     9.644
  26.400         89.17	    10.344
  26.420        128.33	    12.410
  26.440        160.83	    13.892
  26.460        111.67	    11.576
  26.480        163.33	    14.000
  26.500        155.00	    13.638
  26.520        179.17	    14.663
  26.540        166.67	    14.142
  26.560        165.83	    14.107
  26.580        184.17	    14.866
  26.600        234.17	    16.763
  26.620        270.83	    18.028
  26.640        333.33	    20.000
  26.660        310.00	    19.287
  26.680        345.83	    20.372
  26.700        377.50	    21.284
  26.720        527.50	    25.159
  26.740       1075.00	    35.917
  26.760       2120.00	    50.438
  26.780       2480.83	    54.562
  26.800       1835.83	    46.936
  26.820       1558.33	    43.243
  26.840       1663.33	    44.677
  26.860       1279.17	    39.179
  26.880        778.33	    30.561
  26.900        542.50	    25.515
  26.920        603.33	    26.907
  26.940        655.83	    28.054
  26.960        761.67	    30.232
  26.980        980.83	    34.307
  27.000       1007.50	    34.771
  27.020        965.83	    34.044
  27.040        902.50	    32.909
  27.060        753.33	    30.067
  27.080        589.17	    26.589
  27.100        459.17	    23.473
  27.120        313.33	    19.391
  27.140        257.50	    17.578
  27.160        180.83	    14.731
  27.180        140.00	    12.961
  27.200        112.50	    11.619
  27.220         90.83	    10.440
  27.240         95.00	    10.677
  27.260         82.50	     9.950
  27.280         75.83	     9.539
  27.300         74.17	     9.434
  27.320         85.00	    10.100
  27.340        105.83	    11.269
  27.360        100.83	    11.000
  27.380         89.17	    10.344
  27.400         90.83	    10.440
  27.420        100.83	    11.000
  27.440        128.33	    12.410
  27.460        162.50	    13.964
  27.480        183.33	    14.832
  27.500        226.67	    16.492
  27.520        246.67	    17.205
  27.540        273.33	    18.111
  27.560        355.00	    20.640
  27.580        494.17	    24.352
  27.600        762.50	    30.249
  27.620       1168.33	    37.443
  27.640       1835.00	    46.925
  27.660       3029.17	    60.291
  27.680       4583.33	    74.162
  27.700       4606.67	    74.351
  27.720       3141.67	    61.400
  27.740       2770.83	    57.663
  27.760       2589.17	    55.740
  27.780       1883.33	    47.539
  27.800        787.50	    30.741
  27.820        484.17	    24.104
  27.840        379.17	    21.331
  27.860        345.83	    20.372
  27.880        296.67	    18.868
  27.900        293.33	    18.762
  27.920        305.00	    19.131
  27.940        260.00	    17.664
  27.960        275.00	    18.166
  27.980        272.50	    18.083
  28.000        405.00	    22.045
  28.020        509.17	    24.718
  28.040        499.17	    24.474
  28.060        512.50	    24.799
  28.080        475.00	    23.875
  28.100        510.83	    24.759
  28.120        345.00	    20.347
  28.140        241.67	    17.029
  28.160        223.33	    16.371
  28.180        203.33	    15.620
  28.200        127.50	    12.369
  28.220        123.33	    12.166
  28.240        114.17	    11.705
  28.260        130.83	    12.530
  28.280        130.83	    12.530
  28.300        100.83	    11.000
  28.320         98.33	    10.863
  28.340         98.33	    10.863
  28.360         75.00	     9.487
  28.380         77.50	     9.644
  28.400         70.83	     9.220
  28.420        103.33	    11.136
  28.440         80.83	     9.849
  28.460         78.33	     9.695
  28.480         84.17	    10.050
  28.500         81.67	     9.899
  28.520         75.00	     9.487
  28.540         87.50	    10.247
  28.560         81.67	     9.899
  28.580         59.17	     8.426
  28.600         74.17	     9.434
  28.620         71.67	     9.274
  28.640         78.33	     9.695
  28.660        123.33	    12.166
  28.680        112.50	    11.619
  28.700        125.00	    12.247
  28.720        142.50	    13.077
  28.740        184.17	    14.866
  28.760        157.50	    13.748
  28.780        139.17	    12.923
  28.800        147.50	    13.304
  28.820        140.00	    12.961
  28.840        122.50	    12.124
  28.860         95.00	    10.677
  28.880         80.83	     9.849
  28.900         75.83	     9.539
  28.920         80.00	     9.798
  28.940         68.33	     9.055
  28.960         45.00	     7.348
  28.980         62.50	     8.660
  29.000         45.00	     7.348
  29.020         51.67	     7.874
  29.040         43.33	     7.211
  29.060         41.67	     7.071
  29.080         43.33	     7.211
  29.100         39.17	     6.856
  29.120         36.67	     6.633
  29.140         41.67	     7.071
  29.160         47.50	     7.550
  29.180         30.83	     6.083
  29.200         49.17	     7.681
  29.220         38.33	     6.782
  29.240         23.33	     5.292
  29.260         30.83	     6.083
  29.280         39.17	     6.856
  29.300         39.17	     6.856
  29.320         38.33	     6.782
  29.340         43.33	     7.211
  29.360         32.50	     6.245
  29.380         32.50	     6.245
  29.400         29.17	     5.916
  29.420         45.83	     7.416
  29.440         30.83	     6.083
  29.460         38.33	     6.782
  29.480         44.17	     7.280
  29.500         37.50	     6.708
  29.520         39.17	     6.856
  29.540         37.50	     6.708
  29.560         58.33	     8.367
  29.580         45.83	     7.416
  29.600         40.00	     6.928
  29.620         31.67	     6.164
  29.640         39.17	     6.856
  29.660         37.50	     6.708
  29.680         35.83	     6.557
  29.700         32.50	     6.245
  29.720         33.33	     6.325
  29.740         37.50	     6.708
  29.760         39.17	     6.856
  29.780         51.67	     7.874
  29.800         39.17	     6.856
  29.820         46.67	     7.483
  29.840         55.00	     8.124
  29.860         44.17	     7.280
  29.880         49.17	     7.681
  29.900         58.33	     8.367
  29.920         62.50	     8.660
  29.940         75.00	     9.487
  29.960         75.00	     9.487
  29.980         90.00	    10.392
  30.000        100.00	    10.954
  30.020         87.50	    10.247
  30.040         86.67	    10.198
  30.060         80.83	     9.849
  30.080         72.50	     9.327
  30.100         64.17	     8.775
  30.120         68.33	     9.055
  30.140         55.00	     8.124
  30.160         50.83	     7.810
  30.180         55.00	     8.124
  30.200        100.00	    10.954
  30.220        105.83	    11.269
  30.240         76.67	     9.592
  30.260         71.67	     9.274
  30.280         88.33	    10.296
  30.300        112.50	    11.619
  30.320        113.33	    11.662
  30.340        125.00	    12.247
  30.360         94.17	    10.630
  30.380        109.17	    11.446
  30.400         98.33	    10.863
  30.420         77.50	     9.644
  30.440         68.33	     9.055
  30.460         76.67	     9.592
  30.480         61.67	     8.602
  30.500         54.17	     8.062
  30.520         50.83	     7.810
  30.540         52.50	     7.937
  30.560         54.17	     8.062
  30.580         68.33	     9.055
  30.600         73.33	     9.381
  30.620         62.50	     8.660
  30.640         67.50	     9.000
  30.660         94.17	    10.630
  30.680         77.50	     9.644
  30.700        104.17	    11.180
  30.720        118.33	    11.916
  30.740         86.67	    10.198
  30.760         55.83	     8.185
  30.780         60.00	     8.485
  30.800         64.17	     8.775
  30.820         55.00	     8.124
  30.840         40.83	     7.000
  30.860         50.83	     7.810
  30.880         40.00	     6.928
  30.900         45.83	     7.416
  30.920         37.50	     6.708
  30.940         49.17	     7.681
  30.960         50.00	     7.746
  30.980         60.00	     8.485
  31.000         73.33	     9.381
  31.020         70.00	     9.165
  31.040         45.83	     7.416
  31.060         56.67	     8.246
  31.080         40.83	     7.000
  31.100         43.33	     7.211
  31.120         31.67	     6.164
  31.140         37.50	     6.708
  31.160         30.83	     6.083
  31.180         40.83	     7.000
  31.200         55.00	     8.124
  31.220         40.00	     6.928
  31.240         40.83	     7.000
  31.260         70.83	     9.220
  31.280         65.00	     8.832
  31.300         65.00	     8.832
  31.320         66.67	     8.944
  31.340         73.33	     9.381
  31.360         71.67	     9.274
  31.380         87.50	    10.247
  31.400         80.83	     9.849
  31.420         84.17	    10.050
  31.440         72.50	     9.327
  31.460         75.00	     9.487
  31.480         70.00	     9.165
  31.500         70.00	     9.165
  31.520         74.17	     9.434
  31.540         63.33	     8.718
  31.560         62.50	     8.660
  31.580         70.00	     9.165
  31.600         50.00	     7.746
  31.620         60.83	     8.544
  31.640         66.67	     8.944
  31.660         75.00	     9.487
  31.680         82.50	     9.950
  31.700         81.67	     9.899
  31.720         71.67	     9.274
  31.740         79.17	     9.747
  31.760         80.00	     9.798
  31.780         55.83	     8.185
  31.800         56.67	     8.246
  31.820         65.00	     8.832
  31.840         45.00	     7.348
  31.860         42.50	     7.141
  31.880         44.17	     7.280
  31.900         28.33	     5.831
  31.920         30.83	     6.083
  31.940         35.83	     6.557
  31.960         46.67	     7.483
  31.980         47.50	     7.550
  32.000         42.50	     7.141
  32.020         39.17	     6.856
  32.040         35.00	     6.481
  32.060         32.50	     6.245
  32.080         39.17	     6.856
  32.100         35.00	     6.481
  32.120         36.67	     6.633
  32.140         40.00	     6.928
  32.160         30.00	     6.000
  32.180         45.83	     7.416
  32.200         59.17	     8.426
  32.220         58.33	     8.367
  32.240         48.33	     7.616
  32.260         31.67	     6.164
  32.280         43.33	     7.211
  32.300         55.83	     8.185
  32.320         50.00	     7.746
  32.340         38.33	     6.782
  32.360         43.33	     7.211
  32.380         38.33	     6.782
  32.400         31.67	     6.164
  32.420         43.33	     7.211
  32.440         36.67	     6.633
  32.460         31.67	     6.164
  32.480         28.33	     5.831
  32.500         30.83	     6.083
  32.520         24.17	     5.385
  32.540         32.50	     6.245
  32.560         25.83	     5.568
  32.580         17.50	     4.583
  32.600         27.50	     5.745
  32.620         40.83	     7.000
  32.640         25.83	     5.568
  32.660         22.50	     5.196
  32.680         24.17	     5.385
  32.700         23.33	     5.292
  32.720         23.33	     5.292
  32.740         15.83	     4.359
  32.760         20.83	     5.000
  32.780         24.17	     5.385
  32.800         22.50	     5.196
  32.820         25.83	     5.568
  32.840         30.00	     6.000
  32.860         32.50	     6.245
  32.880         25.83	     5.568
  32.900         19.17	     4.796
  32.920         24.17	     5.385
  32.940         26.67	     5.657
  32.960         16.67	     4.472
  32.980         28.33	     5.831
  33.000         23.33	     5.292
  33.020         30.00	     6.000
  33.040         27.50	     5.745
  33.060         25.83	     5.568
  33.080         25.00	     5.477
  33.100         26.67	     5.657
  33.120         29.17	     5.916
  33.140         32.50	     6.245
  33.160         42.50	     7.141
  33.180         53.33	     8.000
  33.200         44.17	     7.280
  33.220         39.17	     6.856
  33.240         35.83	     6.557
  33.260         48.33	     7.616
  33.280         45.00	     7.348
  33.300         40.83	     7.000
  33.320         40.00	     6.928
  33.340         28.33	     5.831
  33.360         26.67	     5.657
  33.380         30.00	     6.000
  33.400         25.00	     5.477
  33.420         27.50	     5.745
  33.440         29.17	     5.916
  33.460         27.50	     5.745
  33.480         25.83	     5.568
  33.500         30.83	     6.083
  33.520         37.50	     6.708
  33.540         37.50	     6.708
  33.560         39.17	     6.856
  33.580         49.17	     7.681
  33.600         50.00	     7.746
  33.620         45.83	     7.416
  33.640         35.83	     6.557
  33.660         28.33	     5.831
  33.680         40.00	     6.928
  33.700         30.83	     6.083
  33.720         20.00	     4.899
  33.740         27.50	     5.745
  33.760         19.17	     4.796
  33.780         22.50	     5.196
  33.800         29.17	     5.916
  33.820         33.33	     6.325
  33.840         25.83	     5.568
  33.860         24.17	     5.385
  33.880         28.33	     5.831
  33.900         35.00	     6.481
  33.920         28.33	     5.831
  33.940         28.33	     5.831
  33.960         26.67	     5.657
  33.980         27.50	     5.745
  34.000         29.17	     5.916
  34.020         28.33	     5.831
  34.040         18.33	     4.690
  34.060         30.83	     6.083
  34.080         25.00	     5.477
  34.100         39.17	     6.856
  34.120         36.67	     6.633
  34.140         26.67	     5.657
  34.160         30.83	     6.083
  34.180         34.17	     6.403
  34.200         26.67	     5.657
  34.220         23.33	     5.292
  34.240         28.33	     5.831
  34.260         32.50	     6.245
  34.280         40.83	     7.000
  34.300         29.17	     5.916
  34.320         37.50	     6.708
  34.340         28.33	     5.831
  34.360         26.67	     5.657
  34.380         30.83	     6.083
  34.400         20.83	     5.000
  34.420         41.67	     7.071
  34.440         48.33	     7.616
  34.460         41.67	     7.071
  34.480         42.50	     7.141
  34.500         50.83	     7.810
  34.520         32.50	     6.245
  34.540         34.17	     6.403
  34.560         41.67	     7.071
  34.580         36.67	     6.633
  34.600         35.00	     6.481
  34.620         44.17	     7.280
  34.640         46.67	     7.483
  34.660         65.00	     8.832
  34.680         49.17	     7.681
  34.700         60.83	     8.544
  34.720         50.83	     7.810
  34.740         51.67	     7.874
  34.760         55.00	     8.124
  34.780         45.00	     7.348
  34.800         41.67	     7.071
  34.820         36.67	     6.633
  34.840         31.67	     6.164
  34.860         33.33	     6.325
  34.880         37.50	     6.708
  34.900         35.83	     6.557
  34.920         34.17	     6.403
  34.940         30.00	     6.000
  34.960         46.67	     7.483
  34.980         41.67	     7.071
  35.000         49.17	     7.681
  35.020         42.50	     7.141
  35.040         49.17	     7.681
  35.060         53.33	     8.000
  35.080         50.83	     7.810
  35.100         61.67	     8.602
  35.120         79.17	     9.747
  35.140         74.17	     9.434
  35.160         55.00	     8.124
  35.180         65.83	     8.888
  35.200         51.67	     7.874
  35.220         54.17	     8.062
  35.240         61.67	     8.602
  35.260         45.83	     7.416
  35.280         49.17	     7.681
  35.300         60.83	     8.544
  35.320         55.83	     8.185
  35.340         38.33	     6.782
  35.360         33.33	     6.325
  35.380         46.67	     7.483
  35.400         33.33	     6.325
  35.420         41.67	     7.071
  35.440         44.17	     7.280
  35.460         28.33	     5.831
  35.480         40.83	     7.000
  35.500         35.00	     6.481
  35.520         45.83	     7.416
  35.540         52.50	     7.937
  35.560         50.00	     7.746
  35.580         61.67	     8.602
  35.600         50.00	     7.746
  35.620         91.67	    10.488
  35.640         75.00	     9.487
  35.660         75.83	     9.539
  35.680        105.83	    11.269
  35.700         85.83	    10.149
  35.720         98.33	    10.863
  35.740         98.33	    10.863
  35.760         92.50	    10.536
  35.780         84.17	    10.050
  35.800         77.50	     9.644
  35.820         55.83	     8.185
  35.840         52.50	     7.937
  35.860         60.00	     8.485
  35.880         52.50	     7.937
  35.900         38.33	     6.782
  35.920         48.33	     7.616
  35.940         42.50	     7.141
  35.960         49.17	     7.681
  35.980         40.00	     6.928
  36.000         38.33	     6.782
  36.020         44.17	     7.280
  36.040         44.17	     7.280
  36.060         44.17	     7.280
  36.080         48.33	     7.616
  36.100         41.67	     7.071
  36.120         45.00	     7.348
  36.140         65.83	     8.888
  36.160         77.50	     9.644
  36.180         75.83	     9.539
  36.200         75.83	     9.539
  36.220         79.17	     9.747
  36.240        100.83	    11.000
  36.260        103.33	    11.136
  36.280         89.17	    10.344
  36.300         76.67	     9.592
  36.320         59.17	     8.426
  36.340         46.67	     7.483
  36.360         59.17	     8.426
  36.380         47.50	     7.550
  36.400         46.67	     7.483
  36.420         36.67	     6.633
  36.440         46.67	     7.483
  36.460         35.00	     6.481
  36.480         36.67	     6.633
  36.500         45.00	     7.348
  36.520         50.83	     7.810
  36.540         55.00	     8.124
  36.560         54.17	     8.062
  36.580         90.83	    10.440
  36.600         95.00	    10.677
  36.620        100.00	    10.954
  36.640        159.17	    13.820
  36.660        247.50	    17.234
  36.680        385.00	    21.494
  36.700        320.83	    19.621
  36.720        210.83	    15.906
  36.740        157.50	    13.748
  36.760        200.83	    15.524
  36.780        229.17	    16.583
  36.800        180.83	    14.731
  36.820        105.00	    11.225
  36.840         70.83	     9.220
  36.860         65.00	     8.832
  36.880         48.33	     7.616
  36.900         70.00	     9.165
  36.920         55.00	     8.124
  36.940         45.83	     7.416
  36.960         54.17	     8.062
  36.980         50.83	     7.810
  37.000         44.17	     7.280
  37.020         38.33	     6.782
  37.040         43.33	     7.211
  37.060         41.67	     7.071
  37.080         33.33	     6.325
  37.100         39.17	     6.856
  37.120         42.50	     7.141
  37.140         40.00	     6.928
  37.160         48.33	     7.616
  37.180         35.00	     6.481
  37.200         42.50	     7.141
  37.220         60.00	     8.485
  37.240         50.00	     7.746
  37.260         51.67	     7.874
  37.280         58.33	     8.367
  37.300         53.33	     8.000
  37.320         42.50	     7.141
  37.340         48.33	     7.616
  37.360         50.00	     7.746
  37.380         41.67	     7.071
  37.400         50.00	     7.746
  37.420         51.67	     7.874
  37.440         36.67	     6.633
  37.460         50.00	     7.746
  37.480         45.83	     7.416
  37.500         30.83	     6.083
  37.520         35.00	     6.481
  37.540         38.33	     6.782
  37.560         45.83	     7.416
  37.580         52.50	     7.937
  37.600         44.17	     7.280
  37.620         47.50	     7.550
  37.640         39.17	     6.856
  37.660         45.83	     7.416
  37.680         50.00	     7.746
  37.700         55.00	     8.124
  37.720         45.00	     7.348
  37.740         40.83	     7.000
  37.760         50.83	     7.810
  37.780         54.17	     8.062
  37.800         50.83	     7.810
  37.820         51.67	     7.874
  37.840         51.67	     7.874
  37.860         55.83	     8.185
  37.880         45.00	     7.348
  37.900         52.50	     7.937
  37.920         51.67	     7.874
  37.940         55.00	     8.124
  37.960         47.50	     7.550
  37.980         57.50	     8.307
  38.000         75.00	     9.487
  38.020         57.50	     8.307
  38.040         98.33	    10.863
  38.060        108.33	    11.402
  38.080        105.83	    11.269
  38.100        128.33	    12.410
  38.120        140.83	    13.000
  38.140        181.67	    14.765
  38.160        280.00	    18.330
  38.180        457.50	    23.431
  38.200        984.17	    34.366
  38.220       1900.00	    47.749
  38.240       2708.33	    57.009
  38.260       2325.83	    52.830
  38.280       1405.83	    41.073
  38.300       1055.00	    35.581
  38.320       1320.83	    39.812
  38.340       1515.83	    42.650
  38.360       1217.50	    38.223
  38.380        659.17	    28.125
  38.400        335.00	    20.050
  38.420        230.00	    16.613
  38.440        178.33	    14.629
  38.460        138.33	    12.884
  38.480        118.33	    11.916
  38.500         89.17	    10.344
  38.520         70.83	     9.220
  38.540         47.50	     7.550
  38.560         68.33	     9.055
  38.580         43.33	     7.211
  38.600         51.67	     7.874
  38.620         52.50	     7.937
  38.640         39.17	     6.856
  38.660         40.00	     6.928
  38.680         45.83	     7.416
  38.700         43.33	     7.211
  38.720         40.83	     7.000
  38.740         45.83	     7.416
  38.760         51.67	     7.874
  38.780         51.67	     7.874
  38.800         45.83	     7.416
  38.820         35.00	     6.481
  38.840         32.50	     6.245
  38.860         45.83	     7.416
  38.880         50.83	     7.810
  38.900         44.17	     7.280
  38.920         37.50	     6.708
  38.940         35.00	     6.481
  38.960         54.17	     8.062
  38.980         40.00	     6.928
  39.000         45.00	     7.348
  39.020         38.33	     6.782
  39.040         35.00	     6.481
  39.060         45.83	     7.416
  39.080         52.50	     7.937
  39.100         45.00	     7.348
  39.120         47.50	     7.550
  39.140         38.33	     6.782
  39.160         48.33	     7.616
  39.180         36.67	     6.633
  39.200         41.67	     7.071
  39.220         38.33	     6.782
  39.240         40.00	     6.928
  39.260         32.50	     6.245
  39.280         25.00	     5.477
  39.300         27.50	     5.745
  39.320         33.33	     6.325
  39.340         22.50	     5.196
  39.360         30.00	     6.000
  39.380         30.83	     6.083
  39.400         31.67	     6.164
  39.420         34.17	     6.403
  39.440         25.83	     5.568
  39.460         28.33	     5.831
  39.480         25.00	     5.477
  39.500         31.67	     6.164
  39.520         35.00	     6.481
  39.540         27.50	     5.745
  39.560         43.33	     7.211
  39.580         45.83	     7.416
  39.600         50.83	     7.810
  39.620         60.00	     8.485
  39.640         52.50	     7.937
  39.660         38.33	     6.782
  39.680         43.33	     7.211
  39.700         52.50	     7.937
  39.720         46.67	     7.483
  39.740         31.67	     6.164
  39.760         49.17	     7.681
  39.780         44.17	     7.280
  39.800         30.00	     6.000
  39.820         47.50	     7.550
  39.840         34.17	     6.403
  39.860         33.33	     6.325
  39.880         43.33	     7.211
  39.900         40.00	     6.928
  39.920         32.50	     6.245
  39.940         44.17	     7.280
  39.960         45.83	     7.416
  39.980         37.50	     6.708
  40.000         30.00	     6.000
  40.020         33.33	     6.325
  40.040         37.50	     6.708
  40.060         45.83	     7.416
  40.080         54.17	     8.062
  40.100        129.17	    12.450
  40.120        133.33	    12.649
  40.140         66.67	     8.944
  40.160         44.17	     7.280
  40.180         51.67	     7.874
  40.200         69.17	     9.110
  40.220         96.67	    10.770
  40.240         70.83	     9.220
  40.260         38.33	     6.782
  40.280         22.50	     5.196
  40.300         28.33	     5.831
  40.320         22.50	     5.196
  40.340         29.17	     5.916
  40.360         35.00	     6.481
  40.380         39.17	     6.856
  40.400         57.50	     8.307
  40.420         47.50	     7.550
  40.440         40.00	     6.928
  40.460         36.67	     6.633
  40.480         30.00	     6.000
  40.500         41.67	     7.071
  40.520         38.33	     6.782
  40.540         50.83	     7.810
  40.560         40.00	     6.928
  40.580         28.33	     5.831
  40.600         45.00	     7.348
  40.620         26.67	     5.657
  40.640         34.17	     6.403
  40.660         21.67	     5.099
  40.680         30.83	     6.083
  40.700         35.83	     6.557
  40.720         25.00	     5.477
  40.740         23.33	     5.292
  40.760         25.00	     5.477
  40.780         27.50	     5.745
  40.800         35.83	     6.557
  40.820         29.17	     5.916
  40.840         24.17	     5.385
  40.860         25.83	     5.568
  40.880         20.83	     5.000
  40.900         23.33	     5.292
  40.920         20.83	     5.000
  40.940         28.33	     5.831
  40.960         31.67	     6.164
  40.980         24.17	     5.385
  41.000         35.83	     6.557
  41.020         25.83	     5.568
  41.040         26.67	     5.657
  41.060         26.67	     5.657
  41.080         35.00	     6.481
  41.100         41.67	     7.071
  41.120         38.33	     6.782
  41.140         26.67	     5.657
  41.160         35.00	     6.481
  41.180         42.50	     7.141
  41.200         22.50	     5.196
  41.220         25.00	     5.477
  41.240         30.00	     6.000
  41.260         25.00	     5.477
  41.280         26.67	     5.657
  41.300         26.67	     5.657
  41.320         16.67	     4.472
  41.340         22.50	     5.196
  41.360         25.83	     5.568
  41.380         28.33	     5.831
  41.400         27.50	     5.745
  41.420         23.33	     5.292
  41.440         30.83	     6.083
  41.460         25.00	     5.477
  41.480         30.00	     6.000
  41.500         25.00	     5.477
  41.520         28.33	     5.831
  41.540         23.33	     5.292
  41.560         25.00	     5.477
  41.580         32.50	     6.245
  41.600         25.83	     5.568
  41.620         35.00	     6.481
  41.640         45.00	     7.348
  41.660         36.67	     6.633
  41.680         41.67	     7.071
  41.700         32.50	     6.245
  41.720         35.00	     6.481
  41.740         39.17	     6.856
  41.760         41.67	     7.071
  41.780         46.67	     7.483
  41.800         43.33	     7.211
  41.820         50.00	     7.746
  41.840         50.83	     7.810
  41.860         61.67	     8.602
  41.880         61.67	     8.602
  41.900         52.50	     7.937
  41.920         65.83	     8.888
  41.940         83.33	    10.000
  41.960         95.83	    10.724
  41.980        109.17	    11.446
  42.000         75.83	     9.539
  42.020         65.00	     8.832
  42.040         63.33	     8.718
  42.060         58.33	     8.367
  42.080         65.00	     8.832
  42.100         47.50	     7.550
  42.120         64.17	     8.775
  42.140         43.33	     7.211
  42.160         40.00	     6.928
  42.180         38.33	     6.782
  42.200         43.33	     7.211
  42.220         32.50	     6.245
  42.240         29.17	     5.916
  42.260         34.17	     6.403
  42.280         36.67	     6.633
  42.300         27.50	     5.745
  42.320         21.67	     5.099
  42.340         31.67	     6.164
  42.360         26.67	     5.657
  42.380         41.67	     7.071
  42.400         34.17	     6.403
  42.420         47.50	     7.550
  42.440         69.17	     9.110
  42.460        124.17	    12.207
  42.480        115.83	    11.790
  42.500         92.50	    10.536
  42.520         59.17	     8.426
  42.540         67.50	     9.000
  42.560         76.67	     9.592
  42.580         93.33	    10.583
  42.600         88.33	    10.296
  42.620         62.50	     8.660
  42.640         56.67	     8.246
  42.660         67.50	     9.000
  42.680         72.50	     9.327
  42.700         75.00	     9.487
  42.720         62.50	     8.660
  42.740         44.17	     7.280
  42.760         56.67	     8.246
  42.780         60.00	     8.485
  42.800         56.67	     8.246
  42.820         41.67	     7.071
  42.840         47.50	     7.550
  42.860         60.00	     8.485
  42.880         48.33	     7.616
  42.900         69.17	     9.110
  42.920         61.67	     8.602
  42.940         60.00	     8.485
  42.960         69.17	     9.110
  42.980         60.00	     8.485
  43.000         51.67	     7.874
  43.020         43.33	     7.211
  43.040         43.33	     7.211
  43.060         48.33	     7.616
  43.080         40.00	     6.928
  43.100         39.17	     6.856
  43.120         28.33	     5.831
  43.140         29.17	     5.916
  43.160         29.17	     5.916
  43.180         29.17	     5.916
  43.200         11.67	     3.742
  43.220         28.33	     5.831
  43.240         28.33	     5.831
  43.260         24.17	     5.385
  43.280         25.00	     5.477
  43.300         34.17	     6.403
  43.320         24.17	     5.385
  43.340         27.50	     5.745
  43.360         26.67	     5.657
  43.380         20.83	     5.000
  43.400         25.83	     5.568
  43.420         22.50	     5.196
  43.440         30.00	     6.000
  43.460         22.50	     5.196
  43.480         34.17	     6.403
  43.500         26.67	     5.657
  43.520         16.67	     4.472
  43.540         24.17	     5.385
  43.560         25.00	     5.477
  43.580         26.67	     5.657
  43.600         25.00	     5.477
  43.620         27.50	     5.745
  43.640         24.17	     5.385
  43.660         24.17	     5.385
  43.680         37.50	     6.708
  43.700         30.00	     6.000
  43.720         22.50	     5.196
  43.740         27.50	     5.745
  43.760         34.17	     6.403
  43.780         25.00	     5.477
  43.800         31.67	     6.164
  43.820         33.33	     6.325
  43.840         26.67	     5.657
  43.860         35.00	     6.481
  43.880         25.83	     5.568
  43.900         18.33	     4.690
  43.920         30.83	     6.083
  43.940         26.67	     5.657
  43.960         29.17	     5.916
  43.980         35.83	     6.557
  44.000         33.33	     6.325
  44.020         30.83	     6.083
  44.040         30.83	     6.083
  44.060         26.67	     5.657
  44.080         30.00	     6.000
  44.100         38.33	     6.782
  44.120         30.83	     6.083
  44.140         47.50	     7.550
  44.160         40.83	     7.000
  44.180         40.83	     7.000
  44.200         59.17	     8.426
  44.220         74.17	     9.434
  44.240         76.67	     9.592
  44.260         73.33	     9.381
  44.280         98.33	    10.863
  44.300         96.67	    10.770
  44.320        143.33	    13.115
  44.340        177.50	    14.595
  44.360        279.17	    18.303
  44.380        575.83	    26.287
  44.400       1090.00	    36.166
  44.420       1582.50	    43.578
  44.440       1375.00	    40.620
  44.460        820.83	    31.385
  44.480        508.33	    24.698
  44.500        502.50	    24.556
  44.520        799.17	    30.968
  44.540        843.33	    31.812
  44.560        681.67	    28.601
  44.580        385.00	    21.494
  44.600        228.33	    16.553
  44.620        175.83	    14.526
  44.640        114.17	    11.705
  44.660         96.67	    10.770
  44.680         72.50	     9.327
  44.700         74.17	     9.434
  44.720         56.67	     8.246
  44.740         60.00	     8.485
  44.760         45.00	     7.348
  44.780         45.00	     7.348
  44.800         47.50	     7.550
  44.820         40.83	     7.000
  44.840         32.50	     6.245
  44.860         40.00	     6.928
  44.880         53.33	     8.000
  44.900         41.67	     7.071
  44.920         40.00	     6.928
  44.940         42.50	     7.141
  44.960         42.50	     7.141
  44.980         50.00	     7.746
  45.000         46.67	     7.483
  45.020         46.67	     7.483
  45.040         40.83	     7.000
  45.060         45.00	     7.348
  45.080         52.50	     7.937
  45.100         46.67	     7.483
  45.120         43.33	     7.211
  45.140         51.67	     7.874
  45.160         46.67	     7.483
  45.180         50.00	     7.746
  45.200         41.67	     7.071
  45.220         41.67	     7.071
  45.240         33.33	     6.325
  45.260         55.00	     8.124
  45.280         40.83	     7.000
  45.300         31.67	     6.164
  45.320         35.83	     6.557
  45.340         43.33	     7.211
  45.360         44.17	     7.280
  45.380         35.00	     6.481
  45.400         56.67	     8.246
  45.420         58.33	     8.367
  45.440         47.50	     7.550
  45.460         58.33	     8.367
  45.480         55.83	     8.185
  45.500         81.67	     9.899
  45.520         81.67	     9.899
  45.540        108.33	    11.402
  45.560        128.33	    12.410
  45.580        144.17	    13.153
  45.600        173.33	    14.422
  45.620        187.50	    15.000
  45.640        236.67	    16.852
  45.660        245.00	    17.146
  45.680        269.17	    17.972
  45.700        262.50	    17.748
  45.720        291.67	    18.708
  45.740        300.00	    18.974
  45.760        232.50	    16.703
  45.780        226.67	    16.492
  45.800        180.83	    14.731
  45.820        195.83	    15.330
  45.840        150.83	    13.454
  45.860        149.17	    13.379
  45.880        123.33	    12.166
  45.900         90.00	    10.392
  45.920         88.33	    10.296
  45.940         79.17	     9.747
  45.960         55.83	     8.185
  45.980         54.17	     8.062
  46.000         47.50	     7.550
  46.020         52.50	     7.937
  46.040         48.33	     7.616
  46.060         45.83	     7.416
  46.080         41.67	     7.071
  46.100         39.17	     6.856
  46.120         34.17	     6.403
  46.140         34.17	     6.403
  46.160         34.17	     6.403
  46.180         33.33	     6.325
  46.200         35.00	     6.481
  46.220         32.50	     6.245
  46.240         30.83	     6.083
  46.260         31.67	     6.164
  46.280         24.17	     5.385
  46.300         27.50	     5.745
  46.320         25.00	     5.477
  46.340         28.33	     5.831
  46.360         27.50	     5.745
  46.380         32.50	     6.245
  46.400         27.50	     5.745
  46.420         31.67	     6.164
  46.440         22.50	     5.196
  46.460         27.50	     5.745
  46.480         21.67	     5.099
  46.500         23.33	     5.292
  46.520         25.00	     5.477
  46.540         27.50	     5.745
  46.560         12.50	     3.873
  46.580         30.00	     6.000
  46.600         25.83	     5.568
  46.620         17.50	     4.583
  46.640         15.83	     4.359
  46.660         18.33	     4.690
  46.680         19.17	     4.796
  46.700         25.83	     5.568
  46.720         26.67	     5.657
  46.740         23.33	     5.292
  46.760         20.83	     5.000
  46.780         21.67	     5.099
  46.800         17.50	     4.583
  46.820         14.17	     4.123
  46.840         13.33	     4.000
  46.860         24.17	     5.385
  46.880         24.17	     5.385
  46.900         25.83	     5.568
  46.920         22.50	     5.196
  46.940         11.67	     3.742
  46.960         16.67	     4.472
  46.980         22.50	     5.196
  47.000         21.67	     5.099
  47.020         21.67	     5.099
  47.040         24.17	     5.385
  47.060         20.83	     5.000
  47.080         16.67	     4.472
  47.100         26.67	     5.657
  47.120         24.17	     5.385
  47.140         23.33	     5.292
  47.160         30.00	     6.000
  47.180         32.50	     6.245
  47.200         31.67	     6.164
  47.220         28.33	     5.831
  47.240         29.17	     5.916
  47.260         43.33	     7.211
  47.280         31.67	     6.164
  47.300         47.50	     7.550
  47.320         40.00	     6.928
  47.340         30.83	     6.083
  47.360         33.33	     6.325
  47.380         37.50	     6.708
  47.400         31.67	     6.164
  47.420         33.33	     6.325
  47.440         22.50	     5.196
  47.460         24.17	     5.385
  47.480         22.50	     5.196
  47.500         17.50	     4.583
  47.520         20.83	     5.000
  47.540         20.00	     4.899
  47.560         19.17	     4.796
  47.580         14.17	     4.123
  47.600         22.50	     5.196
  47.620         19.17	     4.796
  47.640         20.00	     4.899
  47.660         16.67	     4.472
  47.680          5.00	     2.449
  47.700         15.00	     4.243
  47.720         23.33	     5.292
  47.740         18.33	     4.690
  47.760         20.83	     5.000
  47.780         15.83	     4.359
  47.800         20.83	     5.000
  47.820         15.83	     4.359
  47.840         17.50	     4.583
  47.860         19.17	     4.796
  47.880         15.00	     4.243
  47.900         18.33	     4.690
  47.920         20.00	     4.899
  47.940         19.17	     4.796
  47.960         25.83	     5.568
  47.980         25.00	     5.477
  48.000         23.33	     5.292
  48.020         28.33	     5.831
  48.040         21.67	     5.099
  48.060         30.83	     6.083
  48.080         31.67	     6.164
  48.100         39.17	     6.856
  48.120         28.33	     5.831
  48.140         32.50	     6.245
  48.160         17.50	     4.583
  48.180         26.67	     5.657
  48.200         41.67	     7.071
  48.220         27.50	     5.745
  48.240         42.50	     7.141
  48.260         35.83	     6.557
  48.280         37.50	     6.708
  48.300         48.33	     7.616
  48.320         38.33	     6.782
  48.340         41.67	     7.071
  48.360         37.50	     6.708
  48.380         40.83	     7.000
  48.400         45.00	     7.348
  48.420         55.00	     8.124
  48.440         56.67	     8.246
  48.460         70.00	     9.165
  48.480         60.83	     8.544
  48.500         86.67	    10.198
  48.520         82.50	     9.950
  48.540         76.67	     9.592
  48.560         73.33	     9.381
  48.580         48.33	     7.616
  48.600         55.00	     8.124
  48.620         51.67	     7.874
  48.640         48.33	     7.616
  48.660         55.00	     8.124
  48.680         50.00	     7.746
  48.700         34.17	     6.403
  48.720         30.83	     6.083
  48.740         30.83	     6.083
  48.760         27.50	     5.745
  48.780         25.00	     5.477
  48.800         31.67	     6.164
  48.820         19.17	     4.796
  48.840         25.83	     5.568
  48.860         28.33	     5.831
  48.880         15.83	     4.359
  48.900         22.50	     5.196
  48.920         19.17	     4.796
  48.940         21.67	     5.099
  48.960         28.33	     5.831
  48.980         21.67	     5.099
  49.000         25.83	     5.568
  49.020         29.17	     5.916
  49.040         19.17	     4.796
  49.060         16.67	     4.472
  49.080         27.50	     5.745
  49.100         11.67	     3.742
  49.120         17.50	     4.583
  49.140         20.83	     5.000
  49.160         20.00	     4.899
  49.180         15.00	     4.243
  49.200         20.00	     4.899
  49.220         15.00	     4.243
  49.240         33.33	     6.325
  49.260         20.83	     5.000
  49.280         24.17	     5.385
  49.300         29.17	     5.916
  49.320         27.50	     5.745
  49.340         25.00	     5.477
  49.360         24.17	     5.385
  49.380         25.83	     5.568
  49.400         21.67	     5.099
  49.420         27.50	     5.745
  49.440         28.33	     5.831
  49.460         22.50	     5.196
  49.480         30.00	     6.000
  49.500         21.67	     5.099
  49.520         21.67	     5.099
  49.540         16.67	     4.472
  49.560         20.83	     5.000
  49.580         18.33	     4.690
  49.600         15.00	     4.243
  49.620         18.33	     4.690
  49.640         30.83	     6.083
  49.660         23.33	     5.292
  49.680         20.83	     5.000
  49.700         22.50	     5.196
  49.720         25.00	     5.477
  49.740         25.83	     5.568
  49.760         23.33	     5.292
  49.780         20.83	     5.000
  49.800         25.83	     5.568
  49.820         16.67	     4.472
  49.840         19.17	     4.796
  49.860         35.00	     6.481
  49.880         32.50	     6.245
  49.900         39.17	     6.856
  49.920         42.50	     7.141
  49.940         35.83	     6.557
  49.960         33.33	     6.325
  49.980         31.67	     6.164
  50.000         35.83	     6.557
  50.020         44.17	     7.280
  50.040         61.67	     8.602
  50.060         65.83	     8.888
  50.080         55.83	     8.185
  50.100         60.83	     8.544
  50.120         40.00	     6.928
  50.140         40.83	     7.000
  50.160         45.00	     7.348
  50.180         50.83	     7.810
  50.200         65.83	     8.888
  50.220         75.83	     9.539
  50.240        110.00	    11.489
  50.260        148.33	    13.342
  50.280        139.17	    12.923
  50.300         97.50	    10.817
  50.320         67.50	     9.000
  50.340         57.50	     8.307
  50.360         63.33	     8.718
  50.380         90.00	    10.392
  50.400         99.17	    10.909
  50.420         71.67	     9.274
  50.440         51.67	     7.874
  50.460         48.33	     7.616
  50.480         35.83	     6.557
  50.500         39.17	     6.856
  50.520         22.50	     5.196
  50.540         35.00	     6.481
  50.560         32.50	     6.245
  50.580         25.00	     5.477
  50.600         30.83	     6.083
  50.620         22.50	     5.196
  50.640         23.33	     5.292
  50.660         33.33	     6.325
  50.680         43.33	     7.211
  50.700         30.83	     6.083
  50.720         30.83	     6.083
  50.740         36.67	     6.633
  50.760         31.67	     6.164
  50.780         20.00	     4.899
  50.800         38.33	     6.782
  50.820         32.50	     6.245
  50.840         33.33	     6.325
  50.860         23.33	     5.292
  50.880         36.67	     6.633
  50.900         30.00	     6.000
  50.920         33.33	     6.325
  50.940         19.17	     4.796
  50.960         20.83	     5.000
  50.980         18.33	     4.690
  51.000         22.50	     5.196
  51.020         13.33	     4.000
  51.040         19.17	     4.796
  51.060         20.00	     4.899
  51.080         19.17	     4.796
  51.100         23.33	     5.292
  51.120         17.50	     4.583
  51.140         11.67	     3.742
  51.160         14.17	     4.123
  51.180         21.67	     5.099
  51.200         24.17	     5.385
  51.220         16.67	     4.472
  51.240         18.33	     4.690
  51.260         29.17	     5.916
  51.280         34.17	     6.403
  51.300         36.67	     6.633
  51.320         42.50	     7.141
  51.340         30.83	     6.083
  51.360         30.83	     6.083
  51.380         36.67	     6.633
  51.400         35.00	     6.481
  51.420         32.50	     6.245
  51.440         27.50	     5.745
  51.460         24.17	     5.385
  51.480         36.67	     6.633
  51.500         26.67	     5.657
  51.520         30.00	     6.000
  51.540         24.17	     5.385
  51.560         31.67	     6.164
  51.580         17.50	     4.583
  51.600         17.50	     4.583
  51.620         11.67	     3.742
  51.640         19.17	     4.796
  51.660         19.17	     4.796
  51.680         20.00	     4.899
  51.700         21.67	     5.099
  51.720         16.67	     4.472
  51.740         25.83	     5.568
  51.760         24.17	     5.385
  51.780         16.67	     4.472
  51.800         15.00	     4.243
  51.820         18.33	     4.690
  51.840         15.00	     4.243
  51.860         14.17	     4.123
  51.880         16.67	     4.472
  51.900         19.17	     4.796
  51.920         25.83	     5.568
  51.940         21.67	     5.099
  51.960         10.00	     3.464
  51.980         20.83	     5.000
  52.000         15.00	     4.243
  52.020         20.00	     4.899
  52.040         16.67	     4.472
  52.060         16.67	     4.472
  52.080         18.33	     4.690
  52.100         20.00	     4.899
  52.120         11.67	     3.742
  52.140         20.83	     5.000
  52.160         18.33	     4.690
  52.180         13.33	     4.000
  52.200         25.00	     5.477
  52.220         17.50	     4.583
  52.240         25.00	     5.477
  52.260         25.00	     5.477
  52.280         22.50	     5.196
  52.300         20.83	     5.000
  52.320         19.17	     4.796
  52.340         26.67	     5.657
  52.360         25.83	     5.568
  52.380         23.33	     5.292
  52.400         22.50	     5.196
  52.420         20.00	     4.899
  52.440         24.17	     5.385
  52.460         29.17	     5.916
  52.480         21.67	     5.099
  52.500         29.17	     5.916
  52.520         22.50	     5.196
  52.540         26.67	     5.657
  52.560         19.17	     4.796
  52.580         48.33	     7.616
  52.600         50.00	     7.746
  52.620         38.33	     6.782
  52.640         40.00	     6.928
  52.660         37.50	     6.708
  52.680         23.33	     5.292
  52.700         27.50	     5.745
  52.720         36.67	     6.633
  52.740         45.00	     7.348
  52.760         33.33	     6.325
  52.780         21.67	     5.099
  52.800         20.00	     4.899
  52.820         18.33	     4.690
  52.840         17.50	     4.583
  52.860         20.83	     5.000
  52.880         20.83	     5.000
  52.900         14.17	     4.123
  52.920         25.83	     5.568
  52.940         25.83	     5.568
  52.960         18.33	     4.690
  52.980         35.00	     6.481
  53.000         23.33	     5.292
  53.020         18.33	     4.690
  53.040         22.50	     5.196
  53.060         22.50	     5.196
  53.080         19.17	     4.796
  53.100         33.33	     6.325
  53.120         22.50	     5.196
  53.140         28.33	     5.831
  53.160         20.83	     5.000
  53.180         24.17	     5.385
  53.200         18.33	     4.690
  53.220         15.83	     4.359
  53.240         19.17	     4.796
  53.260         15.83	     4.359
  53.280         21.67	     5.099
  53.300         28.33	     5.831
  53.320         20.83	     5.000
  53.340         18.33	     4.690
  53.360         22.50	     5.196
  53.380         20.00	     4.899
  53.400         26.67	     5.657
  53.420         30.83	     6.083
  53.440         15.83	     4.359
  53.460         21.67	     5.099
  53.480         19.17	     4.796
  53.500         20.83	     5.000
  53.520         18.33	     4.690
  53.540         21.67	     5.099
  53.560         17.50	     4.583
  53.580         23.33	     5.292
  53.600         30.00	     6.000
  53.620         22.50	     5.196
  53.640         24.17	     5.385
  53.660         13.33	     4.000
  53.680         20.83	     5.000
  53.700         19.17	     4.796
  53.720          8.33	     3.162
  53.740         22.50	     5.196
  53.760         22.50	     5.196
  53.780         15.83	     4.359
  53.800         16.67	     4.472
  53.820         16.67	     4.472
  53.840         19.17	     4.796
  53.860         14.17	     4.123
  53.880         13.33	     4.000
  53.900         20.00	     4.899
  53.920         11.67	     3.742
  53.940         18.33	     4.690
  53.960         20.00	     4.899
  53.980         19.17	     4.796
  54.000         12.50	     3.873
  54.020         10.83	     3.606
  54.040         20.83	     5.000
  54.060         23.33	     5.292
  54.080         20.83	     5.000
  54.100         18.33	     4.690
  54.120         20.83	     5.000
  54.140         13.33	     4.000
  54.160         17.50	     4.583
  54.180         13.33	     4.000
  54.200         19.17	     4.796
  54.220         20.00	     4.899
  54.240         16.67	     4.472
  54.260         20.00	     4.899
  54.280         20.83	     5.000
  54.300         13.33	     4.000
  54.320         15.83	     4.359
  54.340         20.83	     5.000
  54.360         15.83	     4.359
  54.380         22.50	     5.196
  54.400         19.17	     4.796
  54.420         15.83	     4.359
  54.440         26.67	     5.657
  54.460         17.50	     4.583
  54.480         15.00	     4.243
  54.500         25.00	     5.477
  54.520         22.50	     5.196
  54.540         22.50	     5.196
  54.560         33.33	     6.325
  54.580         25.83	     5.568
  54.600         27.50	     5.745
  54.620         28.33	     5.831
  54.640         20.83	     5.000
  54.660         22.50	     5.196
  54.680         32.50	     6.245
  54.700         26.67	     5.657
  54.720         27.50	     5.745
  54.740         22.50	     5.196
  54.760         23.33	     5.292
  54.780         30.83	     6.083
  54.800         26.67	     5.657
  54.820         16.67	     4.472
  54.840         15.00	     4.243
  54.860         22.50	     5.196
  54.880         34.17	     6.403
  54.900         20.83	     5.000
  54.920         31.67	     6.164
  54.940         41.67	     7.071
  54.960         54.17	     8.062
  54.980         72.50	     9.327
  55.000         88.33	    10.296
  55.020         80.83	     9.849
  55.040         51.67	     7.874
  55.060         50.00	     7.746
  55.080         41.67	     7.071
  55.100         39.17	     6.856
  55.120         51.67	     7.874
  55.140         50.00	     7.746
  55.160         58.33	     8.367
  55.180         57.50	     8.307
  55.200         47.50	     7.550
  55.220         35.00	     6.481
  55.240         26.67	     5.657
  55.260         26.67	     5.657
  55.280         17.50	     4.583
  55.300         19.17	     4.796
  55.320         29.17	     5.916
  55.340         20.83	     5.000
  55.360         29.17	     5.916
  55.380         26.67	     5.657
  55.400         31.67	     6.164
  55.420         25.00	     5.477
  55.440         25.00	     5.477
  55.460         20.83	     5.000
  55.480         23.33	     5.292
  55.500         28.33	     5.831
  55.520         31.67	     6.164
  55.540         30.83	     6.083
  55.560         33.33	     6.325
  55.580         29.17	     5.916
  55.600         25.00	     5.477
  55.620         23.33	     5.292
  55.640         30.83	     6.083
  55.660         17.50	     4.583
  55.680         24.17	     5.385
  55.700         25.00	     5.477
  55.720         25.00	     5.477
  55.740         29.17	     5.916
  55.760         22.50	     5.196
  55.780         18.33	     4.690
  55.800         20.83	     5.000
  55.820         22.50	     5.196
  55.840         20.83	     5.000
  55.860         27.50	     5.745
  55.880         29.17	     5.916
  55.900         35.00	     6.481
  55.920         32.50	     6.245
  55.940         29.17	     5.916
  55.960         30.83	     6.083
  55.980         27.50	     5.745
  56.000         37.50	     6.708
  56.020         28.33	     5.831
  56.040         17.50	     4.583
  56.060         28.33	     5.831
  56.080         28.33	     5.831
  56.100         30.83	     6.083
  56.120         20.83	     5.000
  56.140         26.67	     5.657
  56.160         17.50	     4.583
  56.180         24.17	     5.385
  56.200         23.33	     5.292
  56.220         22.50	     5.196
  56.240         21.67	     5.099
  56.260         20.83	     5.000
  56.280         16.67	     4.472
  56.300         21.67	     5.099
  56.320         26.67	     5.657
  56.340         26.67	     5.657
  56.360         15.83	     4.359
  56.380         20.83	     5.000
  56.400         15.00	     4.243
  56.420         15.83	     4.359
  56.440         23.33	     5.292
  56.460         23.33	     5.292
  56.480         15.83	     4.359
  56.500         19.17	     4.796
  56.520         30.83	     6.083
  56.540         20.00	     4.899
  56.560         17.50	     4.583
  56.580         19.17	     4.796
  56.600         16.67	     4.472
  56.620         18.33	     4.690
  56.640         19.17	     4.796
  56.660         16.67	     4.472
  56.680         20.00	     4.899
  56.700         18.33	     4.690
  56.720         24.17	     5.385
  56.740         20.83	     5.000
  56.760         22.50	     5.196
  56.780         26.67	     5.657
  56.800         22.50	     5.196
  56.820         19.17	     4.796
  56.840         28.33	     5.831
  56.860         29.17	     5.916
  56.880         25.00	     5.477
  56.900         30.00	     6.000
  56.920         29.17	     5.916
  56.940         31.67	     6.164
  56.960         40.00	     6.928
  56.980         25.00	     5.477
  57.000         26.67	     5.657
  57.020         15.83	     4.359
  57.040         25.00	     5.477
  57.060         25.83	     5.568
  57.080         30.00	     6.000
  57.100         20.83	     5.000
  57.120         26.67	     5.657
  57.140         32.50	     6.245
  57.160         28.33	     5.831
  57.180         20.83	     5.000
  57.200         30.00	     6.000
  57.220         20.83	     5.000
  57.240         22.50	     5.196
  57.260         17.50	     4.583
  57.280         11.67	     3.742
  57.300         15.83	     4.359
  57.320         23.33	     5.292
  57.340         17.50	     4.583
  57.360         24.17	     5.385
  57.380         23.33	     5.292
  57.400         31.67	     6.164
  57.420         24.17	     5.385
  57.440         19.17	     4.796
  57.460         10.00	     3.464
  57.480         24.17	     5.385
  57.500         15.00	     4.243
  57.520         19.17	     4.796
  57.540         19.17	     4.796
  57.560         26.67	     5.657
  57.580         20.00	     4.899
  57.600         14.17	     4.123
  57.620         22.50	     5.196
  57.640         23.33	     5.292
  57.660         25.83	     5.568
  57.680         21.67	     5.099
  57.700         23.33	     5.292
  57.720         28.33	     5.831
  57.740         25.00	     5.477
  57.760         24.17	     5.385
  57.780         34.17	     6.403
  57.800         23.33	     5.292
  57.820         19.17	     4.796
  57.840         19.17	     4.796
  57.860         21.67	     5.099
  57.880         18.33	     4.690
  57.900         18.33	     4.690
  57.920         21.67	     5.099
  57.940         22.50	     5.196
  57.960         22.50	     5.196
  57.980         20.00	     4.899
  58.000         18.33	     4.690
  58.020         12.50	     3.873
  58.040         13.33	     4.000
  58.060         18.33	     4.690
  58.080         20.00	     4.899
  58.100         20.00	     4.899
  58.120         20.00	     4.899
  58.140         16.67	     4.472
  58.160         16.67	     4.472
  58.180         22.50	     5.196
  58.200         14.17	     4.123
  58.220         10.00	     3.464
  58.240         12.50	     3.873
  58.260         12.50	     3.873
  58.280         17.50	     4.583
  58.300         17.50	     4.583
  58.320         17.50	     4.583
  58.340         20.83	     5.000
  58.360         19.17	     4.796
  58.380         17.50	     4.583
  58.400         18.33	     4.690
  58.420         13.33	     4.000
  58.440         21.67	     5.099
  58.460         15.83	     4.359
  58.480         18.33	     4.690
  58.500         19.17	     4.796
  58.520         16.67	     4.472
  58.540         20.00	     4.899
  58.560         20.00	     4.899
  58.580         24.17	     5.385
  58.600         26.67	     5.657
  58.620         28.33	     5.831
  58.640         21.67	     5.099
  58.660         25.83	     5.568
  58.680         20.83	     5.000
  58.700         15.83	     4.359
  58.720         18.33	     4.690
  58.740         24.17	     5.385
  58.760         29.17	     5.916
  58.780         19.17	     4.796
  58.800         23.33	     5.292
  58.820         22.50	     5.196
  58.840         30.00	     6.000
  58.860         28.33	     5.831
  58.880         34.17	     6.403
  58.900         29.17	     5.916
  58.920         17.50	     4.583
  58.940         25.83	     5.568
  58.960         27.50	     5.745
  58.980         19.17	     4.796
  59.000         35.00	     6.481
  59.020         31.67	     6.164
  59.040         20.83	     5.000
  59.060         23.33	     5.292
  59.080         16.67	     4.472
  59.100         20.00	     4.899
  59.120         23.33	     5.292
  59.140         28.33	     5.831
  59.160         22.50	     5.196
  59.180         29.17	     5.916
  59.200         24.17	     5.385
  59.220         26.67	     5.657
  59.240         24.17	     5.385
  59.260         30.83	     6.083
  59.280         26.67	     5.657
  59.300         38.33	     6.782
  59.320         37.50	     6.708
  59.340         25.00	     5.477
  59.360         33.33	     6.325
  59.380         26.67	     5.657
  59.400         20.00	     4.899
  59.420         30.83	     6.083
  59.440         23.33	     5.292
  59.460         20.00	     4.899
  59.480         28.33	     5.831
  59.500         20.00	     4.899
  59.520         20.00	     4.899
  59.540         20.00	     4.899
  59.560         23.33	     5.292
  59.580         20.00	     4.899
  59.600         23.33	     5.292
  59.620         22.50	     5.196
  59.640         24.17	     5.385
  59.660         21.67	     5.099
  59.680         20.00	     4.899
  59.700         16.67	     4.472
  59.720         17.50	     4.583
  59.740         18.33	     4.690
  59.760         20.83	     5.000
  59.780         13.33	     4.000
  59.800         15.83	     4.359
  59.820         35.00	     6.481
  59.840         25.83	     5.568
  59.860         15.00	     4.243
  59.880         24.17	     5.385
  59.900         17.50	     4.583
  59.920         19.17	     4.796
  59.940         27.50	     5.745
  59.960         29.17	     5.916
  59.980         31.67	     6.164
  60.000         27.50	     5.745
  60.020         46.67	     7.483
  60.040         55.00	     8.124
  60.060         91.67	    10.488
  60.080        118.33	    11.916
  60.100        107.50	    11.358
  60.120         64.17	     8.775
  60.140         49.17	     7.681
  60.160         50.83	     7.810
  60.180         44.17	     7.280
  60.200         40.00	     6.928
  60.220         44.17	     7.280
  60.240         67.50	     9.000
  60.260         56.67	     8.246
  60.280         54.17	     8.062
  60.300         44.17	     7.280
  60.320         33.33	     6.325
  60.340         34.17	     6.403
  60.360         27.50	     5.745
  60.380         32.50	     6.245
  60.400         27.50	     5.745
  60.420         25.00	     5.477
  60.440         24.17	     5.385
  60.460         20.83	     5.000
  60.480         26.67	     5.657
  60.500         23.33	     5.292
  60.520         24.17	     5.385
  60.540         32.50	     6.245
  60.560         23.33	     5.292
  60.580         34.17	     6.403
  60.600         31.67	     6.164
  60.620         27.50	     5.745
  60.640         16.67	     4.472
  60.660         22.50	     5.196
  60.680         24.17	     5.385
  60.700         14.17	     4.123
  60.720         30.83	     6.083
  60.740         20.00	     4.899
  60.760         29.17	     5.916
  60.780         20.83	     5.000
  60.800         24.17	     5.385
  60.820         22.50	     5.196
  60.840         26.67	     5.657
  60.860         15.00	     4.243
  60.880         31.67	     6.164
  60.900         25.00	     5.477
  60.920         27.50	     5.745
  60.940         27.50	     5.745
  60.960         35.83	     6.557
  60.980         26.67	     5.657
  61.000         24.17	     5.385
  61.020         35.00	     6.481
  61.040         25.00	     5.477
  61.060         34.17	     6.403
  61.080         15.00	     4.243
  61.100         20.83	     5.000
  61.120         29.17	     5.916
  61.140         22.50	     5.196
  61.160         23.33	     5.292
  61.180         21.67	     5.099
  61.200         27.50	     5.745
  61.220         21.67	     5.099
  61.240         19.17	     4.796
  61.260         30.00	     6.000
  61.280         29.17	     5.916
  61.300         29.17	     5.916
  61.320         23.33	     5.292
  61.340         23.33	     5.292
  61.360         30.00	     6.000
  61.380         19.17	     4.796
  61.400         25.83	     5.568
  61.420         22.50	     5.196
  61.440         25.83	     5.568
  61.460         16.67	     4.472
  61.480         26.67	     5.657
  61.500         30.00	     6.000
  61.520         23.33	     5.292
  61.540         31.67	     6.164
  61.560         29.17	     5.916
  61.580         40.83	     7.000
  61.600         32.50	     6.245
  61.620         35.00	     6.481
  61.640         27.50	     5.745
  61.660         34.17	     6.403
  61.680         25.00	     5.477
  61.700         31.67	     6.164
  61.720         21.67	     5.099
  61.740         17.50	     4.583
  61.760         29.17	     5.916
  61.780         32.50	     6.245
  61.800         34.17	     6.403
  61.820         25.00	     5.477
  61.840         20.83	     5.000
  61.860         23.33	     5.292
  61.880         19.17	     4.796
  61.900         25.83	     5.568
  61.920         22.50	     5.196
  61.940         28.33	     5.831
  61.960         25.83	     5.568
  61.980         27.50	     5.745
  62.000         16.67	     4.472
  62.020         25.83	     5.568
  62.040         25.83	     5.568
  62.060         25.00	     5.477
  62.080         24.17	     5.385
  62.100         16.67	     4.472
  62.120         23.33	     5.292
  62.140         24.17	     5.385
  62.160         27.50	     5.745
  62.180         29.17	     5.916
  62.200         25.83	     5.568
  62.220         20.00	     4.899
  62.240         31.67	     6.164
  62.260         20.00	     4.899
  62.280         23.33	     5.292
  62.300         25.00	     5.477
  62.320         20.83	     5.000
  62.340         16.67	     4.472
  62.360         18.33	     4.690
  62.380         30.00	     6.000
  62.400         21.67	     5.099
  62.420         16.67	     4.472
  62.440         30.00	     6.000
  62.460         24.17	     5.385
  62.480         22.50	     5.196
  62.500         27.50	     5.745
  62.520         20.83	     5.000
  62.540         20.00	     4.899
  62.560         25.83	     5.568
  62.580         15.00	     4.243
  62.600         15.00	     4.243
  62.620         18.33	     4.690
  62.640         11.67	     3.742
  62.660         20.00	     4.899
  62.680         24.17	     5.385
  62.700         19.17	     4.796
  62.720         17.50	     4.583
  62.740         26.67	     5.657
  62.760         20.00	     4.899
  62.780         24.17	     5.385
  62.800         25.83	     5.568
  62.820         19.17	     4.796
  62.840         24.17	     5.385
  62.860         24.17	     5.385
  62.880         18.33	     4.690
  62.900         28.33	     5.831
  62.920         27.50	     5.745
  62.940         23.33	     5.292
  62.960         27.50	     5.745
  62.980         30.83	     6.083
  63.000         55.00	     8.124
  63.020         59.17	     8.426
  63.040         49.17	     7.681
  63.060         25.83	     5.568
  63.080         23.33	     5.292
  63.100         23.33	     5.292
  63.120         21.67	     5.099
  63.140         25.00	     5.477
  63.160         27.50	     5.745
  63.180         35.83	     6.557
  63.200         38.33	     6.782
  63.220         37.50	     6.708
  63.240         35.83	     6.557
  63.260         18.33	     4.690
  63.280         20.83	     5.000
  63.300         24.17	     5.385
  63.320         23.33	     5.292
  63.340         23.33	     5.292
  63.360         22.50	     5.196
  63.380         24.17	     5.385
  63.400         20.00	     4.899
  63.420         25.83	     5.568
  63.440         20.00	     4.899
  63.460         22.50	     5.196
  63.480         24.17	     5.385
  63.500         24.17	     5.385
  63.520         25.00	     5.477
  63.540         21.67	     5.099
  63.560         25.00	     5.477
  63.580         22.50	     5.196
  63.600         25.83	     5.568
  63.620         21.67	     5.099
  63.640         37.50	     6.708
  63.660         28.33	     5.831
  63.680         27.50	     5.745
  63.700         34.17	     6.403
  63.720         25.00	     5.477
  63.740         29.17	     5.916
  63.760         34.17	     6.403
  63.780         23.33	     5.292
  63.800         21.67	     5.099
  63.820         24.17	     5.385
  63.840         35.83	     6.557
  63.860         34.17	     6.403
  63.880         35.00	     6.481
  63.900         34.17	     6.403
  63.920         31.67	     6.164
  63.940         21.67	     5.099
  63.960         20.00	     4.899
  63.980         31.67	     6.164
  64.000         31.67	     6.164
  64.020         16.67	     4.472
  64.040         25.83	     5.568
  64.060         20.83	     5.000
  64.080         35.00	     6.481
  64.100         35.83	     6.557
  64.120         29.17	     5.916
  64.140         31.67	     6.164
  64.160         40.00	     6.928
  64.180         35.83	     6.557
  64.200         34.17	     6.403
  64.220         41.67	     7.071
  64.240         37.50	     6.708
  64.260         45.00	     7.348
  64.280         47.50	     7.550
  64.300         32.50	     6.245
  64.320         50.00	     7.746
  64.340         52.50	     7.937
  64.360         47.50	     7.550
  64.380         57.50	     8.307
  64.400         80.00	     9.798
  64.420         83.33	    10.000
  64.440        115.00	    11.747
  64.460        115.83	    11.790
  64.480        165.83	    14.107
  64.500        288.33	    18.601
  64.520        513.33	    24.819
  64.540        897.50	    32.818
  64.560        930.83	    33.422
  64.580        667.50	    28.302
  64.600        379.17	    21.331
  64.620        275.83	    18.193
  64.640        201.67	    15.556
  64.660        174.17	    14.457
  64.680        221.67	    16.310
  64.700        305.83	    19.157
  64.720        447.50	    23.173
  64.740        480.00	    24.000
  64.760        371.67	    21.119
  64.780        205.83	    15.716
  64.800        155.83	    13.675
  64.820        110.00	    11.489
  64.840         77.50	     9.644
  64.860         63.33	     8.718
  64.880         58.33	     8.367
  64.900         51.67	     7.874
  64.920         54.17	     8.062
  64.940         41.67	     7.071
  64.960         34.17	     6.403
  64.980         32.50	     6.245
  65.000         42.50	     7.141
