
Filename:
	C:\Program Files\Thermo Electron\WinXRD\Datafiles\F_HERMAN\FIEN\23_1_AUG_P_RT.raw

File Created:
	January 24, 2019 - 03:04 PM

Specimen Id:
	23.2 AUG P FT

Specimen Name:
	

Specimen Description:
	

Comment:
Scan Type: 2Theta Scan
Start Angle: 1 deg.
Stop Angle: 65 deg.
Num Points: 3201
Step Size: 0.02 deg.
Scan Rate: 1.000000
Scan Mode: Continuous
Wavelength: 1.540562
\Kalpha1: 1.540562	\Kalpha2: 1.544390	\Kbeta: 1.392218

Optics:
		Detector:
			 Type: Fixed Slits
		Tube: 
			 Type: Fixed Slits


Datas:
 Pos [deg]       Rate [CPS]      ESD [-]

Range 1 ---> Iteration 1
   1.000       1010.83	    34.828
   1.020        770.00	    30.397
   1.040        685.00	    28.671
   1.060        515.83	    24.880
   1.080        477.50	    23.937
   1.100        479.17	    23.979
   1.120        478.33	    23.958
   1.140        443.33	    23.065
   1.160        400.00	    21.909
   1.180        436.67	    22.891
   1.200        385.00	    21.494
   1.220        469.17	    23.728
   1.240        385.00	    21.494
   1.260        471.67	    23.791
   1.280        494.17	    24.352
   1.300        595.83	    26.739
   1.320        721.67	    29.428
   1.340        956.67	    33.882
   1.360       1077.50	    35.958
   1.380       1342.50	    40.137
   1.400       1306.67	    39.598
   1.420       1260.83	    38.897
   1.440       1320.00	    39.799
   1.460       1290.83	    39.357
   1.480       1295.00	    39.421
   1.500       1259.17	    38.872
   1.520       1178.33	    37.603
   1.540       1165.83	    37.403
   1.560       1161.67	    37.336
   1.580       1142.50	    37.027
   1.600       1165.00	    37.390
   1.620        969.17	    34.103
   1.640       1026.67	    35.100
   1.660        915.00	    33.136
   1.680        875.00	    32.404
   1.700        745.83	    29.917
   1.720        720.00	    29.394
   1.740        729.17	    29.580
   1.760        638.33	    27.677
   1.780        656.67	    28.071
   1.800        589.17	    26.589
   1.820        575.00	    26.268
   1.840        568.33	    26.115
   1.860        539.17	    25.436
   1.880        511.67	    24.779
   1.900        490.83	    24.269
   1.920        499.17	    24.474
   1.940        539.17	    25.436
   1.960        463.33	    23.580
   1.980        470.00	    23.749
   2.000        440.00	    22.978
   2.020        485.83	    24.145
   2.040        447.50	    23.173
   2.060        438.33	    22.935
   2.080        440.00	    22.978
   2.100        443.33	    23.065
   2.120        410.00	    22.181
   2.140        423.33	    22.539
   2.160        417.50	    22.383
   2.180        421.67	    22.494
   2.200        397.50	    21.840
   2.220        398.33	    21.863
   2.240        414.17	    22.293
   2.260        375.00	    21.213
   2.280        392.50	    21.703
   2.300        386.67	    21.541
   2.320        352.50	    20.567
   2.340        330.83	    19.925
   2.360        359.17	    20.761
   2.380        370.00	    21.071
   2.400        366.67	    20.976
   2.420        349.17	    20.469
   2.440        374.17	    21.190
   2.460        358.33	    20.736
   2.480        337.50	    20.125
   2.500        335.00	    20.050
   2.520        352.50	    20.567
   2.540        297.50	    18.894
   2.560        310.00	    19.287
   2.580        329.17	    19.875
   2.600        362.50	    20.857
   2.620        323.33	    19.698
   2.640        325.83	    19.774
   2.660        323.33	    19.698
   2.680        315.00	    19.442
   2.700        307.50	    19.209
   2.720        293.33	    18.762
   2.740        295.83	    18.841
   2.760        300.83	    19.000
   2.780        283.33	    18.439
   2.800        293.33	    18.762
   2.820        279.17	    18.303
   2.840        295.00	    18.815
   2.860        280.83	    18.358
   2.880        274.17	    18.138
   2.900        277.50	    18.248
   2.920        287.50	    18.574
   2.940        288.33	    18.601
   2.960        303.33	    19.079
   2.980        251.67	    17.378
   3.000        277.50	    18.248
   3.020        241.67	    17.029
   3.040        260.83	    17.692
   3.060        265.00	    17.833
   3.080        260.00	    17.664
   3.100        254.17	    17.464
   3.120        257.50	    17.578
   3.140        263.33	    17.776
   3.160        245.83	    17.176
   3.180        247.50	    17.234
   3.200        233.33	    16.733
   3.220        262.50	    17.748
   3.240        240.00	    16.971
   3.260        224.17	    16.401
   3.280        246.67	    17.205
   3.300        265.00	    17.833
   3.320        231.67	    16.673
   3.340        223.33	    16.371
   3.360        224.17	    16.401
   3.380        240.83	    17.000
   3.400        234.17	    16.763
   3.420        230.83	    16.643
   3.440        249.17	    17.292
   3.460        233.33	    16.733
   3.480        224.17	    16.401
   3.500        228.33	    16.553
   3.520        223.33	    16.371
   3.540        230.00	    16.613
   3.560        227.50	    16.523
   3.580        222.50	    16.340
   3.600        197.50	    15.395
   3.620        220.83	    16.279
   3.640        220.83	    16.279
   3.660        199.17	    15.460
   3.680        208.33	    15.811
   3.700        225.83	    16.462
   3.720        215.00	    16.062
   3.740        211.67	    15.937
   3.760        207.50	    15.780
   3.780        217.50	    16.155
   3.800        200.83	    15.524
   3.820        195.00	    15.297
   3.840        206.67	    15.748
   3.860        200.83	    15.524
   3.880        205.00	    15.684
   3.900        161.67	    13.928
   3.920        210.00	    15.875
   3.940        205.00	    15.684
   3.960        187.50	    15.000
   3.980        185.00	    14.900
   4.000        190.00	    15.100
   4.020        213.33	    16.000
   4.040        205.83	    15.716
   4.060        198.33	    15.427
   4.080        180.83	    14.731
   4.100        184.17	    14.866
   4.120        165.83	    14.107
   4.140        190.00	    15.100
   4.160        176.67	    14.560
   4.180        182.50	    14.799
   4.200        191.67	    15.166
   4.220        160.00	    13.856
   4.240        157.50	    13.748
   4.260        178.33	    14.629
   4.280        169.17	    14.248
   4.300        180.00	    14.697
   4.320        178.33	    14.629
   4.340        177.50	    14.595
   4.360        165.00	    14.071
   4.380        183.33	    14.832
   4.400        159.17	    13.820
   4.420        192.50	    15.199
   4.440        166.67	    14.142
   4.460        161.67	    13.928
   4.480        173.33	    14.422
   4.500        165.83	    14.107
   4.520        175.00	    14.491
   4.540        150.83	    13.454
   4.560        158.33	    13.784
   4.580        166.67	    14.142
   4.600        158.33	    13.784
   4.620        158.33	    13.784
   4.640        163.33	    14.000
   4.660        169.17	    14.248
   4.680        164.17	    14.036
   4.700        178.33	    14.629
   4.720        161.67	    13.928
   4.740        145.00	    13.191
   4.760        137.50	    12.845
   4.780        161.67	    13.928
   4.800        152.50	    13.528
   4.820        173.33	    14.422
   4.840        178.33	    14.629
   4.860        156.67	    13.711
   4.880        155.83	    13.675
   4.900        150.83	    13.454
   4.920        158.33	    13.784
   4.940        149.17	    13.379
   4.960        168.33	    14.213
   4.980        150.00	    13.416
   5.000        139.17	    12.923
   5.020        138.33	    12.884
   5.040        148.33	    13.342
   5.060        134.17	    12.689
   5.080        150.83	    13.454
   5.100        144.17	    13.153
   5.120        150.83	    13.454
   5.140        152.50	    13.528
   5.160        155.83	    13.675
   5.180        157.50	    13.748
   5.200        142.50	    13.077
   5.220        156.67	    13.711
   5.240        155.83	    13.675
   5.260        127.50	    12.369
   5.280        126.67	    12.329
   5.300        130.00	    12.490
   5.320        138.33	    12.884
   5.340        118.33	    11.916
   5.360        132.50	    12.610
   5.380        131.67	    12.570
   5.400        125.83	    12.288
   5.420        121.67	    12.083
   5.440        136.67	    12.806
   5.460        140.00	    12.961
   5.480        128.33	    12.410
   5.500        150.83	    13.454
   5.520        126.67	    12.329
   5.540        130.83	    12.530
   5.560        140.00	    12.961
   5.580        138.33	    12.884
   5.600        144.17	    13.153
   5.620        147.50	    13.304
   5.640        122.50	    12.124
   5.660        159.17	    13.820
   5.680        130.00	    12.490
   5.700        128.33	    12.410
   5.720        135.83	    12.767
   5.740        123.33	    12.166
   5.760        133.33	    12.649
   5.780        127.50	    12.369
   5.800        142.50	    13.077
   5.820        140.00	    12.961
   5.840        121.67	    12.083
   5.860        152.50	    13.528
   5.880        141.67	    13.038
   5.900        134.17	    12.689
   5.920        144.17	    13.153
   5.940        165.00	    14.071
   5.960        145.00	    13.191
   5.980        135.00	    12.728
   6.000        160.00	    13.856
   6.020        146.67	    13.266
   6.040        161.67	    13.928
   6.060        208.33	    15.811
   6.080        185.83	    14.933
   6.100        195.00	    15.297
   6.120        205.83	    15.716
   6.140        225.83	    16.462
   6.160        256.67	    17.550
   6.180        248.33	    17.263
   6.200        236.67	    16.852
   6.220        222.50	    16.340
   6.240        200.83	    15.524
   6.260        156.67	    13.711
   6.280        132.50	    12.610
   6.300        155.83	    13.675
   6.320        132.50	    12.610
   6.340        134.17	    12.689
   6.360        119.17	    11.958
   6.380        139.17	    12.923
   6.400        135.83	    12.767
   6.420        146.67	    13.266
   6.440        135.83	    12.767
   6.460        111.67	    11.576
   6.480        123.33	    12.166
   6.500        110.00	    11.489
   6.520         90.83	    10.440
   6.540        124.17	    12.207
   6.560        115.83	    11.790
   6.580        136.67	    12.806
   6.600        110.00	    11.489
   6.620        126.67	    12.329
   6.640        129.17	    12.450
   6.660        125.00	    12.247
   6.680        110.83	    11.533
   6.700        115.00	    11.747
   6.720         99.17	    10.909
   6.740        143.33	    13.115
   6.760        126.67	    12.329
   6.780         99.17	    10.909
   6.800        105.83	    11.269
   6.820        135.00	    12.728
   6.840        107.50	    11.358
   6.860        113.33	    11.662
   6.880        115.00	    11.747
   6.900        112.50	    11.619
   6.920        102.50	    11.091
   6.940        100.00	    10.954
   6.960        110.00	    11.489
   6.980        114.17	    11.705
   7.000        111.67	    11.576
   7.020        101.67	    11.045
   7.040        101.67	    11.045
   7.060        102.50	    11.091
   7.080        104.17	    11.180
   7.100        124.17	    12.207
   7.120        108.33	    11.402
   7.140         93.33	    10.583
   7.160        110.00	    11.489
   7.180        100.83	    11.000
   7.200         95.83	    10.724
   7.220         96.67	    10.770
   7.240        129.17	    12.450
   7.260         89.17	    10.344
   7.280        100.00	    10.954
   7.300        122.50	    12.124
   7.320         96.67	    10.770
   7.340         93.33	    10.583
   7.360        112.50	    11.619
   7.380        101.67	    11.045
   7.400         99.17	    10.909
   7.420         95.83	    10.724
   7.440         99.17	    10.909
   7.460        107.50	    11.358
   7.480        107.50	    11.358
   7.500        116.67	    11.832
   7.520         84.17	    10.050
   7.540         90.83	    10.440
   7.560        100.00	    10.954
   7.580         95.83	    10.724
   7.600         99.17	    10.909
   7.620        106.67	    11.314
   7.640        105.00	    11.225
   7.660         79.17	     9.747
   7.680         97.50	    10.817
   7.700        102.50	    11.091
   7.720         88.33	    10.296
   7.740         95.00	    10.677
   7.760         95.83	    10.724
   7.780         88.33	    10.296
   7.800         99.17	    10.909
   7.820        106.67	    11.314
   7.840         79.17	     9.747
   7.860         89.17	    10.344
   7.880        105.83	    11.269
   7.900         90.00	    10.392
   7.920        103.33	    11.136
   7.940        103.33	    11.136
   7.960        103.33	    11.136
   7.980         85.83	    10.149
   8.000        104.17	    11.180
   8.020        107.50	    11.358
   8.040        104.17	    11.180
   8.060         78.33	     9.695
   8.080        100.00	    10.954
   8.100        100.83	    11.000
   8.120        101.67	    11.045
   8.140         91.67	    10.488
   8.160         78.33	     9.695
   8.180         90.83	    10.440
   8.200        105.00	    11.225
   8.220         99.17	    10.909
   8.240        102.50	    11.091
   8.260        102.50	    11.091
   8.280         90.00	    10.392
   8.300         86.67	    10.198
   8.320         92.50	    10.536
   8.340        109.17	    11.446
   8.360         95.00	    10.677
   8.380         98.33	    10.863
   8.400        103.33	    11.136
   8.420         94.17	    10.630
   8.440         91.67	    10.488
   8.460         95.83	    10.724
   8.480        105.00	    11.225
   8.500        102.50	    11.091
   8.520        106.67	    11.314
   8.540        102.50	    11.091
   8.560        106.67	    11.314
   8.580        125.83	    12.288
   8.600        124.17	    12.207
   8.620        127.50	    12.369
   8.640        125.00	    12.247
   8.660        129.17	    12.450
   8.680        166.67	    14.142
   8.700        165.83	    14.107
   8.720        183.33	    14.832
   8.740        185.00	    14.900
   8.760        237.50	    16.882
   8.780        278.33	    18.276
   8.800        371.67	    21.119
   8.820        500.00	    24.495
   8.840        461.67	    23.537
   8.860        392.50	    21.703
   8.880        280.83	    18.358
   8.900        165.00	    14.071
   8.920        129.17	    12.450
   8.940         97.50	    10.817
   8.960         88.33	    10.296
   8.980        100.83	    11.000
   9.000         91.67	    10.488
   9.020         85.00	    10.100
   9.040        110.83	    11.533
   9.060        109.17	    11.446
   9.080        105.00	    11.225
   9.100        117.50	    11.874
   9.120        155.83	    13.675
   9.140        160.00	    13.856
   9.160        145.00	    13.191
   9.180        107.50	    11.358
   9.200        106.67	    11.314
   9.220         80.00	     9.798
   9.240         92.50	    10.536
   9.260         69.17	     9.110
   9.280        105.00	    11.225
   9.300         88.33	    10.296
   9.320         89.17	    10.344
   9.340         99.17	    10.909
   9.360         77.50	     9.644
   9.380         97.50	    10.817
   9.400        101.67	    11.045
   9.420         99.17	    10.909
   9.440         82.50	     9.950
   9.460         87.50	    10.247
   9.480         75.83	     9.539
   9.500         75.83	     9.539
   9.520         86.67	    10.198
   9.540         78.33	     9.695
   9.560         83.33	    10.000
   9.580         88.33	    10.296
   9.600         81.67	     9.899
   9.620         83.33	    10.000
   9.640         90.83	    10.440
   9.660         89.17	    10.344
   9.680         91.67	    10.488
   9.700         86.67	    10.198
   9.720         80.83	     9.849
   9.740         74.17	     9.434
   9.760         71.67	     9.274
   9.780         88.33	    10.296
   9.800         74.17	     9.434
   9.820         78.33	     9.695
   9.840         65.83	     8.888
   9.860         71.67	     9.274
   9.880         95.83	    10.724
   9.900         79.17	     9.747
   9.920         74.17	     9.434
   9.940         78.33	     9.695
   9.960         87.50	    10.247
   9.980         64.17	     8.775
  10.000         71.67	     9.274
  10.020         74.17	     9.434
  10.040         76.67	     9.592
  10.060         85.83	    10.149
  10.080         80.83	     9.849
  10.100         77.50	     9.644
  10.120         72.50	     9.327
  10.140         63.33	     8.718
  10.160         80.83	     9.849
  10.180         83.33	    10.000
  10.200         70.83	     9.220
  10.220         78.33	     9.695
  10.240         79.17	     9.747
  10.260         59.17	     8.426
  10.280         78.33	     9.695
  10.300         61.67	     8.602
  10.320         68.33	     9.055
  10.340         85.83	    10.149
  10.360         83.33	    10.000
  10.380         92.50	    10.536
  10.400         81.67	     9.899
  10.420        105.00	    11.225
  10.440        119.17	    11.958
  10.460         92.50	    10.536
  10.480        102.50	    11.091
  10.500         99.17	    10.909
  10.520        103.33	    11.136
  10.540         88.33	    10.296
  10.560         82.50	     9.950
  10.580         65.83	     8.888
  10.600         71.67	     9.274
  10.620         70.00	     9.165
  10.640         71.67	     9.274
  10.660         71.67	     9.274
  10.680         71.67	     9.274
  10.700         71.67	     9.274
  10.720         73.33	     9.381
  10.740         68.33	     9.055
  10.760         64.17	     8.775
  10.780         75.83	     9.539
  10.800         82.50	     9.950
  10.820         67.50	     9.000
  10.840         66.67	     8.944
  10.860         65.00	     8.832
  10.880         71.67	     9.274
  10.900         80.00	     9.798
  10.920         71.67	     9.274
  10.940         76.67	     9.592
  10.960         73.33	     9.381
  10.980         70.00	     9.165
  11.000         66.67	     8.944
  11.020         75.83	     9.539
  11.040         70.00	     9.165
  11.060         66.67	     8.944
  11.080         65.83	     8.888
  11.100         74.17	     9.434
  11.120         66.67	     8.944
  11.140         70.00	     9.165
  11.160         65.83	     8.888
  11.180         65.00	     8.832
  11.200         75.83	     9.539
  11.220         83.33	    10.000
  11.240         66.67	     8.944
  11.260         68.33	     9.055
  11.280         64.17	     8.775
  11.300         68.33	     9.055
  11.320         70.83	     9.220
  11.340         65.83	     8.888
  11.360         70.00	     9.165
  11.380         73.33	     9.381
  11.400         67.50	     9.000
  11.420         65.00	     8.832
  11.440         62.50	     8.660
  11.460         80.00	     9.798
  11.480         66.67	     8.944
  11.500         70.00	     9.165
  11.520         70.83	     9.220
  11.540         68.33	     9.055
  11.560         75.00	     9.487
  11.580         72.50	     9.327
  11.600         71.67	     9.274
  11.620         86.67	    10.198
  11.640         66.67	     8.944
  11.660         76.67	     9.592
  11.680         64.17	     8.775
  11.700         62.50	     8.660
  11.720         65.00	     8.832
  11.740         77.50	     9.644
  11.760         74.17	     9.434
  11.780         67.50	     9.000
  11.800         68.33	     9.055
  11.820         75.83	     9.539
  11.840         63.33	     8.718
  11.860         84.17	    10.050
  11.880         79.17	     9.747
  11.900         78.33	     9.695
  11.920         72.50	     9.327
  11.940         86.67	    10.198
  11.960         77.50	     9.644
  11.980         96.67	    10.770
  12.000         85.83	    10.149
  12.020         77.50	     9.644
  12.040        102.50	    11.091
  12.060        115.83	    11.790
  12.080        159.17	    13.820
  12.100        221.67	    16.310
  12.120        243.33	    17.088
  12.140        264.17	    17.804
  12.160        210.00	    15.875
  12.180        170.83	    14.318
  12.200        115.00	    11.747
  12.220        110.00	    11.489
  12.240        140.00	    12.961
  12.260        127.50	    12.369
  12.280        183.33	    14.832
  12.300        135.83	    12.767
  12.320        157.50	    13.748
  12.340        136.67	    12.806
  12.360        143.33	    13.115
  12.380        155.83	    13.675
  12.400        170.00	    14.283
  12.420        223.33	    16.371
  12.440        260.83	    17.692
  12.460        254.17	    17.464
  12.480        208.33	    15.811
  12.500        151.67	    13.491
  12.520        114.17	    11.705
  12.540         90.83	    10.440
  12.560         80.83	     9.849
  12.580         86.67	    10.198
  12.600         70.00	     9.165
  12.620         71.67	     9.274
  12.640         76.67	     9.592
  12.660         81.67	     9.899
  12.680         74.17	     9.434
  12.700         70.00	     9.165
  12.720         65.00	     8.832
  12.740         60.00	     8.485
  12.760         77.50	     9.644
  12.780         80.00	     9.798
  12.800         65.00	     8.832
  12.820         72.50	     9.327
  12.840         71.67	     9.274
  12.860         62.50	     8.660
  12.880         76.67	     9.592
  12.900         74.17	     9.434
  12.920         79.17	     9.747
  12.940         60.83	     8.544
  12.960         67.50	     9.000
  12.980         70.00	     9.165
  13.000         66.67	     8.944
  13.020         66.67	     8.944
  13.040         69.17	     9.110
  13.060         61.67	     8.602
  13.080         71.67	     9.274
  13.100         64.17	     8.775
  13.120         74.17	     9.434
  13.140         56.67	     8.246
  13.160         70.83	     9.220
  13.180         60.83	     8.544
  13.200         60.83	     8.544
  13.220         73.33	     9.381
  13.240         59.17	     8.426
  13.260         64.17	     8.775
  13.280         73.33	     9.381
  13.300         58.33	     8.367
  13.320         60.00	     8.485
  13.340         58.33	     8.367
  13.360         65.00	     8.832
  13.380         68.33	     9.055
  13.400         65.83	     8.888
  13.420         66.67	     8.944
  13.440         65.00	     8.832
  13.460         78.33	     9.695
  13.480         65.00	     8.832
  13.500         75.00	     9.487
  13.520         54.17	     8.062
  13.540         65.83	     8.888
  13.560         56.67	     8.246
  13.580         57.50	     8.307
  13.600         65.00	     8.832
  13.620         69.17	     9.110
  13.640         58.33	     8.367
  13.660         62.50	     8.660
  13.680         69.17	     9.110
  13.700         78.33	     9.695
  13.720         60.83	     8.544
  13.740         74.17	     9.434
  13.760         70.83	     9.220
  13.780         78.33	     9.695
  13.800         86.67	    10.198
  13.820         93.33	    10.583
  13.840         95.83	    10.724
  13.860         66.67	     8.944
  13.880         75.83	     9.539
  13.900         55.83	     8.185
  13.920         85.83	    10.149
  13.940         80.00	     9.798
  13.960        105.83	    11.269
  13.980        117.50	    11.874
  14.000        101.67	    11.045
  14.020         83.33	    10.000
  14.040         64.17	     8.775
  14.060         76.67	     9.592
  14.080         70.00	     9.165
  14.100         60.00	     8.485
  14.120         63.33	     8.718
  14.140         56.67	     8.246
  14.160         45.83	     7.416
  14.180         65.83	     8.888
  14.200         55.00	     8.124
  14.220         68.33	     9.055
  14.240         48.33	     7.616
  14.260         51.67	     7.874
  14.280         61.67	     8.602
  14.300         56.67	     8.246
  14.320         59.17	     8.426
  14.340         53.33	     8.000
  14.360         43.33	     7.211
  14.380         58.33	     8.367
  14.400         60.83	     8.544
  14.420         66.67	     8.944
  14.440         54.17	     8.062
  14.460         51.67	     7.874
  14.480         71.67	     9.274
  14.500         66.67	     8.944
  14.520         50.83	     7.810
  14.540         59.17	     8.426
  14.560         50.00	     7.746
  14.580         70.83	     9.220
  14.600         45.00	     7.348
  14.620         51.67	     7.874
  14.640         60.83	     8.544
  14.660         73.33	     9.381
  14.680         63.33	     8.718
  14.700         55.83	     8.185
  14.720         58.33	     8.367
  14.740         65.00	     8.832
  14.760         59.17	     8.426
  14.780         65.83	     8.888
  14.800         61.67	     8.602
  14.820         66.67	     8.944
  14.840         61.67	     8.602
  14.860         54.17	     8.062
  14.880         65.83	     8.888
  14.900         51.67	     7.874
  14.920         65.00	     8.832
  14.940         71.67	     9.274
  14.960         45.00	     7.348
  14.980         60.00	     8.485
  15.000         52.50	     7.937
  15.020         55.00	     8.124
  15.040         63.33	     8.718
  15.060         64.17	     8.775
  15.080         56.67	     8.246
  15.100         64.17	     8.775
  15.120         43.33	     7.211
  15.140         48.33	     7.616
  15.160         62.50	     8.660
  15.180         43.33	     7.211
  15.200         57.50	     8.307
  15.220         54.17	     8.062
  15.240         70.00	     9.165
  15.260         55.00	     8.124
  15.280         59.17	     8.426
  15.300         66.67	     8.944
  15.320         50.83	     7.810
  15.340         61.67	     8.602
  15.360         56.67	     8.246
  15.380         53.33	     8.000
  15.400         68.33	     9.055
  15.420         60.83	     8.544
  15.440         73.33	     9.381
  15.460         60.83	     8.544
  15.480         63.33	     8.718
  15.500         62.50	     8.660
  15.520         69.17	     9.110
  15.540         56.67	     8.246
  15.560         54.17	     8.062
  15.580         48.33	     7.616
  15.600         53.33	     8.000
  15.620         64.17	     8.775
  15.640         70.00	     9.165
  15.660         43.33	     7.211
  15.680         60.83	     8.544
  15.700         55.83	     8.185
  15.720         52.50	     7.937
  15.740         60.83	     8.544
  15.760         63.33	     8.718
  15.780         61.67	     8.602
  15.800         61.67	     8.602
  15.820         59.17	     8.426
  15.840         57.50	     8.307
  15.860         48.33	     7.616
  15.880         59.17	     8.426
  15.900         72.50	     9.327
  15.920         59.17	     8.426
  15.940         54.17	     8.062
  15.960         40.00	     6.928
  15.980         45.00	     7.348
  16.000         58.33	     8.367
  16.020         50.83	     7.810
  16.040         60.00	     8.485
  16.060         55.00	     8.124
  16.080         41.67	     7.071
  16.100         45.00	     7.348
  16.120         49.17	     7.681
  16.140         49.17	     7.681
  16.160         61.67	     8.602
  16.180         61.67	     8.602
  16.200         63.33	     8.718
  16.220         51.67	     7.874
  16.240         55.83	     8.185
  16.260         34.17	     6.403
  16.280         61.67	     8.602
  16.300         54.17	     8.062
  16.320         64.17	     8.775
  16.340         59.17	     8.426
  16.360         56.67	     8.246
  16.380         51.67	     7.874
  16.400         50.00	     7.746
  16.420         61.67	     8.602
  16.440         55.00	     8.124
  16.460         59.17	     8.426
  16.480         59.17	     8.426
  16.500         60.83	     8.544
  16.520         42.50	     7.141
  16.540         57.50	     8.307
  16.560         43.33	     7.211
  16.580         63.33	     8.718
  16.600         57.50	     8.307
  16.620         51.67	     7.874
  16.640         37.50	     6.708
  16.660         59.17	     8.426
  16.680         48.33	     7.616
  16.700         65.00	     8.832
  16.720         50.83	     7.810
  16.740         60.83	     8.544
  16.760         55.83	     8.185
  16.780         49.17	     7.681
  16.800         60.83	     8.544
  16.820         64.17	     8.775
  16.840         55.83	     8.185
  16.860         64.17	     8.775
  16.880         60.00	     8.485
  16.900         50.83	     7.810
  16.920         70.00	     9.165
  16.940         46.67	     7.483
  16.960         50.83	     7.810
  16.980         57.50	     8.307
  17.000         57.50	     8.307
  17.020         51.67	     7.874
  17.040         44.17	     7.280
  17.060         67.50	     9.000
  17.080         49.17	     7.681
  17.100         60.83	     8.544
  17.120         68.33	     9.055
  17.140         55.00	     8.124
  17.160         64.17	     8.775
  17.180         52.50	     7.937
  17.200         48.33	     7.616
  17.220         55.83	     8.185
  17.240         66.67	     8.944
  17.260         67.50	     9.000
  17.280         65.83	     8.888
  17.300         60.00	     8.485
  17.320         60.00	     8.485
  17.340         52.50	     7.937
  17.360         44.17	     7.280
  17.380         54.17	     8.062
  17.400         77.50	     9.644
  17.420         58.33	     8.367
  17.440         63.33	     8.718
  17.460         48.33	     7.616
  17.480         72.50	     9.327
  17.500         69.17	     9.110
  17.520         64.17	     8.775
  17.540         62.50	     8.660
  17.560         53.33	     8.000
  17.580         58.33	     8.367
  17.600         70.83	     9.220
  17.620         62.50	     8.660
  17.640         71.67	     9.274
  17.660         59.17	     8.426
  17.680         97.50	    10.817
  17.700        124.17	    12.207
  17.720        142.50	    13.077
  17.740        181.67	    14.765
  17.760        214.17	    16.031
  17.780        211.67	    15.937
  17.800        174.17	    14.457
  17.820        147.50	    13.304
  17.840        104.17	    11.180
  17.860         76.67	     9.592
  17.880         55.83	     8.185
  17.900         67.50	     9.000
  17.920         55.00	     8.124
  17.940         54.17	     8.062
  17.960         65.83	     8.888
  17.980         69.17	     9.110
  18.000         56.67	     8.246
  18.020         60.83	     8.544
  18.040         58.33	     8.367
  18.060         54.17	     8.062
  18.080         55.83	     8.185
  18.100         66.67	     8.944
  18.120         60.83	     8.544
  18.140         55.83	     8.185
  18.160         57.50	     8.307
  18.180         65.83	     8.888
  18.200         59.17	     8.426
  18.220         55.00	     8.124
  18.240         55.00	     8.124
  18.260         49.17	     7.681
  18.280         62.50	     8.660
  18.300         52.50	     7.937
  18.320         70.00	     9.165
  18.340         74.17	     9.434
  18.360         65.83	     8.888
  18.380         83.33	    10.000
  18.400         78.33	     9.695
  18.420         82.50	     9.950
  18.440         79.17	     9.747
  18.460         61.67	     8.602
  18.480         75.00	     9.487
  18.500         75.83	     9.539
  18.520        101.67	    11.045
  18.540         82.50	     9.950
  18.560         65.00	     8.832
  18.580         63.33	     8.718
  18.600         80.00	     9.798
  18.620         72.50	     9.327
  18.640         81.67	     9.899
  18.660         78.33	     9.695
  18.680         90.00	    10.392
  18.700        113.33	    11.662
  18.720        109.17	    11.446
  18.740        125.83	    12.288
  18.760        153.33	    13.565
  18.780        100.83	    11.000
  18.800         93.33	    10.583
  18.820         80.83	     9.849
  18.840         56.67	     8.246
  18.860         73.33	     9.381
  18.880         60.00	     8.485
  18.900         68.33	     9.055
  18.920         60.00	     8.485
  18.940         55.00	     8.124
  18.960         53.33	     8.000
  18.980         55.83	     8.185
  19.000         50.83	     7.810
  19.020         52.50	     7.937
  19.040         65.00	     8.832
  19.060         62.50	     8.660
  19.080         57.50	     8.307
  19.100         57.50	     8.307
  19.120         58.33	     8.367
  19.140         75.00	     9.487
  19.160         60.00	     8.485
  19.180         65.00	     8.832
  19.200         68.33	     9.055
  19.220         60.83	     8.544
  19.240         63.33	     8.718
  19.260         63.33	     8.718
  19.280         60.83	     8.544
  19.300         59.17	     8.426
  19.320         68.33	     9.055
  19.340         68.33	     9.055
  19.360         60.83	     8.544
  19.380         59.17	     8.426
  19.400         75.00	     9.487
  19.420         61.67	     8.602
  19.440         65.00	     8.832
  19.460         42.50	     7.141
  19.480         59.17	     8.426
  19.500         62.50	     8.660
  19.520         65.83	     8.888
  19.540         65.83	     8.888
  19.560         78.33	     9.695
  19.580         76.67	     9.592
  19.600         65.83	     8.888
  19.620         62.50	     8.660
  19.640         78.33	     9.695
  19.660         82.50	     9.950
  19.680         68.33	     9.055
  19.700         75.83	     9.539
  19.720         74.17	     9.434
  19.740         90.00	    10.392
  19.760         75.83	     9.539
  19.780         71.67	     9.274
  19.800        105.83	    11.269
  19.820         81.67	     9.899
  19.840         69.17	     9.110
  19.860         80.83	     9.849
  19.880         70.00	     9.165
  19.900         69.17	     9.110
  19.920         76.67	     9.592
  19.940         60.00	     8.485
  19.960         55.00	     8.124
  19.980         54.17	     8.062
  20.000         50.83	     7.810
  20.020         43.33	     7.211
  20.040         54.17	     8.062
  20.060         58.33	     8.367
  20.080         54.17	     8.062
  20.100         49.17	     7.681
  20.120         50.00	     7.746
  20.140         60.00	     8.485
  20.160         70.83	     9.220
  20.180         50.00	     7.746
  20.200         59.17	     8.426
  20.220         51.67	     7.874
  20.240         59.17	     8.426
  20.260         55.83	     8.185
  20.280         50.83	     7.810
  20.300         50.00	     7.746
  20.320         50.00	     7.746
  20.340         41.67	     7.071
  20.360         52.50	     7.937
  20.380         51.67	     7.874
  20.400         58.33	     8.367
  20.420         46.67	     7.483
  20.440         63.33	     8.718
  20.460         51.67	     7.874
  20.480         60.00	     8.485
  20.500         50.83	     7.810
  20.520         55.00	     8.124
  20.540         60.00	     8.485
  20.560         61.67	     8.602
  20.580         73.33	     9.381
  20.600         62.50	     8.660
  20.620         76.67	     9.592
  20.640         58.33	     8.367
  20.660         63.33	     8.718
  20.680        102.50	    11.091
  20.700        115.83	    11.790
  20.720        120.00	    12.000
  20.740        123.33	    12.166
  20.760        194.17	    15.264
  20.780        236.67	    16.852
  20.800        294.17	    18.788
  20.820        264.17	    17.804
  20.840        214.17	    16.031
  20.860        155.83	    13.675
  20.880        119.17	    11.958
  20.900         64.17	     8.775
  20.920         71.67	     9.274
  20.940         75.00	     9.487
  20.960         75.00	     9.487
  20.980         70.83	     9.220
  21.000         91.67	    10.488
  21.020         79.17	     9.747
  21.040         63.33	     8.718
  21.060         65.83	     8.888
  21.080         70.00	     9.165
  21.100         58.33	     8.367
  21.120         63.33	     8.718
  21.140         48.33	     7.616
  21.160         52.50	     7.937
  21.180         63.33	     8.718
  21.200         59.17	     8.426
  21.220         43.33	     7.211
  21.240         56.67	     8.246
  21.260         49.17	     7.681
  21.280         50.00	     7.746
  21.300         48.33	     7.616
  21.320         76.67	     9.592
  21.340         47.50	     7.550
  21.360         59.17	     8.426
  21.380         61.67	     8.602
  21.400         50.00	     7.746
  21.420         60.00	     8.485
  21.440         45.83	     7.416
  21.460         59.17	     8.426
  21.480         54.17	     8.062
  21.500         61.67	     8.602
  21.520         55.00	     8.124
  21.540         65.00	     8.832
  21.560         61.67	     8.602
  21.580         63.33	     8.718
  21.600         44.17	     7.280
  21.620         51.67	     7.874
  21.640         60.00	     8.485
  21.660         44.17	     7.280
  21.680         58.33	     8.367
  21.700         54.17	     8.062
  21.720         60.00	     8.485
  21.740         69.17	     9.110
  21.760         61.67	     8.602
  21.780         58.33	     8.367
  21.800         55.00	     8.124
  21.820         61.67	     8.602
  21.840         62.50	     8.660
  21.860         59.17	     8.426
  21.880         55.00	     8.124
  21.900         90.00	    10.392
  21.920         90.00	    10.392
  21.940        128.33	    12.410
  21.960        199.17	    15.460
  21.980        276.67	    18.221
  22.000        252.50	    17.407
  22.020        203.33	    15.620
  22.040        149.17	    13.379
  22.060        138.33	    12.884
  22.080         81.67	     9.899
  22.100         70.83	     9.220
  22.120         70.00	     9.165
  22.140         56.67	     8.246
  22.160         62.50	     8.660
  22.180         63.33	     8.718
  22.200         55.00	     8.124
  22.220         60.00	     8.485
  22.240         50.83	     7.810
  22.260         59.17	     8.426
  22.280         56.67	     8.246
  22.300         55.83	     8.185
  22.320         62.50	     8.660
  22.340         60.00	     8.485
  22.360         71.67	     9.274
  22.380         70.00	     9.165
  22.400         75.83	     9.539
  22.420        100.83	    11.000
  22.440         79.17	     9.747
  22.460         75.00	     9.487
  22.480         71.67	     9.274
  22.500         68.33	     9.055
  22.520         54.17	     8.062
  22.540         55.83	     8.185
  22.560         60.83	     8.544
  22.580         57.50	     8.307
  22.600         56.67	     8.246
  22.620         59.17	     8.426
  22.640         53.33	     8.000
  22.660         53.33	     8.000
  22.680         52.50	     7.937
  22.700         56.67	     8.246
  22.720         62.50	     8.660
  22.740         50.83	     7.810
  22.760         65.83	     8.888
  22.780         65.00	     8.832
  22.800         63.33	     8.718
  22.820         76.67	     9.592
  22.840         84.17	    10.050
  22.860         69.17	     9.110
  22.880         80.83	     9.849
  22.900         74.17	     9.434
  22.920         81.67	     9.899
  22.940         69.17	     9.110
  22.960         75.83	     9.539
  22.980         61.67	     8.602
  23.000         56.67	     8.246
  23.020         63.33	     8.718
  23.040         60.83	     8.544
  23.060         60.83	     8.544
  23.080         50.00	     7.746
  23.100         54.17	     8.062
  23.120         49.17	     7.681
  23.140         47.50	     7.550
  23.160         55.83	     8.185
  23.180         52.50	     7.937
  23.200         45.83	     7.416
  23.220         50.83	     7.810
  23.240         45.00	     7.348
  23.260         45.83	     7.416
  23.280         58.33	     8.367
  23.300         56.67	     8.246
  23.320         59.17	     8.426
  23.340         61.67	     8.602
  23.360         50.83	     7.810
  23.380         65.00	     8.832
  23.400         60.00	     8.485
  23.420         71.67	     9.274
  23.440         91.67	    10.488
  23.460        111.67	    11.576
  23.480        131.67	    12.570
  23.500        116.67	    11.832
  23.520         95.83	    10.724
  23.540         98.33	    10.863
  23.560         95.83	    10.724
  23.580         67.50	     9.000
  23.600         65.00	     8.832
  23.620         82.50	     9.950
  23.640         69.17	     9.110
  23.660         71.67	     9.274
  23.680         81.67	     9.899
  23.700         60.00	     8.485
  23.720         90.00	    10.392
  23.740         91.67	    10.488
  23.760         74.17	     9.434
  23.780         80.00	     9.798
  23.800         74.17	     9.434
  23.820         68.33	     9.055
  23.840         89.17	    10.344
  23.860         75.00	     9.487
  23.880         66.67	     8.944
  23.900         74.17	     9.434
  23.920         58.33	     8.367
  23.940         66.67	     8.944
  23.960         74.17	     9.434
  23.980         65.00	     8.832
  24.000         62.50	     8.660
  24.020         90.00	    10.392
  24.040         80.00	     9.798
  24.060         77.50	     9.644
  24.080         90.00	    10.392
  24.100        100.83	    11.000
  24.120         92.50	    10.536
  24.140        105.00	    11.225
  24.160        112.50	    11.619
  24.180        111.67	    11.576
  24.200        130.00	    12.490
  24.220        126.67	    12.329
  24.240        140.00	    12.961
  24.260        133.33	    12.649
  24.280        113.33	    11.662
  24.300         94.17	    10.630
  24.320         98.33	    10.863
  24.340         77.50	     9.644
  24.360         66.67	     8.944
  24.380         88.33	    10.296
  24.400         84.17	    10.050
  24.420         88.33	    10.296
  24.440         87.50	    10.247
  24.460        105.00	    11.225
  24.480        135.00	    12.728
  24.500        190.00	    15.100
  24.520        215.83	    16.093
  24.540        214.17	    16.031
  24.560        196.67	    15.362
  24.580        202.50	    15.588
  24.600        179.17	    14.663
  24.620        145.83	    13.229
  24.640        146.67	    13.266
  24.660        117.50	    11.874
  24.680        112.50	    11.619
  24.700        100.83	    11.000
  24.720         98.33	    10.863
  24.740         91.67	    10.488
  24.760        108.33	    11.402
  24.780        112.50	    11.619
  24.800        107.50	    11.358
  24.820         96.67	    10.770
  24.840         89.17	    10.344
  24.860        100.83	    11.000
  24.880        112.50	    11.619
  24.900        100.00	    10.954
  24.920         99.17	    10.909
  24.940         95.00	    10.677
  24.960        100.83	    11.000
  24.980        111.67	    11.576
  25.000         90.83	    10.440
  25.020        121.67	    12.083
  25.040        142.50	    13.077
  25.060        186.67	    14.967
  25.080        223.33	    16.371
  25.100        227.50	    16.523
  25.120        214.17	    16.031
  25.140        181.67	    14.765
  25.160        161.67	    13.928
  25.180        145.00	    13.191
  25.200        112.50	    11.619
  25.220        109.17	    11.446
  25.240        106.67	    11.314
  25.260        104.17	    11.180
  25.280        182.50	    14.799
  25.300        523.33	    25.060
  25.320        900.00	    32.863
  25.340        832.50	    31.607
  25.360        425.00	    22.583
  25.380        551.67	    25.729
  25.400        495.83	    24.393
  25.420        313.33	    19.391
  25.440        167.50	    14.177
  25.460        135.83	    12.767
  25.480        130.00	    12.490
  25.500        117.50	    11.874
  25.520        109.17	    11.446
  25.540         95.00	    10.677
  25.560         90.83	    10.440
  25.580        110.83	    11.533
  25.600         97.50	    10.817
  25.620        102.50	    11.091
  25.640        108.33	    11.402
  25.660         85.00	    10.100
  25.680         74.17	     9.434
  25.700         72.50	     9.327
  25.720         75.83	     9.539
  25.740         66.67	     8.944
  25.760         59.17	     8.426
  25.780         61.67	     8.602
  25.800         48.33	     7.616
  25.820         67.50	     9.000
  25.840         66.67	     8.944
  25.860         50.83	     7.810
  25.880         58.33	     8.367
  25.900         68.33	     9.055
  25.920         54.17	     8.062
  25.940         55.00	     8.124
  25.960         63.33	     8.718
  25.980         55.00	     8.124
  26.000         63.33	     8.718
  26.020         67.50	     9.000
  26.040         49.17	     7.681
  26.060         65.00	     8.832
  26.080         70.00	     9.165
  26.100         74.17	     9.434
  26.120         63.33	     8.718
  26.140         65.83	     8.888
  26.160         76.67	     9.592
  26.180         81.67	     9.899
  26.200         81.67	     9.899
  26.220        103.33	    11.136
  26.240        115.00	    11.747
  26.260         90.83	    10.440
  26.280         84.17	    10.050
  26.300        115.00	    11.747
  26.320        103.33	    11.136
  26.340        127.50	    12.369
  26.360        103.33	    11.136
  26.380        137.50	    12.845
  26.400        154.17	    13.601
  26.420        138.33	    12.884
  26.440        174.17	    14.457
  26.460        202.50	    15.588
  26.480        259.17	    17.635
  26.500        322.50	    19.672
  26.520        484.17	    24.104
  26.540        759.17	    30.183
  26.560       1189.17	    37.776
  26.580       1657.50	    44.598
  26.600       1528.33	    42.825
  26.620       1120.00	    36.661
  26.640        962.50	    33.985
  26.660        920.00	    33.226
  26.680        648.33	    27.893
  26.700        327.50	    19.824
  26.720        259.17	    17.635
  26.740        295.83	    18.841
  26.760        452.50	    23.302
  26.780        682.50	    28.618
  26.800        932.50	    33.451
  26.820        888.33	    32.650
  26.840        662.50	    28.196
  26.860        616.67	    27.203
  26.880        546.67	    25.612
  26.900        342.50	    20.273
  26.920        202.50	    15.588
  26.940        155.83	    13.675
  26.960        123.33	    12.166
  26.980        116.67	    11.832
  27.000        110.00	    11.489
  27.020        101.67	    11.045
  27.040        115.83	    11.790
  27.060         63.33	     8.718
  27.080         90.83	    10.440
  27.100         90.00	    10.392
  27.120         69.17	     9.110
  27.140         73.33	     9.381
  27.160         63.33	     8.718
  27.180         71.67	     9.274
  27.200         80.00	     9.798
  27.220         73.33	     9.381
  27.240         62.50	     8.660
  27.260         58.33	     8.367
  27.280         70.83	     9.220
  27.300         70.00	     9.165
  27.320         72.50	     9.327
  27.340         73.33	     9.381
  27.360         84.17	    10.050
  27.380         80.83	     9.849
  27.400         79.17	     9.747
  27.420        104.17	    11.180
  27.440         97.50	    10.817
  27.460        105.83	    11.269
  27.480        103.33	    11.136
  27.500         89.17	    10.344
  27.520         91.67	    10.488
  27.540         85.00	    10.100
  27.560         83.33	    10.000
  27.580         86.67	    10.198
  27.600        108.33	    11.402
  27.620        104.17	    11.180
  27.640        130.83	    12.530
  27.660        160.00	    13.856
  27.680        150.83	    13.454
  27.700        168.33	    14.213
  27.720        156.67	    13.711
  27.740        198.33	    15.427
  27.760        198.33	    15.427
  27.780        220.83	    16.279
  27.800        240.83	    17.000
  27.820        286.67	    18.547
  27.840        341.67	    20.248
  27.860        329.17	    19.875
  27.880        322.50	    19.672
  27.900        266.67	    17.889
  27.920        246.67	    17.205
  27.940        204.17	    15.652
  27.960        175.83	    14.526
  27.980        140.00	    12.961
  28.000        113.33	    11.662
  28.020        125.00	    12.247
  28.040        126.67	    12.329
  28.060        128.33	    12.410
  28.080        133.33	    12.649
  28.100        131.67	    12.570
  28.120        160.83	    13.892
  28.140        224.17	    16.401
  28.160        418.33	    22.405
  28.180        545.00	    25.573
  28.200        524.17	    25.080
  28.220        665.00	    28.249
  28.240        776.67	    30.529
  28.260        682.50	    28.618
  28.280        489.17	    24.228
  28.300        425.00	    22.583
  28.320        362.50	    20.857
  28.340        306.67	    19.183
  28.360        171.67	    14.353
  28.380        108.33	    11.402
  28.400        102.50	    11.091
  28.420         80.83	     9.849
  28.440         82.50	     9.950
  28.460         74.17	     9.434
  28.480         97.50	    10.817
  28.500        115.00	    11.747
  28.520        103.33	    11.136
  28.540         96.67	    10.770
  28.560         90.83	    10.440
  28.580         93.33	    10.583
  28.600         90.83	    10.440
  28.620         87.50	    10.247
  28.640        103.33	    11.136
  28.660        120.00	    12.000
  28.680         95.00	    10.677
  28.700         92.50	    10.536
  28.720         93.33	    10.583
  28.740         89.17	    10.344
  28.760         75.00	     9.487
  28.780         61.67	     8.602
  28.800         55.00	     8.124
  28.820         55.00	     8.124
  28.840         44.17	     7.280
  28.860         49.17	     7.681
  28.880         51.67	     7.874
  28.900         35.83	     6.557
  28.920         49.17	     7.681
  28.940         50.00	     7.746
  28.960         41.67	     7.071
  28.980         46.67	     7.483
  29.000         50.83	     7.810
  29.020         49.17	     7.681
  29.040         51.67	     7.874
  29.060         50.83	     7.810
  29.080         52.50	     7.937
  29.100         43.33	     7.211
  29.120         41.67	     7.071
  29.140         50.00	     7.746
  29.160         66.67	     8.944
  29.180         50.00	     7.746
  29.200         41.67	     7.071
  29.220         52.50	     7.937
  29.240         52.50	     7.937
  29.260         45.83	     7.416
  29.280         49.17	     7.681
  29.300         45.83	     7.416
  29.320         54.17	     8.062
  29.340         44.17	     7.280
  29.360         57.50	     8.307
  29.380         48.33	     7.616
  29.400         38.33	     6.782
  29.420         52.50	     7.937
  29.440         60.00	     8.485
  29.460         48.33	     7.616
  29.480         54.17	     8.062
  29.500         52.50	     7.937
  29.520         63.33	     8.718
  29.540         55.00	     8.124
  29.560         64.17	     8.775
  29.580         47.50	     7.550
  29.600         55.00	     8.124
  29.620         59.17	     8.426
  29.640         66.67	     8.944
  29.660         53.33	     8.000
  29.680         52.50	     7.937
  29.700         76.67	     9.592
  29.720         84.17	    10.050
  29.740         96.67	    10.770
  29.760        109.17	    11.446
  29.780        135.83	    12.767
  29.800        151.67	    13.491
  29.820        130.83	    12.530
  29.840        111.67	    11.576
  29.860        125.83	    12.288
  29.880         91.67	    10.488
  29.900        106.67	    11.314
  29.920         80.83	     9.849
  29.940         89.17	    10.344
  29.960         76.67	     9.592
  29.980         83.33	    10.000
  30.000        101.67	    11.045
  30.020         69.17	     9.110
  30.040         88.33	    10.296
  30.060         68.33	     9.055
  30.080         63.33	     8.718
  30.100         75.83	     9.539
  30.120         70.00	     9.165
  30.140         73.33	     9.381
  30.160         72.50	     9.327
  30.180         72.50	     9.327
  30.200         60.83	     8.544
  30.220         77.50	     9.644
  30.240         80.00	     9.798
  30.260         72.50	     9.327
  30.280         70.00	     9.165
  30.300         63.33	     8.718
  30.320         63.33	     8.718
  30.340         79.17	     9.747
  30.360         62.50	     8.660
  30.380         90.83	    10.440
  30.400         91.67	    10.488
  30.420        106.67	    11.314
  30.440        119.17	    11.958
  30.460        121.67	    12.083
  30.480        100.00	    10.954
  30.500         99.17	    10.909
  30.520         92.50	    10.536
  30.540         86.67	    10.198
  30.560         72.50	     9.327
  30.580         63.33	     8.718
  30.600         58.33	     8.367
  30.620         43.33	     7.211
  30.640         53.33	     8.000
  30.660         54.17	     8.062
  30.680         59.17	     8.426
  30.700         66.67	     8.944
  30.720         60.00	     8.485
  30.740         74.17	     9.434
  30.760         63.33	     8.718
  30.780         67.50	     9.000
  30.800         69.17	     9.110
  30.820         69.17	     9.110
  30.840         58.33	     8.367
  30.860         77.50	     9.644
  30.880         50.00	     7.746
  30.900         60.83	     8.544
  30.920         57.50	     8.307
  30.940         58.33	     8.367
  30.960         65.83	     8.888
  30.980         65.83	     8.888
  31.000         68.33	     9.055
  31.020         66.67	     8.944
  31.040         70.00	     9.165
  31.060         53.33	     8.000
  31.080         62.50	     8.660
  31.100         75.00	     9.487
  31.120         89.17	    10.344
  31.140         95.00	    10.677
  31.160         91.67	    10.488
  31.180        120.83	    12.042
  31.200         93.33	    10.583
  31.220         98.33	    10.863
  31.240        105.00	    11.225
  31.260         89.17	    10.344
  31.280         91.67	    10.488
  31.300         90.83	    10.440
  31.320         81.67	     9.899
  31.340         81.67	     9.899
  31.360         88.33	    10.296
  31.380         66.67	     8.944
  31.400         77.50	     9.644
  31.420         73.33	     9.381
  31.440         77.50	     9.644
  31.460         77.50	     9.644
  31.480         54.17	     8.062
  31.500        100.83	    11.000
  31.520         65.83	     8.888
  31.540         69.17	     9.110
  31.560         67.50	     9.000
  31.580         69.17	     9.110
  31.600         60.83	     8.544
  31.620         60.00	     8.485
  31.640         60.00	     8.485
  31.660         68.33	     9.055
  31.680         47.50	     7.550
  31.700         50.00	     7.746
  31.720         50.83	     7.810
  31.740         45.83	     7.416
  31.760         45.83	     7.416
  31.780         46.67	     7.483
  31.800         45.83	     7.416
  31.820         46.67	     7.483
  31.840         50.00	     7.746
  31.860         47.50	     7.550
  31.880         63.33	     8.718
  31.900         63.33	     8.718
  31.920         56.67	     8.246
  31.940         61.67	     8.602
  31.960         55.00	     8.124
  31.980         81.67	     9.899
  32.000         65.00	     8.832
  32.020         70.83	     9.220
  32.040         61.67	     8.602
  32.060         68.33	     9.055
  32.080         60.83	     8.544
  32.100         68.33	     9.055
  32.120         74.17	     9.434
  32.140         58.33	     8.367
  32.160         68.33	     9.055
  32.180         60.00	     8.485
  32.200         57.50	     8.307
  32.220         48.33	     7.616
  32.240         56.67	     8.246
  32.260         66.67	     8.944
  32.280         57.50	     8.307
  32.300         49.17	     7.681
  32.320         47.50	     7.550
  32.340         52.50	     7.937
  32.360         43.33	     7.211
  32.380         45.83	     7.416
  32.400         48.33	     7.616
  32.420         46.67	     7.483
  32.440         51.67	     7.874
  32.460         68.33	     9.055
  32.480         60.83	     8.544
  32.500         52.50	     7.937
  32.520         53.33	     8.000
  32.540         55.00	     8.124
  32.560         41.67	     7.071
  32.580         40.83	     7.000
  32.600         49.17	     7.681
  32.620         43.33	     7.211
  32.640         40.83	     7.000
  32.660         40.00	     6.928
  32.680         39.17	     6.856
  32.700         37.50	     6.708
  32.720         45.00	     7.348
  32.740         40.83	     7.000
  32.760         35.83	     6.557
  32.780         49.17	     7.681
  32.800         37.50	     6.708
  32.820         37.50	     6.708
  32.840         38.33	     6.782
  32.860         44.17	     7.280
  32.880         47.50	     7.550
  32.900         50.83	     7.810
  32.920         41.67	     7.071
  32.940         56.67	     8.246
  32.960         55.00	     8.124
  32.980         67.50	     9.000
  33.000         62.50	     8.660
  33.020         60.83	     8.544
  33.040         60.00	     8.485
  33.060         54.17	     8.062
  33.080         45.83	     7.416
  33.100         53.33	     8.000
  33.120         40.83	     7.000
  33.140         49.17	     7.681
  33.160         46.67	     7.483
  33.180         50.83	     7.810
  33.200         41.67	     7.071
  33.220         44.17	     7.280
  33.240         36.67	     6.633
  33.260         45.00	     7.348
  33.280         47.50	     7.550
  33.300         60.83	     8.544
  33.320         76.67	     9.592
  33.340         80.00	     9.798
  33.360         60.00	     8.485
  33.380         48.33	     7.616
  33.400         48.33	     7.616
  33.420         63.33	     8.718
  33.440         48.33	     7.616
  33.460         36.67	     6.633
  33.480         44.17	     7.280
  33.500         51.67	     7.874
  33.520         43.33	     7.211
  33.540         38.33	     6.782
  33.560         45.83	     7.416
  33.580         45.00	     7.348
  33.600         38.33	     6.782
  33.620         45.00	     7.348
  33.640         49.17	     7.681
  33.660         45.83	     7.416
  33.680         43.33	     7.211
  33.700         38.33	     6.782
  33.720         43.33	     7.211
  33.740         44.17	     7.280
  33.760         52.50	     7.937
  33.780         49.17	     7.681
  33.800         58.33	     8.367
  33.820         48.33	     7.616
  33.840         57.50	     8.307
  33.860         75.83	     9.539
  33.880         79.17	     9.747
  33.900         64.17	     8.775
  33.920         65.00	     8.832
  33.940         63.33	     8.718
  33.960         48.33	     7.616
  33.980         48.33	     7.616
  34.000         43.33	     7.211
  34.020         40.00	     6.928
  34.040         45.83	     7.416
  34.060         55.83	     8.185
  34.080         53.33	     8.000
  34.100         57.50	     8.307
  34.120         56.67	     8.246
  34.140         49.17	     7.681
  34.160         49.17	     7.681
  34.180         50.83	     7.810
  34.200         45.83	     7.416
  34.220         60.00	     8.485
  34.240         52.50	     7.937
  34.260         57.50	     8.307
  34.280         58.33	     8.367
  34.300         58.33	     8.367
  34.320         69.17	     9.110
  34.340         70.83	     9.220
  34.360         65.00	     8.832
  34.380         68.33	     9.055
  34.400         83.33	    10.000
  34.420         78.33	     9.695
  34.440         90.83	    10.440
  34.460         89.17	    10.344
  34.480         87.50	    10.247
  34.500         86.67	    10.198
  34.520         95.00	    10.677
  34.540         89.17	    10.344
  34.560        116.67	    11.832
  34.580         96.67	    10.770
  34.600         70.83	     9.220
  34.620         68.33	     9.055
  34.640         66.67	     8.944
  34.660         78.33	     9.695
  34.680         72.50	     9.327
  34.700         60.83	     8.544
  34.720         75.00	     9.487
  34.740         79.17	     9.747
  34.760         95.00	    10.677
  34.780        103.33	    11.136
  34.800         92.50	    10.536
  34.820        113.33	    11.662
  34.840        112.50	    11.619
  34.860        117.50	    11.874
  34.880        114.17	    11.705
  34.900        128.33	    12.410
  34.920        129.17	    12.450
  34.940        104.17	    11.180
  34.960        122.50	    12.124
  34.980        104.17	    11.180
  35.000         97.50	    10.817
  35.020         82.50	     9.950
  35.040         89.17	    10.344
  35.060         95.00	    10.677
  35.080         75.00	     9.487
  35.100         76.67	     9.592
  35.120         83.33	    10.000
  35.140         64.17	     8.775
  35.160         76.67	     9.592
  35.180         66.67	     8.944
  35.200         65.83	     8.888
  35.220         90.83	    10.440
  35.240         90.00	    10.392
  35.260        122.50	    12.124
  35.280        125.00	    12.247
  35.300        120.83	    12.042
  35.320        100.83	    11.000
  35.340         93.33	    10.583
  35.360         95.00	    10.677
  35.380        116.67	    11.832
  35.400         99.17	    10.909
  35.420         95.83	    10.724
  35.440        126.67	    12.329
  35.460        124.17	    12.207
  35.480        115.83	    11.790
  35.500        105.83	    11.269
  35.520        113.33	    11.662
  35.540        112.50	    11.619
  35.560        101.67	    11.045
  35.580         69.17	     9.110
  35.600         72.50	     9.327
  35.620         70.00	     9.165
  35.640         75.83	     9.539
  35.660         80.00	     9.798
  35.680         74.17	     9.434
  35.700         59.17	     8.426
  35.720         70.00	     9.165
  35.740         57.50	     8.307
  35.760         52.50	     7.937
  35.780         56.67	     8.246
  35.800         50.83	     7.810
  35.820         63.33	     8.718
  35.840         65.00	     8.832
  35.860         60.83	     8.544
  35.880         59.17	     8.426
  35.900         62.50	     8.660
  35.920         60.00	     8.485
  35.940         64.17	     8.775
  35.960         77.50	     9.644
  35.980         70.00	     9.165
  36.000         95.00	    10.677
  36.020        140.83	    13.000
  36.040        116.67	    11.832
  36.060        115.83	    11.790
  36.080         74.17	     9.434
  36.100         89.17	    10.344
  36.120         97.50	    10.817
  36.140         85.00	    10.100
  36.160         68.33	     9.055
  36.180         65.00	     8.832
  36.200         50.83	     7.810
  36.220         59.17	     8.426
  36.240         50.00	     7.746
  36.260         55.83	     8.185
  36.280         54.17	     8.062
  36.300         49.17	     7.681
  36.320         70.83	     9.220
  36.340         60.00	     8.485
  36.360         57.50	     8.307
  36.380         79.17	     9.747
  36.400         85.00	    10.100
  36.420        103.33	    11.136
  36.440        134.17	    12.689
  36.460        148.33	    13.342
  36.480        171.67	    14.353
  36.500        151.67	    13.491
  36.520        120.00	    12.000
  36.540        108.33	    11.402
  36.560        107.50	    11.358
  36.580        125.83	    12.288
  36.600        117.50	    11.874
  36.620         96.67	    10.770
  36.640         77.50	     9.644
  36.660         85.83	    10.149
  36.680         87.50	    10.247
  36.700         83.33	    10.000
  36.720         72.50	     9.327
  36.740         55.83	     8.185
  36.760         65.00	     8.832
  36.780         45.83	     7.416
  36.800         65.83	     8.888
  36.820         46.67	     7.483
  36.840         40.00	     6.928
  36.860         54.17	     8.062
  36.880         46.67	     7.483
  36.900         53.33	     8.000
  36.920         53.33	     8.000
  36.940         45.00	     7.348
  36.960         36.67	     6.633
  36.980         45.83	     7.416
  37.000         44.17	     7.280
  37.020         49.17	     7.681
  37.040         58.33	     8.367
  37.060         38.33	     6.782
  37.080         48.33	     7.616
  37.100         52.50	     7.937
  37.120         44.17	     7.280
  37.140         54.17	     8.062
  37.160         37.50	     6.708
  37.180         49.17	     7.681
  37.200         55.83	     8.185
  37.220         62.50	     8.660
  37.240         50.83	     7.810
  37.260         43.33	     7.211
  37.280         59.17	     8.426
  37.300         62.50	     8.660
  37.320         63.33	     8.718
  37.340         50.83	     7.810
  37.360         61.67	     8.602
  37.380         75.83	     9.539
  37.400         63.33	     8.718
  37.420         64.17	     8.775
  37.440         72.50	     9.327
  37.460         81.67	     9.899
  37.480         80.83	     9.849
  37.500         77.50	     9.644
  37.520         68.33	     9.055
  37.540         88.33	    10.296
  37.560         88.33	    10.296
  37.580         72.50	     9.327
  37.600         86.67	    10.198
  37.620         90.83	    10.440
  37.640         82.50	     9.950
  37.660         76.67	     9.592
  37.680         67.50	     9.000
  37.700         78.33	     9.695
  37.720         55.00	     8.124
  37.740         62.50	     8.660
  37.760         64.17	     8.775
  37.780         56.67	     8.246
  37.800         52.50	     7.937
  37.820         55.00	     8.124
  37.840         41.67	     7.071
  37.860         39.17	     6.856
  37.880         43.33	     7.211
  37.900         40.83	     7.000
  37.920         36.67	     6.633
  37.940         55.83	     8.185
  37.960         36.67	     6.633
  37.980         36.67	     6.633
  38.000         27.50	     5.745
  38.020         39.17	     6.856
  38.040         40.83	     7.000
  38.060         37.50	     6.708
  38.080         34.17	     6.403
  38.100         46.67	     7.483
  38.120         41.67	     7.071
  38.140         42.50	     7.141
  38.160         31.67	     6.164
  38.180         42.50	     7.141
  38.200         36.67	     6.633
  38.220         31.67	     6.164
  38.240         52.50	     7.937
  38.260         36.67	     6.633
  38.280         38.33	     6.782
  38.300         37.50	     6.708
  38.320         37.50	     6.708
  38.340         33.33	     6.325
  38.360         37.50	     6.708
  38.380         44.17	     7.280
  38.400         45.00	     7.348
  38.420         46.67	     7.483
  38.440         38.33	     6.782
  38.460         43.33	     7.211
  38.480         43.33	     7.211
  38.500         33.33	     6.325
  38.520         44.17	     7.280
  38.540         47.50	     7.550
  38.560         41.67	     7.071
  38.580         35.83	     6.557
  38.600         41.67	     7.071
  38.620         40.83	     7.000
  38.640         50.83	     7.810
  38.660         38.33	     6.782
  38.680         45.83	     7.416
  38.700         40.83	     7.000
  38.720         37.50	     6.708
  38.740         36.67	     6.633
  38.760         44.17	     7.280
  38.780         45.00	     7.348
  38.800         46.67	     7.483
  38.820         51.67	     7.874
  38.840         56.67	     8.246
  38.860         40.00	     6.928
  38.880         32.50	     6.245
  38.900         35.83	     6.557
  38.920         41.67	     7.071
  38.940         35.83	     6.557
  38.960         35.00	     6.481
  38.980         45.83	     7.416
  39.000         32.50	     6.245
  39.020         35.00	     6.481
  39.040         50.00	     7.746
  39.060         40.00	     6.928
  39.080         40.00	     6.928
  39.100         29.17	     5.916
  39.120         35.83	     6.557
  39.140         50.83	     7.810
  39.160         40.83	     7.000
  39.180         31.67	     6.164
  39.200         37.50	     6.708
  39.220         40.00	     6.928
  39.240         46.67	     7.483
  39.260         38.33	     6.782
  39.280         45.00	     7.348
  39.300         46.67	     7.483
  39.320         65.83	     8.888
  39.340         75.00	     9.487
  39.360         81.67	     9.899
  39.380        132.50	    12.610
  39.400        107.50	    11.358
  39.420        135.83	    12.767
  39.440         93.33	    10.583
  39.460         75.83	     9.539
  39.480         75.83	     9.539
  39.500         96.67	    10.770
  39.520         94.17	    10.630
  39.540         82.50	     9.950
  39.560         60.00	     8.485
  39.580         60.83	     8.544
  39.600         49.17	     7.681
  39.620         48.33	     7.616
  39.640         51.67	     7.874
  39.660         49.17	     7.681
  39.680         48.33	     7.616
  39.700         42.50	     7.141
  39.720         42.50	     7.141
  39.740         36.67	     6.633
  39.760         48.33	     7.616
  39.780         45.83	     7.416
  39.800         56.67	     8.246
  39.820         45.00	     7.348
  39.840         50.83	     7.810
  39.860         57.50	     8.307
  39.880         50.00	     7.746
  39.900         64.17	     8.775
  39.920         60.83	     8.544
  39.940         48.33	     7.616
  39.960         50.00	     7.746
  39.980         38.33	     6.782
  40.000         43.33	     7.211
  40.020         46.67	     7.483
  40.040         63.33	     8.718
  40.060         50.83	     7.810
  40.080         40.83	     7.000
  40.100         52.50	     7.937
  40.120         56.67	     8.246
  40.140         62.50	     8.660
  40.160         54.17	     8.062
  40.180         56.67	     8.246
  40.200         93.33	    10.583
  40.220         92.50	    10.536
  40.240        105.83	    11.269
  40.260         75.00	     9.487
  40.280         58.33	     8.367
  40.300         50.83	     7.810
  40.320         74.17	     9.434
  40.340         85.83	    10.149
  40.360         62.50	     8.660
  40.380         48.33	     7.616
  40.400         51.67	     7.874
  40.420         45.83	     7.416
  40.440         32.50	     6.245
  40.460         30.83	     6.083
  40.480         38.33	     6.782
  40.500         53.33	     8.000
  40.520         45.83	     7.416
  40.540         40.83	     7.000
  40.560         41.67	     7.071
  40.580         38.33	     6.782
  40.600         52.50	     7.937
  40.620         45.00	     7.348
  40.640         46.67	     7.483
  40.660         45.00	     7.348
  40.680         58.33	     8.367
  40.700         57.50	     8.307
  40.720         55.00	     8.124
  40.740         55.83	     8.185
  40.760         50.00	     7.746
  40.780         47.50	     7.550
  40.800         56.67	     8.246
  40.820         50.00	     7.746
  40.840         58.33	     8.367
  40.860         52.50	     7.937
  40.880         60.00	     8.485
  40.900         50.00	     7.746
  40.920         50.00	     7.746
  40.940         44.17	     7.280
  40.960         48.33	     7.616
  40.980         39.17	     6.856
  41.000         45.83	     7.416
  41.020         37.50	     6.708
  41.040         58.33	     8.367
  41.060         55.00	     8.124
  41.080         35.00	     6.481
  41.100         45.00	     7.348
  41.120         53.33	     8.000
  41.140         42.50	     7.141
  41.160         49.17	     7.681
  41.180         55.00	     8.124
  41.200         49.17	     7.681
  41.220         61.67	     8.602
  41.240         55.00	     8.124
  41.260         46.67	     7.483
  41.280         44.17	     7.280
  41.300         54.17	     8.062
  41.320         39.17	     6.856
  41.340         39.17	     6.856
  41.360         44.17	     7.280
  41.380         49.17	     7.681
  41.400         35.83	     6.557
  41.420         40.83	     7.000
  41.440         42.50	     7.141
  41.460         55.83	     8.185
  41.480         34.17	     6.403
  41.500         51.67	     7.874
  41.520         55.83	     8.185
  41.540         55.83	     8.185
  41.560         63.33	     8.718
  41.580         71.67	     9.274
  41.600         70.00	     9.165
  41.620         74.17	     9.434
  41.640         81.67	     9.899
  41.660         73.33	     9.381
  41.680         75.00	     9.487
  41.700         73.33	     9.381
  41.720         72.50	     9.327
  41.740         70.83	     9.220
  41.760         64.17	     8.775
  41.780         67.50	     9.000
  41.800         70.00	     9.165
  41.820         61.67	     8.602
  41.840         72.50	     9.327
  41.860         70.00	     9.165
  41.880         60.00	     8.485
  41.900         70.00	     9.165
  41.920         69.17	     9.110
  41.940         60.83	     8.544
  41.960         57.50	     8.307
  41.980         63.33	     8.718
  42.000         60.83	     8.544
  42.020         59.17	     8.426
  42.040         52.50	     7.937
  42.060         53.33	     8.000
  42.080         46.67	     7.483
  42.100         45.00	     7.348
  42.120         57.50	     8.307
  42.140         60.00	     8.485
  42.160         49.17	     7.681
  42.180         47.50	     7.550
  42.200         55.83	     8.185
  42.220         51.67	     7.874
  42.240         75.83	     9.539
  42.260         58.33	     8.367
  42.280         79.17	     9.747
  42.300         85.00	    10.100
  42.320         93.33	    10.583
  42.340        105.00	    11.225
  42.360        110.00	    11.489
  42.380        110.00	    11.489
  42.400        117.50	    11.874
  42.420        118.33	    11.916
  42.440        111.67	    11.576
  42.460         96.67	    10.770
  42.480         83.33	    10.000
  42.500         83.33	    10.000
  42.520         67.50	     9.000
  42.540         63.33	     8.718
  42.560         57.50	     8.307
  42.580         47.50	     7.550
  42.600         53.33	     8.000
  42.620         60.00	     8.485
  42.640         59.17	     8.426
  42.660         57.50	     8.307
  42.680         51.67	     7.874
  42.700         61.67	     8.602
  42.720         46.67	     7.483
  42.740         55.00	     8.124
  42.760         55.83	     8.185
  42.780         50.00	     7.746
  42.800         55.00	     8.124
  42.820         46.67	     7.483
  42.840         60.83	     8.544
  42.860         43.33	     7.211
  42.880         52.50	     7.937
  42.900         55.83	     8.185
  42.920         50.00	     7.746
  42.940         53.33	     8.000
  42.960         41.67	     7.071
  42.980         48.33	     7.616
  43.000         50.00	     7.746
  43.020         55.00	     8.124
  43.040         50.00	     7.746
  43.060         45.83	     7.416
  43.080         44.17	     7.280
  43.100         55.83	     8.185
  43.120         49.17	     7.681
  43.140         37.50	     6.708
  43.160         46.67	     7.483
  43.180         52.50	     7.937
  43.200         34.17	     6.403
  43.220         43.33	     7.211
  43.240         39.17	     6.856
  43.260         55.83	     8.185
  43.280         42.50	     7.141
  43.300         42.50	     7.141
  43.320         62.50	     8.660
  43.340         52.50	     7.937
  43.360         48.33	     7.616
  43.380         58.33	     8.367
  43.400         56.67	     8.246
  43.420         61.67	     8.602
  43.440         60.83	     8.544
  43.460         70.83	     9.220
  43.480         80.00	     9.798
  43.500         91.67	    10.488
  43.520         65.83	     8.888
  43.540         75.00	     9.487
  43.560         91.67	    10.488
  43.580         75.00	     9.487
  43.600         87.50	    10.247
  43.620         85.00	    10.100
  43.640         90.83	    10.440
  43.660         80.00	     9.798
  43.680         81.67	     9.899
  43.700         77.50	     9.644
  43.720         76.67	     9.592
  43.740         69.17	     9.110
  43.760         75.00	     9.487
  43.780         70.83	     9.220
  43.800         87.50	    10.247
  43.820         74.17	     9.434
  43.840         99.17	    10.909
  43.860         83.33	    10.000
  43.880         66.67	     8.944
  43.900         80.83	     9.849
  43.920         72.50	     9.327
  43.940         76.67	     9.592
  43.960         77.50	     9.644
  43.980         70.00	     9.165
  44.000         75.83	     9.539
  44.020         65.00	     8.832
  44.040         74.17	     9.434
  44.060         62.50	     8.660
  44.080         83.33	    10.000
  44.100         82.50	     9.950
  44.120         69.17	     9.110
  44.140         85.83	    10.149
  44.160         90.83	    10.440
  44.180         90.00	    10.392
  44.200         76.67	     9.592
  44.220         90.00	    10.392
  44.240        105.83	    11.269
  44.260         96.67	    10.770
  44.280         99.17	    10.909
  44.300        115.83	    11.790
  44.320        118.33	    11.916
  44.340        121.67	    12.083
  44.360        138.33	    12.884
  44.380        122.50	    12.124
  44.400        133.33	    12.649
  44.420        127.50	    12.369
  44.440        143.33	    13.115
  44.460        163.33	    14.000
  44.480        156.67	    13.711
  44.500        147.50	    13.304
  44.520        147.50	    13.304
  44.540        155.00	    13.638
  44.560        127.50	    12.369
  44.580        134.17	    12.689
  44.600        135.00	    12.728
  44.620        138.33	    12.884
  44.640        123.33	    12.166
  44.660        147.50	    13.304
  44.680        126.67	    12.329
  44.700        105.00	    11.225
  44.720        102.50	    11.091
  44.740        118.33	    11.916
  44.760        115.83	    11.790
  44.780        101.67	    11.045
  44.800        104.17	    11.180
  44.820         99.17	    10.909
  44.840         95.00	    10.677
  44.860         88.33	    10.296
  44.880        110.00	    11.489
  44.900        121.67	    12.083
  44.920         90.83	    10.440
  44.940         81.67	     9.899
  44.960         81.67	     9.899
  44.980         88.33	    10.296
  45.000         82.50	     9.950
  45.020         90.00	    10.392
  45.040         97.50	    10.817
  45.060         76.67	     9.592
  45.080         90.00	    10.392
  45.100         85.83	    10.149
  45.120         80.83	     9.849
  45.140         79.17	     9.747
  45.160         78.33	     9.695
  45.180         75.83	     9.539
  45.200         89.17	    10.344
  45.220         70.83	     9.220
  45.240         70.83	     9.220
  45.260         76.67	     9.592
  45.280         81.67	     9.899
  45.300         79.17	     9.747
  45.320         95.00	    10.677
  45.340         91.67	    10.488
  45.360        120.83	    12.042
  45.380        126.67	    12.329
  45.400        156.67	    13.711
  45.420        164.17	    14.036
  45.440        171.67	    14.353
  45.460        216.67	    16.125
  45.480        336.67	    20.100
  45.500        545.83	    25.593
  45.520        580.00	    26.382
  45.540        410.83	    22.204
  45.560        255.83	    17.521
  45.580        214.17	    16.031
  45.600        228.33	    16.553
  45.620        315.83	    19.468
  45.640        335.83	    20.075
  45.660        236.67	    16.852
  45.680        164.17	    14.036
  45.700        135.83	    12.767
  45.720        130.83	    12.530
  45.740        125.00	    12.247
  45.760        117.50	    11.874
  45.780        110.83	    11.533
  45.800        109.17	    11.446
  45.820        101.67	    11.045
  45.840         98.33	    10.863
  45.860         95.00	    10.677
  45.880         90.00	    10.392
  45.900         71.67	     9.274
  45.920         81.67	     9.899
  45.940         72.50	     9.327
  45.960         70.00	     9.165
  45.980         68.33	     9.055
  46.000         57.50	     8.307
  46.020         69.17	     9.110
  46.040         71.67	     9.274
  46.060         67.50	     9.000
  46.080         50.83	     7.810
  46.100         61.67	     8.602
  46.120         47.50	     7.550
  46.140         43.33	     7.211
  46.160         50.00	     7.746
  46.180         44.17	     7.280
  46.200         47.50	     7.550
  46.220         51.67	     7.874
  46.240         41.67	     7.071
  46.260         43.33	     7.211
  46.280         31.67	     6.164
  46.300         43.33	     7.211
  46.320         50.00	     7.746
  46.340         38.33	     6.782
  46.360         46.67	     7.483
  46.380         42.50	     7.141
  46.400         45.83	     7.416
  46.420         40.83	     7.000
  46.440         52.50	     7.937
  46.460         33.33	     6.325
  46.480         50.00	     7.746
  46.500         39.17	     6.856
  46.520         41.67	     7.071
  46.540         38.33	     6.782
  46.560         42.50	     7.141
  46.580         46.67	     7.483
  46.600         38.33	     6.782
  46.620         50.00	     7.746
  46.640         35.00	     6.481
  46.660         45.83	     7.416
  46.680         35.00	     6.481
  46.700         31.67	     6.164
  46.720         37.50	     6.708
  46.740         44.17	     7.280
  46.760         41.67	     7.071
  46.780         33.33	     6.325
  46.800         53.33	     8.000
  46.820         39.17	     6.856
  46.840         46.67	     7.483
  46.860         46.67	     7.483
  46.880         45.00	     7.348
  46.900         43.33	     7.211
  46.920         46.67	     7.483
  46.940         38.33	     6.782
  46.960         35.83	     6.557
  46.980         40.00	     6.928
  47.000         30.00	     6.000
  47.020         46.67	     7.483
  47.040         41.67	     7.071
  47.060         43.33	     7.211
  47.080         55.00	     8.124
  47.100         41.67	     7.071
  47.120         54.17	     8.062
  47.140         34.17	     6.403
  47.160         44.17	     7.280
  47.180         40.00	     6.928
  47.200         52.50	     7.937
  47.220         40.00	     6.928
  47.240         47.50	     7.550
  47.260         46.67	     7.483
  47.280         36.67	     6.633
  47.300         46.67	     7.483
  47.320         44.17	     7.280
  47.340         32.50	     6.245
  47.360         37.50	     6.708
  47.380         31.67	     6.164
  47.400         40.00	     6.928
  47.420         33.33	     6.325
  47.440         30.83	     6.083
  47.460         47.50	     7.550
  47.480         32.50	     6.245
  47.500         30.83	     6.083
  47.520         37.50	     6.708
  47.540         43.33	     7.211
  47.560         33.33	     6.325
  47.580         44.17	     7.280
  47.600         47.50	     7.550
  47.620         31.67	     6.164
  47.640         27.50	     5.745
  47.660         36.67	     6.633
  47.680         40.83	     7.000
  47.700         34.17	     6.403
  47.720         46.67	     7.483
  47.740         40.00	     6.928
  47.760         38.33	     6.782
  47.780         46.67	     7.483
  47.800         55.83	     8.185
  47.820         61.67	     8.602
  47.840         90.00	    10.392
  47.860        133.33	    12.649
  47.880        156.67	    13.711
  47.900        220.83	    16.279
  47.920        180.00	    14.697
  47.940        126.67	    12.329
  47.960         80.83	     9.849
  47.980         95.83	    10.724
  48.000        113.33	    11.662
  48.020        136.67	    12.806
  48.040        128.33	    12.410
  48.060        103.33	    11.136
  48.080         77.50	     9.644
  48.100         72.50	     9.327
  48.120         65.00	     8.832
  48.140         64.17	     8.775
  48.160         64.17	     8.775
  48.180         62.50	     8.660
  48.200         53.33	     8.000
  48.220         64.17	     8.775
  48.240         45.00	     7.348
  48.260         41.67	     7.071
  48.280         37.50	     6.708
  48.300         51.67	     7.874
  48.320         47.50	     7.550
  48.340         59.17	     8.426
  48.360         40.00	     6.928
  48.380         47.50	     7.550
  48.400         44.17	     7.280
  48.420         48.33	     7.616
  48.440         54.17	     8.062
  48.460         44.17	     7.280
  48.480         47.50	     7.550
  48.500         43.33	     7.211
  48.520         40.00	     6.928
  48.540         42.50	     7.141
  48.560         56.67	     8.246
  48.580         64.17	     8.775
  48.600         50.83	     7.810
  48.620         45.83	     7.416
  48.640         38.33	     6.782
  48.660         37.50	     6.708
  48.680         38.33	     6.782
  48.700         48.33	     7.616
  48.720         30.83	     6.083
  48.740         50.83	     7.810
  48.760         40.83	     7.000
  48.780         42.50	     7.141
  48.800         30.00	     6.000
  48.820         37.50	     6.708
  48.840         38.33	     6.782
  48.860         43.33	     7.211
  48.880         34.17	     6.403
  48.900         32.50	     6.245
  48.920         47.50	     7.550
  48.940         39.17	     6.856
  48.960         35.83	     6.557
  48.980         33.33	     6.325
  49.000         34.17	     6.403
  49.020         48.33	     7.616
  49.040         36.67	     6.633
  49.060         48.33	     7.616
  49.080         37.50	     6.708
  49.100         42.50	     7.141
  49.120         45.00	     7.348
  49.140         46.67	     7.483
  49.160         52.50	     7.937
  49.180         40.00	     6.928
  49.200         49.17	     7.681
  49.220         45.83	     7.416
  49.240         45.00	     7.348
  49.260         55.00	     8.124
  49.280         69.17	     9.110
  49.300         56.67	     8.246
  49.320         45.83	     7.416
  49.340         44.17	     7.280
  49.360         55.00	     8.124
  49.380         52.50	     7.937
  49.400         45.83	     7.416
  49.420         50.00	     7.746
  49.440         51.67	     7.874
  49.460         35.00	     6.481
  49.480         39.17	     6.856
  49.500         55.83	     8.185
  49.520         40.83	     7.000
  49.540         41.67	     7.071
  49.560         50.00	     7.746
  49.580         55.83	     8.185
  49.600         40.00	     6.928
  49.620         45.83	     7.416
  49.640         54.17	     8.062
  49.660         55.83	     8.185
  49.680         40.00	     6.928
  49.700         70.00	     9.165
  49.720         62.50	     8.660
  49.740         61.67	     8.602
  49.760         69.17	     9.110
  49.780         68.33	     9.055
  49.800         69.17	     9.110
  49.820         73.33	     9.381
  49.840         62.50	     8.660
  49.860         72.50	     9.327
  49.880         70.00	     9.165
  49.900         80.00	     9.798
  49.920         68.33	     9.055
  49.940         75.00	     9.487
  49.960         81.67	     9.899
  49.980         91.67	    10.488
  50.000        131.67	    12.570
  50.020        235.83	    16.823
  50.040        289.17	    18.628
  50.060        293.33	    18.762
  50.080        252.50	    17.407
  50.100        173.33	    14.422
  50.120        131.67	    12.570
  50.140        126.67	    12.329
  50.160        157.50	    13.748
  50.180        168.33	    14.213
  50.200        175.83	    14.526
  50.220        132.50	    12.610
  50.240        101.67	    11.045
  50.260         70.83	     9.220
  50.280         68.33	     9.055
  50.300         55.83	     8.185
  50.320         60.00	     8.485
  50.340         51.67	     7.874
  50.360         57.50	     8.307
  50.380         59.17	     8.426
  50.400         44.17	     7.280
  50.420         50.00	     7.746
  50.440         58.33	     8.367
  50.460         55.00	     8.124
  50.480         67.50	     9.000
  50.500         76.67	     9.592
  50.520         72.50	     9.327
  50.540         69.17	     9.110
  50.560         84.17	    10.050
  50.580         69.17	     9.110
  50.600         82.50	     9.950
  50.620         60.83	     8.544
  50.640         77.50	     9.644
  50.660         55.00	     8.124
  50.680         60.00	     8.485
  50.700         52.50	     7.937
  50.720         56.67	     8.246
  50.740         60.00	     8.485
  50.760         63.33	     8.718
  50.780         65.83	     8.888
  50.800         51.67	     7.874
  50.820         35.83	     6.557
  50.840         51.67	     7.874
  50.860         35.83	     6.557
  50.880         50.83	     7.810
  50.900         49.17	     7.681
  50.920         40.00	     6.928
  50.940         49.17	     7.681
  50.960         50.83	     7.810
  50.980         45.00	     7.348
  51.000         50.83	     7.810
  51.020         50.00	     7.746
  51.040         74.17	     9.434
  51.060         85.83	    10.149
  51.080         60.00	     8.485
  51.100         69.17	     9.110
  51.120         65.83	     8.888
  51.140         65.00	     8.832
  51.160         55.00	     8.124
  51.180         74.17	     9.434
  51.200         72.50	     9.327
  51.220         59.17	     8.426
  51.240         65.83	     8.888
  51.260         48.33	     7.616
  51.280         42.50	     7.141
  51.300         51.67	     7.874
  51.320         40.00	     6.928
  51.340         49.17	     7.681
  51.360         48.33	     7.616
  51.380         45.00	     7.348
  51.400         28.33	     5.831
  51.420         35.00	     6.481
  51.440         42.50	     7.141
  51.460         42.50	     7.141
  51.480         45.00	     7.348
  51.500         35.83	     6.557
  51.520         26.67	     5.657
  51.540         25.00	     5.477
  51.560         39.17	     6.856
  51.580         31.67	     6.164
  51.600         35.83	     6.557
  51.620         21.67	     5.099
  51.640         21.67	     5.099
  51.660         39.17	     6.856
  51.680         34.17	     6.403
  51.700         32.50	     6.245
  51.720         41.67	     7.071
  51.740         35.00	     6.481
  51.760         38.33	     6.782
  51.780         31.67	     6.164
  51.800         40.83	     7.000
  51.820         39.17	     6.856
  51.840         41.67	     7.071
  51.860         35.00	     6.481
  51.880         31.67	     6.164
  51.900         45.00	     7.348
  51.920         41.67	     7.071
  51.940         35.83	     6.557
  51.960         39.17	     6.856
  51.980         45.00	     7.348
  52.000         45.00	     7.348
  52.020         50.00	     7.746
  52.040         56.67	     8.246
  52.060         75.83	     9.539
  52.080        106.67	    11.314
  52.100         96.67	    10.770
  52.120         82.50	     9.950
  52.140         70.00	     9.165
  52.160         45.00	     7.348
  52.180         50.00	     7.746
  52.200         76.67	     9.592
  52.220         97.50	    10.817
  52.240         68.33	     9.055
  52.260         56.67	     8.246
  52.280         52.50	     7.937
  52.300         43.33	     7.211
  52.320         48.33	     7.616
  52.340         49.17	     7.681
  52.360         50.83	     7.810
  52.380         50.83	     7.810
  52.400         52.50	     7.937
  52.420         42.50	     7.141
  52.440         41.67	     7.071
  52.460         63.33	     8.718
  52.480         43.33	     7.211
  52.500         40.00	     6.928
  52.520         45.00	     7.348
  52.540         49.17	     7.681
  52.560         40.00	     6.928
  52.580         45.83	     7.416
  52.600         33.33	     6.325
  52.620         35.83	     6.557
  52.640         40.00	     6.928
  52.660         30.83	     6.083
  52.680         44.17	     7.280
  52.700         40.83	     7.000
  52.720         41.67	     7.071
  52.740         34.17	     6.403
  52.760         43.33	     7.211
  52.780         39.17	     6.856
  52.800         45.00	     7.348
  52.820         47.50	     7.550
  52.840         46.67	     7.483
  52.860         40.00	     6.928
  52.880         35.83	     6.557
  52.900         35.00	     6.481
  52.920         46.67	     7.483
  52.940         38.33	     6.782
  52.960         43.33	     7.211
  52.980         46.67	     7.483
  53.000         36.67	     6.633
  53.020         44.17	     7.280
  53.040         62.50	     8.660
  53.060         48.33	     7.616
  53.080         75.00	     9.487
  53.100         60.00	     8.485
  53.120         60.83	     8.544
  53.140         60.00	     8.485
  53.160         58.33	     8.367
  53.180         68.33	     9.055
  53.200         59.17	     8.426
  53.220         59.17	     8.426
  53.240         51.67	     7.874
  53.260         52.50	     7.937
  53.280         51.67	     7.874
  53.300         53.33	     8.000
  53.320         50.00	     7.746
  53.340         48.33	     7.616
  53.360         43.33	     7.211
  53.380         45.00	     7.348
  53.400         41.67	     7.071
  53.420         41.67	     7.071
  53.440         43.33	     7.211
  53.460         44.17	     7.280
  53.480         40.83	     7.000
  53.500         35.83	     6.557
  53.520         45.83	     7.416
  53.540         31.67	     6.164
  53.560         41.67	     7.071
  53.580         52.50	     7.937
  53.600         39.17	     6.856
  53.620         40.00	     6.928
  53.640         49.17	     7.681
  53.660         36.67	     6.633
  53.680         41.67	     7.071
  53.700         37.50	     6.708
  53.720         42.50	     7.141
  53.740         40.00	     6.928
  53.760         35.83	     6.557
  53.780         37.50	     6.708
  53.800         37.50	     6.708
  53.820         36.67	     6.633
  53.840         26.67	     5.657
  53.860         35.00	     6.481
  53.880         40.83	     7.000
  53.900         43.33	     7.211
  53.920         40.83	     7.000
  53.940         31.67	     6.164
  53.960         35.00	     6.481
  53.980         41.67	     7.071
  54.000         43.33	     7.211
  54.020         31.67	     6.164
  54.040         36.67	     6.633
  54.060         35.83	     6.557
  54.080         49.17	     7.681
  54.100         32.50	     6.245
  54.120         41.67	     7.071
  54.140         38.33	     6.782
  54.160         40.00	     6.928
  54.180         33.33	     6.325
  54.200         40.83	     7.000
  54.220         54.17	     8.062
  54.240         40.83	     7.000
  54.260         54.17	     8.062
  54.280         42.50	     7.141
  54.300         45.00	     7.348
  54.320         47.50	     7.550
  54.340         43.33	     7.211
  54.360         49.17	     7.681
  54.380         46.67	     7.483
  54.400         39.17	     6.856
  54.420         37.50	     6.708
  54.440         38.33	     6.782
  54.460         45.00	     7.348
  54.480         35.83	     6.557
  54.500         39.17	     6.856
  54.520         58.33	     8.367
  54.540         48.33	     7.616
  54.560         43.33	     7.211
  54.580         56.67	     8.246
  54.600         50.83	     7.810
  54.620         46.67	     7.483
  54.640         46.67	     7.483
  54.660         43.33	     7.211
  54.680         55.83	     8.185
  54.700         50.00	     7.746
  54.720         64.17	     8.775
  54.740         66.67	     8.944
  54.760         70.00	     9.165
  54.780        105.00	    11.225
  54.800         83.33	    10.000
  54.820         87.50	    10.247
  54.840         90.00	    10.392
  54.860         69.17	     9.110
  54.880         54.17	     8.062
  54.900         58.33	     8.367
  54.920         70.83	     9.220
  54.940         72.50	     9.327
  54.960         81.67	     9.899
  54.980         85.83	    10.149
  55.000         71.67	     9.274
  55.020         59.17	     8.426
  55.040         55.00	     8.124
  55.060         35.83	     6.557
  55.080         62.50	     8.660
  55.100         65.00	     8.832
  55.120         63.33	     8.718
  55.140         63.33	     8.718
  55.160         53.33	     8.000
  55.180         70.00	     9.165
  55.200         87.50	    10.247
  55.220        104.17	    11.180
  55.240        110.00	    11.489
  55.260        125.00	    12.247
  55.280        106.67	    11.314
  55.300        118.33	    11.916
  55.320         86.67	    10.198
  55.340         73.33	     9.381
  55.360         71.67	     9.274
  55.380         64.17	     8.775
  55.400         85.83	    10.149
  55.420         96.67	    10.770
  55.440         85.83	    10.149
  55.460         68.33	     9.055
  55.480         66.67	     8.944
  55.500         55.00	     8.124
  55.520         54.17	     8.062
  55.540         55.83	     8.185
  55.560         55.83	     8.185
  55.580         56.67	     8.246
  55.600         71.67	     9.274
  55.620         60.83	     8.544
  55.640         56.67	     8.246
  55.660         65.00	     8.832
  55.680         58.33	     8.367
  55.700         51.67	     7.874
  55.720         59.17	     8.426
  55.740         70.00	     9.165
  55.760         68.33	     9.055
  55.780         61.67	     8.602
  55.800         68.33	     9.055
  55.820         68.33	     9.055
  55.840         60.00	     8.485
  55.860         64.17	     8.775
  55.880         55.00	     8.124
  55.900         63.33	     8.718
  55.920         54.17	     8.062
  55.940         58.33	     8.367
  55.960         59.17	     8.426
  55.980         50.83	     7.810
  56.000         51.67	     7.874
  56.020         49.17	     7.681
  56.040         62.50	     8.660
  56.060         52.50	     7.937
  56.080         63.33	     8.718
  56.100         59.17	     8.426
  56.120         58.33	     8.367
  56.140         51.67	     7.874
  56.160         45.83	     7.416
  56.180         47.50	     7.550
  56.200         42.50	     7.141
  56.220         52.50	     7.937
  56.240         54.17	     8.062
  56.260         54.17	     8.062
  56.280         50.83	     7.810
  56.300         41.67	     7.071
  56.320         39.17	     6.856
  56.340         47.50	     7.550
  56.360         37.50	     6.708
  56.380         33.33	     6.325
  56.400         34.17	     6.403
  56.420         38.33	     6.782
  56.440         38.33	     6.782
  56.460         33.33	     6.325
  56.480         30.83	     6.083
  56.500         30.00	     6.000
  56.520         37.50	     6.708
  56.540         31.67	     6.164
  56.560         34.17	     6.403
  56.580         47.50	     7.550
  56.600         39.17	     6.856
  56.620         40.83	     7.000
  56.640         41.67	     7.071
  56.660         30.83	     6.083
  56.680         38.33	     6.782
  56.700         36.67	     6.633
  56.720         38.33	     6.782
  56.740         28.33	     5.831
  56.760         44.17	     7.280
  56.780         44.17	     7.280
  56.800         39.17	     6.856
  56.820         45.83	     7.416
  56.840         46.67	     7.483
  56.860         40.83	     7.000
  56.880         38.33	     6.782
  56.900         30.00	     6.000
  56.920         37.50	     6.708
  56.940         52.50	     7.937
  56.960         55.00	     8.124
  56.980         35.83	     6.557
  57.000         39.17	     6.856
  57.020         38.33	     6.782
  57.040         40.83	     7.000
  57.060         38.33	     6.782
  57.080         42.50	     7.141
  57.100         47.50	     7.550
  57.120         44.17	     7.280
  57.140         43.33	     7.211
  57.160         45.83	     7.416
  57.180         43.33	     7.211
  57.200         38.33	     6.782
  57.220         43.33	     7.211
  57.240         35.83	     6.557
  57.260         42.50	     7.141
  57.280         43.33	     7.211
  57.300         45.00	     7.348
  57.320         44.17	     7.280
  57.340         40.00	     6.928
  57.360         47.50	     7.550
  57.380         43.33	     7.211
  57.400         35.83	     6.557
  57.420         48.33	     7.616
  57.440         35.00	     6.481
  57.460         33.33	     6.325
  57.480         44.17	     7.280
  57.500         35.00	     6.481
  57.520         35.00	     6.481
  57.540         34.17	     6.403
  57.560         35.83	     6.557
  57.580         35.83	     6.557
  57.600         40.00	     6.928
  57.620         47.50	     7.550
  57.640         34.17	     6.403
  57.660         37.50	     6.708
  57.680         48.33	     7.616
  57.700         45.83	     7.416
  57.720         34.17	     6.403
  57.740         36.67	     6.633
  57.760         37.50	     6.708
  57.780         34.17	     6.403
  57.800         40.83	     7.000
  57.820         43.33	     7.211
  57.840         44.17	     7.280
  57.860         42.50	     7.141
  57.880         50.83	     7.810
  57.900         31.67	     6.164
  57.920         34.17	     6.403
  57.940         43.33	     7.211
  57.960         38.33	     6.782
  57.980         35.83	     6.557
  58.000         47.50	     7.550
  58.020         45.83	     7.416
  58.040         34.17	     6.403
  58.060         40.00	     6.928
  58.080         38.33	     6.782
  58.100         30.83	     6.083
  58.120         30.00	     6.000
  58.140         40.83	     7.000
  58.160         40.00	     6.928
  58.180         44.17	     7.280
  58.200         40.00	     6.928
  58.220         45.83	     7.416
  58.240         35.00	     6.481
  58.260         34.17	     6.403
  58.280         45.83	     7.416
  58.300         50.00	     7.746
  58.320         45.83	     7.416
  58.340         54.17	     8.062
  58.360         53.33	     8.000
  58.380         39.17	     6.856
  58.400         42.50	     7.141
  58.420         38.33	     6.782
  58.440         40.83	     7.000
  58.460         41.67	     7.071
  58.480         63.33	     8.718
  58.500         53.33	     8.000
  58.520         45.83	     7.416
  58.540         52.50	     7.937
  58.560         55.00	     8.124
  58.580         48.33	     7.616
  58.600         53.33	     8.000
  58.620         39.17	     6.856
  58.640         48.33	     7.616
  58.660         46.67	     7.483
  58.680         52.50	     7.937
  58.700         54.17	     8.062
  58.720         56.67	     8.246
  58.740         52.50	     7.937
  58.760         42.50	     7.141
  58.780         45.00	     7.348
  58.800         60.83	     8.544
  58.820         50.83	     7.810
  58.840         43.33	     7.211
  58.860         53.33	     8.000
  58.880         48.33	     7.616
  58.900         46.67	     7.483
  58.920         58.33	     8.367
  58.940         63.33	     8.718
  58.960         45.83	     7.416
  58.980         46.67	     7.483
  59.000         55.00	     8.124
  59.020         61.67	     8.602
  59.040         59.17	     8.426
  59.060         51.67	     7.874
  59.080         55.83	     8.185
  59.100         78.33	     9.695
  59.120         69.17	     9.110
  59.140         57.50	     8.307
  59.160         58.33	     8.367
  59.180         61.67	     8.602
  59.200         56.67	     8.246
  59.220         43.33	     7.211
  59.240         50.00	     7.746
  59.260         50.00	     7.746
  59.280         50.83	     7.810
  59.300         40.83	     7.000
  59.320         54.17	     8.062
  59.340         40.83	     7.000
  59.360         41.67	     7.071
  59.380         41.67	     7.071
  59.400         56.67	     8.246
  59.420         56.67	     8.246
  59.440         46.67	     7.483
  59.460         43.33	     7.211
  59.480         44.17	     7.280
  59.500         38.33	     6.782
  59.520         49.17	     7.681
  59.540         50.83	     7.810
  59.560         46.67	     7.483
  59.580         45.00	     7.348
  59.600         45.00	     7.348
  59.620         33.33	     6.325
  59.640         39.17	     6.856
  59.660         50.83	     7.810
  59.680         39.17	     6.856
  59.700         50.83	     7.810
  59.720         45.83	     7.416
  59.740         48.33	     7.616
  59.760         55.00	     8.124
  59.780         65.00	     8.832
  59.800         81.67	     9.899
  59.820         89.17	    10.344
  59.840         98.33	    10.863
  59.860        140.83	    13.000
  59.880        183.33	    14.832
  59.900        176.67	    14.560
  59.920        166.67	    14.142
  59.940        158.33	    13.784
  59.960        137.50	    12.845
  59.980        113.33	    11.662
  60.000        112.50	    11.619
  60.020        103.33	    11.136
  60.040        114.17	    11.705
  60.060        122.50	    12.124
  60.080        109.17	    11.446
  60.100         92.50	    10.536
  60.120         78.33	     9.695
  60.140         71.67	     9.274
  60.160         57.50	     8.307
  60.180         46.67	     7.483
  60.200         53.33	     8.000
  60.220         56.67	     8.246
  60.240         50.83	     7.810
  60.260         60.83	     8.544
  60.280         50.00	     7.746
  60.300         55.83	     8.185
  60.320         73.33	     9.381
  60.340         57.50	     8.307
  60.360         56.67	     8.246
  60.380         55.00	     8.124
  60.400         57.50	     8.307
  60.420         67.50	     9.000
  60.440         61.67	     8.602
  60.460         64.17	     8.775
  60.480         42.50	     7.141
  60.500         45.00	     7.348
  60.520         55.00	     8.124
  60.540         55.00	     8.124
  60.560         62.50	     8.660
  60.580         58.33	     8.367
  60.600         40.00	     6.928
  60.620         58.33	     8.367
  60.640         62.50	     8.660
  60.660         46.67	     7.483
  60.680         45.00	     7.348
  60.700         44.17	     7.280
  60.720         50.00	     7.746
  60.740         57.50	     8.307
  60.760         50.00	     7.746
  60.780         64.17	     8.775
  60.800         62.50	     8.660
  60.820         62.50	     8.660
  60.840         64.17	     8.775
  60.860         45.83	     7.416
  60.880         41.67	     7.071
  60.900         53.33	     8.000
  60.920         57.50	     8.307
  60.940         49.17	     7.681
  60.960         42.50	     7.141
  60.980         47.50	     7.550
  61.000         46.67	     7.483
  61.020         50.00	     7.746
  61.040         55.83	     8.185
  61.060         53.33	     8.000
  61.080         43.33	     7.211
  61.100         49.17	     7.681
  61.120         39.17	     6.856
  61.140         50.83	     7.810
  61.160         37.50	     6.708
  61.180         39.17	     6.856
  61.200         39.17	     6.856
  61.220         49.17	     7.681
  61.240         56.67	     8.246
  61.260         36.67	     6.633
  61.280         44.17	     7.280
  61.300         62.50	     8.660
  61.320         54.17	     8.062
  61.340         70.00	     9.165
  61.360         59.17	     8.426
  61.380         77.50	     9.644
  61.400         68.33	     9.055
  61.420         60.00	     8.485
  61.440         64.17	     8.775
  61.460         81.67	     9.899
  61.480         77.50	     9.644
  61.500         73.33	     9.381
  61.520         60.83	     8.544
  61.540         62.50	     8.660
  61.560         70.00	     9.165
  61.580         62.50	     8.660
  61.600         70.83	     9.220
  61.620         55.00	     8.124
  61.640         62.50	     8.660
  61.660         66.67	     8.944
  61.680         60.83	     8.544
  61.700         55.83	     8.185
  61.720         55.83	     8.185
  61.740         53.33	     8.000
  61.760         48.33	     7.616
  61.780         58.33	     8.367
  61.800         62.50	     8.660
  61.820         44.17	     7.280
  61.840         53.33	     8.000
  61.860         68.33	     9.055
  61.880         55.83	     8.185
  61.900         56.67	     8.246
  61.920         65.00	     8.832
  61.940         62.50	     8.660
  61.960         62.50	     8.660
  61.980         45.00	     7.348
  62.000         61.67	     8.602
  62.020         49.17	     7.681
  62.040         45.00	     7.348
  62.060         51.67	     7.874
  62.080         60.83	     8.544
  62.100         40.00	     6.928
  62.120         45.00	     7.348
  62.140         45.83	     7.416
  62.160         45.83	     7.416
  62.180         38.33	     6.782
  62.200         40.83	     7.000
  62.220         45.83	     7.416
  62.240         51.67	     7.874
  62.260         36.67	     6.633
  62.280         30.83	     6.083
  62.300         51.67	     7.874
  62.320         45.83	     7.416
  62.340         52.50	     7.937
  62.360         30.00	     6.000
  62.380         43.33	     7.211
  62.400         40.83	     7.000
  62.420         30.00	     6.000
  62.440         40.00	     6.928
  62.460         40.83	     7.000
  62.480         49.17	     7.681
  62.500         68.33	     9.055
  62.520         77.50	     9.644
  62.540         75.83	     9.539
  62.560         36.67	     6.633
  62.580         45.00	     7.348
  62.600         49.17	     7.681
  62.620         42.50	     7.141
  62.640         52.50	     7.937
  62.660         42.50	     7.141
  62.680         40.00	     6.928
  62.700         64.17	     8.775
  62.720         53.33	     8.000
  62.740         32.50	     6.245
  62.760         57.50	     8.307
  62.780         49.17	     7.681
  62.800         37.50	     6.708
  62.820         40.83	     7.000
  62.840         35.83	     6.557
  62.860         42.50	     7.141
  62.880         46.67	     7.483
  62.900         40.00	     6.928
  62.920         35.83	     6.557
  62.940         40.00	     6.928
  62.960         45.83	     7.416
  62.980         49.17	     7.681
  63.000         42.50	     7.141
  63.020         37.50	     6.708
  63.040         43.33	     7.211
  63.060         46.67	     7.483
  63.080         41.67	     7.071
  63.100         46.67	     7.483
  63.120         45.00	     7.348
  63.140         46.67	     7.483
  63.160         33.33	     6.325
  63.180         41.67	     7.071
  63.200         35.83	     6.557
  63.220         40.00	     6.928
  63.240         45.00	     7.348
  63.260         38.33	     6.782
  63.280         34.17	     6.403
  63.300         33.33	     6.325
  63.320         43.33	     7.211
  63.340         50.83	     7.810
  63.360         31.67	     6.164
  63.380         34.17	     6.403
  63.400         38.33	     6.782
  63.420         48.33	     7.616
  63.440         37.50	     6.708
  63.460         43.33	     7.211
  63.480         35.00	     6.481
  63.500         35.00	     6.481
  63.520         35.83	     6.557
  63.540         35.00	     6.481
  63.560         47.50	     7.550
  63.580         50.83	     7.810
  63.600         44.17	     7.280
  63.620         43.33	     7.211
  63.640         38.33	     6.782
  63.660         45.00	     7.348
  63.680         53.33	     8.000
  63.700         53.33	     8.000
  63.720         35.00	     6.481
  63.740         38.33	     6.782
  63.760         42.50	     7.141
  63.780         40.00	     6.928
  63.800         55.83	     8.185
  63.820         37.50	     6.708
  63.840         39.17	     6.856
  63.860         50.00	     7.746
  63.880         40.00	     6.928
  63.900         50.83	     7.810
  63.920         60.00	     8.485
  63.940         56.67	     8.246
  63.960         60.00	     8.485
  63.980         60.00	     8.485
  64.000         58.33	     8.367
  64.020         56.67	     8.246
  64.040         64.17	     8.775
  64.060         57.50	     8.307
  64.080         39.17	     6.856
  64.100         55.83	     8.185
  64.120         48.33	     7.616
  64.140         55.00	     8.124
  64.160         51.67	     7.874
  64.180         57.50	     8.307
  64.200         47.50	     7.550
  64.220         55.00	     8.124
  64.240         54.17	     8.062
  64.260         45.00	     7.348
  64.280         47.50	     7.550
  64.300         40.00	     6.928
  64.320         54.17	     8.062
  64.340         41.67	     7.071
  64.360         39.17	     6.856
  64.380         46.67	     7.483
  64.400         35.00	     6.481
  64.420         43.33	     7.211
  64.440         39.17	     6.856
  64.460         38.33	     6.782
  64.480         30.00	     6.000
  64.500         46.67	     7.483
  64.520         44.17	     7.280
  64.540         51.67	     7.874
  64.560         40.83	     7.000
  64.580         56.67	     8.246
  64.600         49.17	     7.681
  64.620         45.83	     7.416
  64.640         45.83	     7.416
  64.660         63.33	     8.718
  64.680         68.33	     9.055
  64.700         68.33	     9.055
  64.720         79.17	     9.747
  64.740         67.50	     9.000
  64.760         45.00	     7.348
  64.780         59.17	     8.426
  64.800         61.67	     8.602
  64.820         59.17	     8.426
  64.840         49.17	     7.681
  64.860         55.83	     8.185
  64.880         65.00	     8.832
  64.900         57.50	     8.307
  64.920         55.83	     8.185
  64.940         56.67	     8.246
  64.960         56.67	     8.246
  64.980         42.50	     7.141
  65.000         48.33	     7.616
