
Filename:
	C:\Program Files\Thermo Electron\WinXRD\Datafiles\F_HERMAN\FIEN\28_7_11_26_1 FILTER.raw

File Created:
	February 21, 2019 - 03:50 PM

Specimen Id:
	28.7  11.26/1 FT

Specimen Name:
	

Specimen Description:
	

Comment:
Scan Type: 2Theta Scan
Start Angle: 1 deg.
Stop Angle: 65 deg.
Num Points: 3201
Step Size: 0.02 deg.
Scan Rate: 1.000000
Scan Mode: Continuous
Wavelength: 1.540562
\Kalpha1: 1.540562	\Kalpha2: 1.544390	\Kbeta: 1.392218

Optics:
		Detector:
			 Type: Fixed Slits
		Tube: 
			 Type: Fixed Slits


Datas:
 Pos [deg]       Rate [CPS]      ESD [-]

Range 1 ---> Iteration 1
   1.000       1075.00	    35.917
   1.020        734.17	    29.682
   1.040        735.83	    29.715
   1.060        571.67	    26.192
   1.080        485.83	    24.145
   1.100        517.50	    24.920
   1.120        466.67	    23.664
   1.140        455.00	    23.367
   1.160        465.00	    23.622
   1.180        345.00	    20.347
   1.200        429.17	    22.694
   1.220        387.50	    21.564
   1.240        408.33	    22.136
   1.260        380.00	    21.354
   1.280        466.67	    23.664
   1.300        538.33	    25.417
   1.320        564.17	    26.019
   1.340        760.00	    30.199
   1.360        981.67	    34.322
   1.380       1265.83	    38.974
   1.400       1278.33	    39.166
   1.420       1238.33	    38.549
   1.440       1287.50	    39.306
   1.460       1229.17	    38.406
   1.480       1193.33	    37.842
   1.500       1100.00	    36.332
   1.520       1148.33	    37.121
   1.540       1126.67	    36.770
   1.560        992.50	    34.511
   1.580       1017.50	    34.943
   1.600        953.33	    33.823
   1.620        903.33	    32.924
   1.640        845.00	    31.843
   1.660        815.83	    31.289
   1.680        749.17	    29.983
   1.700        779.17	    30.578
   1.720        692.50	    28.827
   1.740        640.83	    27.731
   1.760        600.00	    26.833
   1.780        617.50	    27.221
   1.800        550.00	    25.690
   1.820        481.67	    24.042
   1.840        492.50	    24.310
   1.860        475.00	    23.875
   1.880        496.67	    24.413
   1.900        475.00	    23.875
   1.920        450.00	    23.238
   1.940        467.50	    23.685
   1.960        412.50	    22.249
   1.980        425.83	    22.605
   2.000        415.00	    22.316
   2.020        380.83	    21.378
   2.040        396.67	    21.817
   2.060        433.33	    22.804
   2.080        403.33	    22.000
   2.100        335.00	    20.050
   2.120        368.33	    21.024
   2.140        385.83	    21.517
   2.160        365.83	    20.952
   2.180        311.67	    19.339
   2.200        367.50	    21.000
   2.220        316.67	    19.494
   2.240        341.67	    20.248
   2.260        293.33	    18.762
   2.280        329.17	    19.875
   2.300        329.17	    19.875
   2.320        322.50	    19.672
   2.340        277.50	    18.248
   2.360        335.83	    20.075
   2.380        314.17	    19.416
   2.400        287.50	    18.574
   2.420        306.67	    19.183
   2.440        325.00	    19.748
   2.460        303.33	    19.079
   2.480        274.17	    18.138
   2.500        289.17	    18.628
   2.520        298.33	    18.921
   2.540        287.50	    18.574
   2.560        285.83	    18.520
   2.580        274.17	    18.138
   2.600        293.33	    18.762
   2.620        270.83	    18.028
   2.640        268.33	    17.944
   2.660        275.00	    18.166
   2.680        258.33	    17.607
   2.700        262.50	    17.748
   2.720        258.33	    17.607
   2.740        290.00	    18.655
   2.760        270.00	    18.000
   2.780        286.67	    18.547
   2.800        247.50	    17.234
   2.820        225.83	    16.462
   2.840        253.33	    17.436
   2.860        238.33	    16.912
   2.880        258.33	    17.607
   2.900        249.17	    17.292
   2.920        269.17	    17.972
   2.940        230.83	    16.643
   2.960        255.83	    17.521
   2.980        224.17	    16.401
   3.000        245.00	    17.146
   3.020        245.00	    17.146
   3.040        214.17	    16.031
   3.060        214.17	    16.031
   3.080        235.83	    16.823
   3.100        227.50	    16.523
   3.120        206.67	    15.748
   3.140        207.50	    15.780
   3.160        195.83	    15.330
   3.180        227.50	    16.523
   3.200        210.00	    15.875
   3.220        205.00	    15.684
   3.240        225.00	    16.432
   3.260        208.33	    15.811
   3.280        211.67	    15.937
   3.300        201.67	    15.556
   3.320        199.17	    15.460
   3.340        209.17	    15.843
   3.360        192.50	    15.199
   3.380        193.33	    15.232
   3.400        198.33	    15.427
   3.420        201.67	    15.556
   3.440        195.00	    15.297
   3.460        211.67	    15.937
   3.480        180.00	    14.697
   3.500        212.50	    15.969
   3.520        192.50	    15.199
   3.540        180.00	    14.697
   3.560        184.17	    14.866
   3.580        186.67	    14.967
   3.600        182.50	    14.799
   3.620        183.33	    14.832
   3.640        172.50	    14.387
   3.660        181.67	    14.765
   3.680        190.83	    15.133
   3.700        179.17	    14.663
   3.720        181.67	    14.765
   3.740        185.83	    14.933
   3.760        172.50	    14.387
   3.780        164.17	    14.036
   3.800        160.00	    13.856
   3.820        155.00	    13.638
   3.840        180.00	    14.697
   3.860        202.50	    15.588
   3.880        170.00	    14.283
   3.900        182.50	    14.799
   3.920        149.17	    13.379
   3.940        167.50	    14.177
   3.960        177.50	    14.595
   3.980        178.33	    14.629
   4.000        159.17	    13.820
   4.020        164.17	    14.036
   4.040        146.67	    13.266
   4.060        155.83	    13.675
   4.080        150.83	    13.454
   4.100        175.83	    14.526
   4.120        143.33	    13.115
   4.140        159.17	    13.820
   4.160        157.50	    13.748
   4.180        160.00	    13.856
   4.200        155.83	    13.675
   4.220        152.50	    13.528
   4.240        144.17	    13.153
   4.260        165.00	    14.071
   4.280        135.83	    12.767
   4.300        144.17	    13.153
   4.320        160.00	    13.856
   4.340        137.50	    12.845
   4.360        175.00	    14.491
   4.380        148.33	    13.342
   4.400        150.83	    13.454
   4.420        142.50	    13.077
   4.440        131.67	    12.570
   4.460        135.00	    12.728
   4.480        139.17	    12.923
   4.500        130.83	    12.530
   4.520        160.00	    13.856
   4.540        135.00	    12.728
   4.560        145.00	    13.191
   4.580        130.00	    12.490
   4.600        148.33	    13.342
   4.620        139.17	    12.923
   4.640        144.17	    13.153
   4.660        155.83	    13.675
   4.680        130.83	    12.530
   4.700        125.83	    12.288
   4.720        142.50	    13.077
   4.740        140.00	    12.961
   4.760        142.50	    13.077
   4.780        142.50	    13.077
   4.800        130.00	    12.490
   4.820        125.00	    12.247
   4.840        131.67	    12.570
   4.860        141.67	    13.038
   4.880        161.67	    13.928
   4.900        124.17	    12.207
   4.920        121.67	    12.083
   4.940        134.17	    12.689
   4.960        138.33	    12.884
   4.980        126.67	    12.329
   5.000        103.33	    11.136
   5.020        118.33	    11.916
   5.040        113.33	    11.662
   5.060        116.67	    11.832
   5.080        138.33	    12.884
   5.100        110.00	    11.489
   5.120        135.83	    12.767
   5.140        136.67	    12.806
   5.160        129.17	    12.450
   5.180        122.50	    12.124
   5.200        128.33	    12.410
   5.220        115.83	    11.790
   5.240        108.33	    11.402
   5.260        125.83	    12.288
   5.280        106.67	    11.314
   5.300        113.33	    11.662
   5.320        119.17	    11.958
   5.340        108.33	    11.402
   5.360        125.00	    12.247
   5.380        112.50	    11.619
   5.400        116.67	    11.832
   5.420        123.33	    12.166
   5.440        122.50	    12.124
   5.460        105.00	    11.225
   5.480         90.00	    10.392
   5.500        125.00	    12.247
   5.520         93.33	    10.583
   5.540        115.00	    11.747
   5.560        107.50	    11.358
   5.580        130.00	    12.490
   5.600        111.67	    11.576
   5.620        114.17	    11.705
   5.640         94.17	    10.630
   5.660        103.33	    11.136
   5.680        118.33	    11.916
   5.700        105.00	    11.225
   5.720        128.33	    12.410
   5.740        110.83	    11.533
   5.760        114.17	    11.705
   5.780        125.83	    12.288
   5.800        132.50	    12.610
   5.820        127.50	    12.369
   5.840        139.17	    12.923
   5.860        144.17	    13.153
   5.880        110.00	    11.489
   5.900        119.17	    11.958
   5.920        117.50	    11.874
   5.940        127.50	    12.369
   5.960        119.17	    11.958
   5.980        150.00	    13.416
   6.000        145.83	    13.229
   6.020        161.67	    13.928
   6.040        155.83	    13.675
   6.060        129.17	    12.450
   6.080        152.50	    13.528
   6.100        146.67	    13.266
   6.120        124.17	    12.207
   6.140        101.67	    11.045
   6.160        130.00	    12.490
   6.180        102.50	    11.091
   6.200        119.17	    11.958
   6.220        115.83	    11.790
   6.240        115.83	    11.790
   6.260        119.17	    11.958
   6.280        121.67	    12.083
   6.300        128.33	    12.410
   6.320        108.33	    11.402
   6.340        111.67	    11.576
   6.360         96.67	    10.770
   6.380        115.83	    11.790
   6.400        109.17	    11.446
   6.420        114.17	    11.705
   6.440        115.83	    11.790
   6.460        129.17	    12.450
   6.480        127.50	    12.369
   6.500        108.33	    11.402
   6.520        122.50	    12.124
   6.540        129.17	    12.450
   6.560        108.33	    11.402
   6.580        120.83	    12.042
   6.600        130.00	    12.490
   6.620        123.33	    12.166
   6.640        115.83	    11.790
   6.660        128.33	    12.410
   6.680        130.00	    12.490
   6.700        110.00	    11.489
   6.720        122.50	    12.124
   6.740        115.83	    11.790
   6.760        112.50	    11.619
   6.780        105.83	    11.269
   6.800        126.67	    12.329
   6.820        135.00	    12.728
   6.840        119.17	    11.958
   6.860        109.17	    11.446
   6.880        133.33	    12.649
   6.900        125.00	    12.247
   6.920        108.33	    11.402
   6.940        113.33	    11.662
   6.960        114.17	    11.705
   6.980        112.50	    11.619
   7.000        114.17	    11.705
   7.020        110.83	    11.533
   7.040        114.17	    11.705
   7.060        111.67	    11.576
   7.080        114.17	    11.705
   7.100        108.33	    11.402
   7.120        109.17	    11.446
   7.140        105.83	    11.269
   7.160        109.17	    11.446
   7.180        105.00	    11.225
   7.200        109.17	    11.446
   7.220        121.67	    12.083
   7.240        106.67	    11.314
   7.260        114.17	    11.705
   7.280        115.00	    11.747
   7.300        107.50	    11.358
   7.320         99.17	    10.909
   7.340        105.00	    11.225
   7.360        113.33	    11.662
   7.380        120.83	    12.042
   7.400        119.17	    11.958
   7.420        115.00	    11.747
   7.440        104.17	    11.180
   7.460        115.00	    11.747
   7.480        106.67	    11.314
   7.500        108.33	    11.402
   7.520        109.17	    11.446
   7.540         99.17	    10.909
   7.560        105.00	    11.225
   7.580        114.17	    11.705
   7.600        104.17	    11.180
   7.620        115.00	    11.747
   7.640        110.00	    11.489
   7.660        115.83	    11.790
   7.680        100.00	    10.954
   7.700        110.83	    11.533
   7.720        110.00	    11.489
   7.740         96.67	    10.770
   7.760         96.67	    10.770
   7.780        100.00	    10.954
   7.800        105.83	    11.269
   7.820        108.33	    11.402
   7.840         95.83	    10.724
   7.860        108.33	    11.402
   7.880        116.67	    11.832
   7.900        109.17	    11.446
   7.920        106.67	    11.314
   7.940        100.83	    11.000
   7.960        104.17	    11.180
   7.980         98.33	    10.863
   8.000        131.67	    12.570
   8.020         96.67	    10.770
   8.040         95.83	    10.724
   8.060        117.50	    11.874
   8.080        107.50	    11.358
   8.100        123.33	    12.166
   8.120        103.33	    11.136
   8.140        108.33	    11.402
   8.160        118.33	    11.916
   8.180        133.33	    12.649
   8.200        125.00	    12.247
   8.220        134.17	    12.689
   8.240        135.00	    12.728
   8.260        135.00	    12.728
   8.280        132.50	    12.610
   8.300        168.33	    14.213
   8.320        113.33	    11.662
   8.340        142.50	    13.077
   8.360        170.00	    14.283
   8.380        165.00	    14.071
   8.400        157.50	    13.748
   8.420        220.83	    16.279
   8.440        225.00	    16.432
   8.460        214.17	    16.031
   8.480        207.50	    15.780
   8.500        225.83	    16.462
   8.520        293.33	    18.762
   8.540        326.67	    19.799
   8.560        420.83	    22.472
   8.580        510.83	    24.759
   8.600        571.67	    26.192
   8.620        605.00	    26.944
   8.640        703.33	    29.052
   8.660        731.67	    29.631
   8.680        642.50	    27.767
   8.700        595.83	    26.739
   8.720        535.00	    25.338
   8.740        493.33	    24.331
   8.760        417.50	    22.383
   8.780        385.00	    21.494
   8.800        366.67	    20.976
   8.820        326.67	    19.799
   8.840        301.67	    19.026
   8.860        270.00	    18.000
   8.880        236.67	    16.852
   8.900        231.67	    16.673
   8.920        218.33	    16.186
   8.940        195.83	    15.330
   8.960        165.00	    14.071
   8.980        162.50	    13.964
   9.000        159.17	    13.820
   9.020        120.83	    12.042
   9.040        123.33	    12.166
   9.060         95.00	    10.677
   9.080        118.33	    11.916
   9.100        132.50	    12.610
   9.120        115.83	    11.790
   9.140        124.17	    12.207
   9.160        115.83	    11.790
   9.180        136.67	    12.806
   9.200        125.83	    12.288
   9.220        136.67	    12.806
   9.240        134.17	    12.689
   9.260        119.17	    11.958
   9.280        116.67	    11.832
   9.300        121.67	    12.083
   9.320        104.17	    11.180
   9.340        105.00	    11.225
   9.360        116.67	    11.832
   9.380        115.83	    11.790
   9.400        100.00	    10.954
   9.420         96.67	    10.770
   9.440         95.00	    10.677
   9.460        100.83	    11.000
   9.480         97.50	    10.817
   9.500         66.67	     8.944
   9.520         79.17	     9.747
   9.540         90.83	    10.440
   9.560         86.67	    10.198
   9.580         85.00	    10.100
   9.600         84.17	    10.050
   9.620         85.83	    10.149
   9.640         80.00	     9.798
   9.660         81.67	     9.899
   9.680         69.17	     9.110
   9.700         72.50	     9.327
   9.720         88.33	    10.296
   9.740         67.50	     9.000
   9.760         70.00	     9.165
   9.780         81.67	     9.899
   9.800         66.67	     8.944
   9.820         60.00	     8.485
   9.840         78.33	     9.695
   9.860         71.67	     9.274
   9.880         66.67	     8.944
   9.900         79.17	     9.747
   9.920         70.83	     9.220
   9.940         71.67	     9.274
   9.960         54.17	     8.062
   9.980         79.17	     9.747
  10.000         79.17	     9.747
  10.020         49.17	     7.681
  10.040         85.00	    10.100
  10.060         67.50	     9.000
  10.080         78.33	     9.695
  10.100         72.50	     9.327
  10.120         95.83	    10.724
  10.140        105.83	    11.269
  10.160         77.50	     9.644
  10.180         72.50	     9.327
  10.200         77.50	     9.644
  10.220         87.50	    10.247
  10.240         94.17	    10.630
  10.260         85.00	    10.100
  10.280         83.33	    10.000
  10.300         84.17	    10.050
  10.320        106.67	    11.314
  10.340         89.17	    10.344
  10.360         88.33	    10.296
  10.380         87.50	    10.247
  10.400         87.50	    10.247
  10.420         64.17	     8.775
  10.440         70.00	     9.165
  10.460         76.67	     9.592
  10.480         66.67	     8.944
  10.500         68.33	     9.055
  10.520         68.33	     9.055
  10.540         75.00	     9.487
  10.560         70.00	     9.165
  10.580         73.33	     9.381
  10.600         66.67	     8.944
  10.620         80.00	     9.798
  10.640         75.00	     9.487
  10.660         78.33	     9.695
  10.680         67.50	     9.000
  10.700         75.00	     9.487
  10.720         76.67	     9.592
  10.740         58.33	     8.367
  10.760         75.83	     9.539
  10.780         61.67	     8.602
  10.800         75.00	     9.487
  10.820         79.17	     9.747
  10.840         63.33	     8.718
  10.860         74.17	     9.434
  10.880         80.00	     9.798
  10.900         75.00	     9.487
  10.920         70.00	     9.165
  10.940         69.17	     9.110
  10.960         62.50	     8.660
  10.980         71.67	     9.274
  11.000         67.50	     9.000
  11.020         60.83	     8.544
  11.040         65.83	     8.888
  11.060         65.83	     8.888
  11.080         66.67	     8.944
  11.100         70.83	     9.220
  11.120         65.83	     8.888
  11.140         50.83	     7.810
  11.160         68.33	     9.055
  11.180         47.50	     7.550
  11.200         55.83	     8.185
  11.220         66.67	     8.944
  11.240         64.17	     8.775
  11.260         60.00	     8.485
  11.280         62.50	     8.660
  11.300         60.83	     8.544
  11.320         73.33	     9.381
  11.340         51.67	     7.874
  11.360         64.17	     8.775
  11.380         55.83	     8.185
  11.400         70.00	     9.165
  11.420         77.50	     9.644
  11.440         55.00	     8.124
  11.460         64.17	     8.775
  11.480         65.83	     8.888
  11.500         75.83	     9.539
  11.520         60.83	     8.544
  11.540         61.67	     8.602
  11.560         80.00	     9.798
  11.580         70.83	     9.220
  11.600         73.33	     9.381
  11.620         78.33	     9.695
  11.640         76.67	     9.592
  11.660         59.17	     8.426
  11.680         79.17	     9.747
  11.700         88.33	    10.296
  11.720        100.83	    11.000
  11.740         91.67	    10.488
  11.760        102.50	    11.091
  11.780         98.33	    10.863
  11.800        124.17	    12.207
  11.820        200.83	    15.524
  11.840        475.83	    23.896
  11.860        460.83	    23.516
  11.880        502.50	    24.556
  11.900        495.00	    24.372
  11.920        510.83	    24.759
  11.940        575.00	    26.268
  11.960        565.00	    26.038
  11.980        551.67	    25.729
  12.000        550.83	    25.710
  12.020        493.33	    24.331
  12.040        490.83	    24.269
  12.060        491.67	    24.290
  12.080        468.33	    23.707
  12.100        493.33	    24.331
  12.120        492.50	    24.310
  12.140        485.00	    24.125
  12.160        492.50	    24.310
  12.180        500.83	    24.515
  12.200        476.67	    23.917
  12.220        482.50	    24.062
  12.240        469.17	    23.728
  12.260        496.67	    24.413
  12.280        464.17	    23.601
  12.300        420.83	    22.472
  12.320        345.83	    20.372
  12.340        340.00	    20.199
  12.360        287.50	    18.574
  12.380        260.00	    17.664
  12.400        243.33	    17.088
  12.420        240.83	    17.000
  12.440        230.83	    16.643
  12.460        208.33	    15.811
  12.480        160.83	    13.892
  12.500        132.50	    12.610
  12.520        144.17	    13.153
  12.540        118.33	    11.916
  12.560         95.83	    10.724
  12.580         96.67	    10.770
  12.600         70.83	     9.220
  12.620         80.00	     9.798
  12.640         68.33	     9.055
  12.660         58.33	     8.367
  12.680         61.67	     8.602
  12.700         66.67	     8.944
  12.720         55.83	     8.185
  12.740         50.00	     7.746
  12.760         57.50	     8.307
  12.780         65.00	     8.832
  12.800         61.67	     8.602
  12.820         50.00	     7.746
  12.840         60.83	     8.544
  12.860         52.50	     7.937
  12.880         59.17	     8.426
  12.900         63.33	     8.718
  12.920         44.17	     7.280
  12.940         56.67	     8.246
  12.960         61.67	     8.602
  12.980         48.33	     7.616
  13.000         65.83	     8.888
  13.020         62.50	     8.660
  13.040         50.83	     7.810
  13.060         55.00	     8.124
  13.080         56.67	     8.246
  13.100         60.83	     8.544
  13.120         49.17	     7.681
  13.140         55.00	     8.124
  13.160         54.17	     8.062
  13.180         64.17	     8.775
  13.200         56.67	     8.246
  13.220         57.50	     8.307
  13.240         54.17	     8.062
  13.260         61.67	     8.602
  13.280         53.33	     8.000
  13.300         52.50	     7.937
  13.320         65.00	     8.832
  13.340         57.50	     8.307
  13.360         64.17	     8.775
  13.380         48.33	     7.616
  13.400         57.50	     8.307
  13.420         57.50	     8.307
  13.440         49.17	     7.681
  13.460         53.33	     8.000
  13.480         44.17	     7.280
  13.500         57.50	     8.307
  13.520         55.83	     8.185
  13.540         55.83	     8.185
  13.560         65.00	     8.832
  13.580         56.67	     8.246
  13.600         53.33	     8.000
  13.620         62.50	     8.660
  13.640         55.83	     8.185
  13.660         52.50	     7.937
  13.680         52.50	     7.937
  13.700         59.17	     8.426
  13.720         61.67	     8.602
  13.740         50.00	     7.746
  13.760         52.50	     7.937
  13.780         42.50	     7.141
  13.800         48.33	     7.616
  13.820         58.33	     8.367
  13.840         46.67	     7.483
  13.860         56.67	     8.246
  13.880         47.50	     7.550
  13.900         42.50	     7.141
  13.920         42.50	     7.141
  13.940         40.83	     7.000
  13.960         52.50	     7.937
  13.980         40.83	     7.000
  14.000         45.00	     7.348
  14.020         40.83	     7.000
  14.040         45.00	     7.348
  14.060         50.00	     7.746
  14.080         39.17	     6.856
  14.100         35.83	     6.557
  14.120         32.50	     6.245
  14.140         47.50	     7.550
  14.160         43.33	     7.211
  14.180         50.00	     7.746
  14.200         40.00	     6.928
  14.220         41.67	     7.071
  14.240         47.50	     7.550
  14.260         41.67	     7.071
  14.280         52.50	     7.937
  14.300         30.83	     6.083
  14.320         39.17	     6.856
  14.340         30.00	     6.000
  14.360         43.33	     7.211
  14.380         40.00	     6.928
  14.400         37.50	     6.708
  14.420         34.17	     6.403
  14.440         48.33	     7.616
  14.460         35.00	     6.481
  14.480         40.00	     6.928
  14.500         30.83	     6.083
  14.520         46.67	     7.483
  14.540         35.83	     6.557
  14.560         33.33	     6.325
  14.580         46.67	     7.483
  14.600         48.33	     7.616
  14.620         42.50	     7.141
  14.640         33.33	     6.325
  14.660         37.50	     6.708
  14.680         54.17	     8.062
  14.700         61.67	     8.602
  14.720         49.17	     7.681
  14.740         54.17	     8.062
  14.760         49.17	     7.681
  14.780         41.67	     7.071
  14.800         48.33	     7.616
  14.820         40.83	     7.000
  14.840         37.50	     6.708
  14.860         40.00	     6.928
  14.880         34.17	     6.403
  14.900         35.83	     6.557
  14.920         38.33	     6.782
  14.940         33.33	     6.325
  14.960         32.50	     6.245
  14.980         34.17	     6.403
  15.000         36.67	     6.633
  15.020         35.83	     6.557
  15.040         38.33	     6.782
  15.060         43.33	     7.211
  15.080         34.17	     6.403
  15.100         45.00	     7.348
  15.120         37.50	     6.708
  15.140         31.67	     6.164
  15.160         41.67	     7.071
  15.180         45.83	     7.416
  15.200         32.50	     6.245
  15.220         44.17	     7.280
  15.240         40.83	     7.000
  15.260         32.50	     6.245
  15.280         35.00	     6.481
  15.300         35.00	     6.481
  15.320         40.00	     6.928
  15.340         35.00	     6.481
  15.360         30.83	     6.083
  15.380         41.67	     7.071
  15.400         43.33	     7.211
  15.420         28.33	     5.831
  15.440         32.50	     6.245
  15.460         34.17	     6.403
  15.480         43.33	     7.211
  15.500         41.67	     7.071
  15.520         35.83	     6.557
  15.540         40.00	     6.928
  15.560         39.17	     6.856
  15.580         40.83	     7.000
  15.600         39.17	     6.856
  15.620         30.83	     6.083
  15.640         40.00	     6.928
  15.660         45.83	     7.416
  15.680         33.33	     6.325
  15.700         34.17	     6.403
  15.720         35.83	     6.557
  15.740         30.00	     6.000
  15.760         31.67	     6.164
  15.780         32.50	     6.245
  15.800         41.67	     7.071
  15.820         39.17	     6.856
  15.840         41.67	     7.071
  15.860         37.50	     6.708
  15.880         36.67	     6.633
  15.900         46.67	     7.483
  15.920         40.83	     7.000
  15.940         32.50	     6.245
  15.960         35.83	     6.557
  15.980         31.67	     6.164
  16.000         45.83	     7.416
  16.020         42.50	     7.141
  16.040         36.67	     6.633
  16.060         30.83	     6.083
  16.080         30.83	     6.083
  16.100         34.17	     6.403
  16.120         37.50	     6.708
  16.140         34.17	     6.403
  16.160         30.00	     6.000
  16.180         43.33	     7.211
  16.200         28.33	     5.831
  16.220         47.50	     7.550
  16.240         32.50	     6.245
  16.260         28.33	     5.831
  16.280         28.33	     5.831
  16.300         35.00	     6.481
  16.320         34.17	     6.403
  16.340         35.00	     6.481
  16.360         34.17	     6.403
  16.380         35.00	     6.481
  16.400         34.17	     6.403
  16.420         38.33	     6.782
  16.440         30.00	     6.000
  16.460         31.67	     6.164
  16.480         33.33	     6.325
  16.500         32.50	     6.245
  16.520         40.83	     7.000
  16.540         27.50	     5.745
  16.560         27.50	     5.745
  16.580         21.67	     5.099
  16.600         41.67	     7.071
  16.620         22.50	     5.196
  16.640         52.50	     7.937
  16.660         36.67	     6.633
  16.680         46.67	     7.483
  16.700         34.17	     6.403
  16.720         42.50	     7.141
  16.740         22.50	     5.196
  16.760         39.17	     6.856
  16.780         38.33	     6.782
  16.800         32.50	     6.245
  16.820         35.83	     6.557
  16.840         30.00	     6.000
  16.860         31.67	     6.164
  16.880         37.50	     6.708
  16.900         37.50	     6.708
  16.920         37.50	     6.708
  16.940         39.17	     6.856
  16.960         27.50	     5.745
  16.980         35.00	     6.481
  17.000         32.50	     6.245
  17.020         31.67	     6.164
  17.040         34.17	     6.403
  17.060         28.33	     5.831
  17.080         34.17	     6.403
  17.100         26.67	     5.657
  17.120         23.33	     5.292
  17.140         28.33	     5.831
  17.160         35.83	     6.557
  17.180         32.50	     6.245
  17.200         30.83	     6.083
  17.220         44.17	     7.280
  17.240         26.67	     5.657
  17.260         45.00	     7.348
  17.280         36.67	     6.633
  17.300         41.67	     7.071
  17.320         42.50	     7.141
  17.340         38.33	     6.782
  17.360         40.83	     7.000
  17.380         39.17	     6.856
  17.400         40.00	     6.928
  17.420         48.33	     7.616
  17.440         44.17	     7.280
  17.460         73.33	     9.381
  17.480         77.50	     9.644
  17.500         88.33	    10.296
  17.520        123.33	    12.166
  17.540        141.67	    13.038
  17.560        175.00	    14.491
  17.580        248.33	    17.263
  17.600        229.17	    16.583
  17.620        260.83	    17.692
  17.640        237.50	    16.882
  17.660        230.83	    16.643
  17.680        220.00	    16.248
  17.700        194.17	    15.264
  17.720        172.50	    14.387
  17.740        123.33	    12.166
  17.760        125.83	    12.288
  17.780        118.33	    11.916
  17.800        103.33	    11.136
  17.820         75.83	     9.539
  17.840         67.50	     9.000
  17.860         66.67	     8.944
  17.880         64.17	     8.775
  17.900         45.83	     7.416
  17.920         51.67	     7.874
  17.940         42.50	     7.141
  17.960         40.00	     6.928
  17.980         40.83	     7.000
  18.000         38.33	     6.782
  18.020         38.33	     6.782
  18.040         36.67	     6.633
  18.060         35.83	     6.557
  18.080         42.50	     7.141
  18.100         56.67	     8.246
  18.120         44.17	     7.280
  18.140         41.67	     7.071
  18.160         55.00	     8.124
  18.180         51.67	     7.874
  18.200         60.83	     8.544
  18.220         70.00	     9.165
  18.240         76.67	     9.592
  18.260         78.33	     9.695
  18.280         76.67	     9.592
  18.300         57.50	     8.307
  18.320         75.83	     9.539
  18.340        102.50	    11.091
  18.360         82.50	     9.950
  18.380         71.67	     9.274
  18.400         81.67	     9.899
  18.420         91.67	    10.488
  18.440         90.00	    10.392
  18.460        118.33	    11.916
  18.480        100.00	    10.954
  18.500        104.17	    11.180
  18.520        120.83	    12.042
  18.540        142.50	    13.077
  18.560        140.83	    13.000
  18.580        141.67	    13.038
  18.600        160.00	    13.856
  18.620        135.00	    12.728
  18.640        128.33	    12.410
  18.660        118.33	    11.916
  18.680        112.50	    11.619
  18.700        105.00	    11.225
  18.720         82.50	     9.950
  18.740         98.33	    10.863
  18.760         84.17	    10.050
  18.780         55.00	     8.124
  18.800         69.17	     9.110
  18.820         56.67	     8.246
  18.840         48.33	     7.616
  18.860         40.00	     6.928
  18.880         46.67	     7.483
  18.900         42.50	     7.141
  18.920         44.17	     7.280
  18.940         51.67	     7.874
  18.960         43.33	     7.211
  18.980         40.00	     6.928
  19.000         42.50	     7.141
  19.020         48.33	     7.616
  19.040         26.67	     5.657
  19.060         23.33	     5.292
  19.080         27.50	     5.745
  19.100         29.17	     5.916
  19.120         33.33	     6.325
  19.140         34.17	     6.403
  19.160         35.83	     6.557
  19.180         37.50	     6.708
  19.200         38.33	     6.782
  19.220         27.50	     5.745
  19.240         30.00	     6.000
  19.260         30.83	     6.083
  19.280         35.83	     6.557
  19.300         28.33	     5.831
  19.320         27.50	     5.745
  19.340         30.00	     6.000
  19.360         39.17	     6.856
  19.380         34.17	     6.403
  19.400         25.83	     5.568
  19.420         22.50	     5.196
  19.440         23.33	     5.292
  19.460         36.67	     6.633
  19.480         27.50	     5.745
  19.500         35.00	     6.481
  19.520         43.33	     7.211
  19.540         33.33	     6.325
  19.560         33.33	     6.325
  19.580         23.33	     5.292
  19.600         33.33	     6.325
  19.620         32.50	     6.245
  19.640         30.83	     6.083
  19.660         30.00	     6.000
  19.680         33.33	     6.325
  19.700         25.83	     5.568
  19.720         29.17	     5.916
  19.740         33.33	     6.325
  19.760         30.83	     6.083
  19.780         33.33	     6.325
  19.800         23.33	     5.292
  19.820         30.83	     6.083
  19.840         33.33	     6.325
  19.860         29.17	     5.916
  19.880         24.17	     5.385
  19.900         33.33	     6.325
  19.920         35.83	     6.557
  19.940         35.00	     6.481
  19.960         30.00	     6.000
  19.980         21.67	     5.099
  20.000         25.83	     5.568
  20.020         33.33	     6.325
  20.040         37.50	     6.708
  20.060         26.67	     5.657
  20.080         30.00	     6.000
  20.100         32.50	     6.245
  20.120         24.17	     5.385
  20.140         33.33	     6.325
  20.160         25.83	     5.568
  20.180         20.00	     4.899
  20.200         24.17	     5.385
  20.220         29.17	     5.916
  20.240         18.33	     4.690
  20.260         23.33	     5.292
  20.280         25.83	     5.568
  20.300         35.83	     6.557
  20.320         36.67	     6.633
  20.340         25.83	     5.568
  20.360         23.33	     5.292
  20.380         32.50	     6.245
  20.400         29.17	     5.916
  20.420         35.83	     6.557
  20.440         32.50	     6.245
  20.460         34.17	     6.403
  20.480         36.67	     6.633
  20.500         38.33	     6.782
  20.520         38.33	     6.782
  20.540         62.50	     8.660
  20.560        156.67	    13.711
  20.580        255.83	    17.521
  20.600        186.67	    14.967
  20.620        168.33	    14.213
  20.640        151.67	    13.491
  20.660         78.33	     9.695
  20.680         54.17	     8.062
  20.700         60.00	     8.485
  20.720         33.33	     6.325
  20.740         30.00	     6.000
  20.760         44.17	     7.280
  20.780         37.50	     6.708
  20.800         37.50	     6.708
  20.820         35.83	     6.557
  20.840         43.33	     7.211
  20.860         25.83	     5.568
  20.880         45.00	     7.348
  20.900         33.33	     6.325
  20.920         33.33	     6.325
  20.940         36.67	     6.633
  20.960         29.17	     5.916
  20.980         30.83	     6.083
  21.000         21.67	     5.099
  21.020         23.33	     5.292
  21.040         28.33	     5.831
  21.060         27.50	     5.745
  21.080         33.33	     6.325
  21.100         35.83	     6.557
  21.120         27.50	     5.745
  21.140         19.17	     4.796
  21.160         25.83	     5.568
  21.180         21.67	     5.099
  21.200         24.17	     5.385
  21.220         20.83	     5.000
  21.240         24.17	     5.385
  21.260         29.17	     5.916
  21.280         30.83	     6.083
  21.300         23.33	     5.292
  21.320         34.17	     6.403
  21.340         26.67	     5.657
  21.360         18.33	     4.690
  21.380         30.83	     6.083
  21.400         28.33	     5.831
  21.420         27.50	     5.745
  21.440         20.00	     4.899
  21.460         25.00	     5.477
  21.480         25.00	     5.477
  21.500         26.67	     5.657
  21.520         21.67	     5.099
  21.540         27.50	     5.745
  21.560         19.17	     4.796
  21.580         20.00	     4.899
  21.600         21.67	     5.099
  21.620         25.00	     5.477
  21.640         20.00	     4.899
  21.660         23.33	     5.292
  21.680         21.67	     5.099
  21.700         24.17	     5.385
  21.720         29.17	     5.916
  21.740         25.00	     5.477
  21.760         34.17	     6.403
  21.780         30.83	     6.083
  21.800         42.50	     7.141
  21.820         30.83	     6.083
  21.840         36.67	     6.633
  21.860         40.83	     7.000
  21.880         36.67	     6.633
  21.900         35.00	     6.481
  21.920         44.17	     7.280
  21.940         29.17	     5.916
  21.960         39.17	     6.856
  21.980         24.17	     5.385
  22.000         25.00	     5.477
  22.020         44.17	     7.280
  22.040         67.50	     9.000
  22.060         67.50	     9.000
  22.080         50.00	     7.746
  22.100         44.17	     7.280
  22.120         40.00	     6.928
  22.140         23.33	     5.292
  22.160         30.83	     6.083
  22.180         26.67	     5.657
  22.200         36.67	     6.633
  22.220         28.33	     5.831
  22.240         32.50	     6.245
  22.260         43.33	     7.211
  22.280         37.50	     6.708
  22.300         44.17	     7.280
  22.320         40.83	     7.000
  22.340         40.00	     6.928
  22.360         57.50	     8.307
  22.380         49.17	     7.681
  22.400         36.67	     6.633
  22.420         32.50	     6.245
  22.440         28.33	     5.831
  22.460         26.67	     5.657
  22.480         30.83	     6.083
  22.500         21.67	     5.099
  22.520         25.83	     5.568
  22.540         23.33	     5.292
  22.560         25.83	     5.568
  22.580         20.83	     5.000
  22.600         19.17	     4.796
  22.620         27.50	     5.745
  22.640         30.83	     6.083
  22.660         25.00	     5.477
  22.680         29.17	     5.916
  22.700         22.50	     5.196
  22.720         23.33	     5.292
  22.740         22.50	     5.196
  22.760         28.33	     5.831
  22.780         21.67	     5.099
  22.800         32.50	     6.245
  22.820         28.33	     5.831
  22.840         27.50	     5.745
  22.860         25.83	     5.568
  22.880         24.17	     5.385
  22.900         25.00	     5.477
  22.920         32.50	     6.245
  22.940         31.67	     6.164
  22.960         25.00	     5.477
  22.980         24.17	     5.385
  23.000         30.00	     6.000
  23.020         21.67	     5.099
  23.040         30.00	     6.000
  23.060         20.00	     4.899
  23.080         27.50	     5.745
  23.100         31.67	     6.164
  23.120         23.33	     5.292
  23.140         20.83	     5.000
  23.160         30.83	     6.083
  23.180         25.00	     5.477
  23.200         28.33	     5.831
  23.220         35.00	     6.481
  23.240         30.00	     6.000
  23.260         27.50	     5.745
  23.280         29.17	     5.916
  23.300         31.67	     6.164
  23.320         27.50	     5.745
  23.340         33.33	     6.325
  23.360         31.67	     6.164
  23.380         39.17	     6.856
  23.400         46.67	     7.483
  23.420         40.00	     6.928
  23.440         35.00	     6.481
  23.460         34.17	     6.403
  23.480         34.17	     6.403
  23.500         38.33	     6.782
  23.520         30.00	     6.000
  23.540         35.00	     6.481
  23.560         25.83	     5.568
  23.580         20.83	     5.000
  23.600         30.00	     6.000
  23.620         31.67	     6.164
  23.640         25.83	     5.568
  23.660         27.50	     5.745
  23.680         32.50	     6.245
  23.700         29.17	     5.916
  23.720         35.00	     6.481
  23.740         25.00	     5.477
  23.760         25.83	     5.568
  23.780         21.67	     5.099
  23.800         33.33	     6.325
  23.820         36.67	     6.633
  23.840         35.83	     6.557
  23.860         35.00	     6.481
  23.880         35.83	     6.557
  23.900         34.17	     6.403
  23.920         40.00	     6.928
  23.940         30.00	     6.000
  23.960         40.83	     7.000
  23.980         30.83	     6.083
  24.000         42.50	     7.141
  24.020         35.83	     6.557
  24.040         35.83	     6.557
  24.060         41.67	     7.071
  24.080         47.50	     7.550
  24.100         45.83	     7.416
  24.120         48.33	     7.616
  24.140         47.50	     7.550
  24.160         61.67	     8.602
  24.180         48.33	     7.616
  24.200         61.67	     8.602
  24.220         52.50	     7.937
  24.240         78.33	     9.695
  24.260         82.50	     9.950
  24.280         95.00	    10.677
  24.300        123.33	    12.166
  24.320        156.67	    13.711
  24.340        191.67	    15.166
  24.360        243.33	    17.088
  24.380        241.67	    17.029
  24.400        287.50	    18.574
  24.420        335.83	    20.075
  24.440        335.00	    20.050
  24.460        280.83	    18.358
  24.480        281.67	    18.385
  24.500        280.00	    18.330
  24.520        255.83	    17.521
  24.540        245.83	    17.176
  24.560        217.50	    16.155
  24.580        177.50	    14.595
  24.600        161.67	    13.928
  24.620        181.67	    14.765
  24.640        164.17	    14.036
  24.660        127.50	    12.369
  24.680        139.17	    12.923
  24.700        118.33	    11.916
  24.720        137.50	    12.845
  24.740        105.00	    11.225
  24.760        106.67	    11.314
  24.780        119.17	    11.958
  24.800        126.67	    12.329
  24.820         99.17	    10.909
  24.840        123.33	    12.166
  24.860        155.83	    13.675
  24.880        153.33	    13.565
  24.900        220.83	    16.279
  24.920        199.17	    15.460
  24.940        225.83	    16.462
  24.960        225.00	    16.432
  24.980        205.83	    15.716
  25.000        227.50	    16.523
  25.020        205.00	    15.684
  25.040        214.17	    16.031
  25.060        169.17	    14.248
  25.080        150.00	    13.416
  25.100        142.50	    13.077
  25.120        111.67	    11.576
  25.140         95.00	    10.677
  25.160         78.33	     9.695
  25.180         89.17	    10.344
  25.200         60.83	     8.544
  25.220         58.33	     8.367
  25.240         58.33	     8.367
  25.260         65.83	     8.888
  25.280         48.33	     7.616
  25.300         63.33	     8.718
  25.320         47.50	     7.550
  25.340         50.83	     7.810
  25.360         35.83	     6.557
  25.380         51.67	     7.874
  25.400         50.00	     7.746
  25.420         48.33	     7.616
  25.440         52.50	     7.937
  25.460         51.67	     7.874
  25.480         47.50	     7.550
  25.500         45.83	     7.416
  25.520         55.83	     8.185
  25.540         59.17	     8.426
  25.560         55.83	     8.185
  25.580         52.50	     7.937
  25.600         44.17	     7.280
  25.620         40.00	     6.928
  25.640         49.17	     7.681
  25.660         50.83	     7.810
  25.680         36.67	     6.633
  25.700         38.33	     6.782
  25.720         38.33	     6.782
  25.740         44.17	     7.280
  25.760         40.83	     7.000
  25.780         49.17	     7.681
  25.800         48.33	     7.616
  25.820         40.00	     6.928
  25.840         35.00	     6.481
  25.860         35.00	     6.481
  25.880         50.83	     7.810
  25.900         40.83	     7.000
  25.920         32.50	     6.245
  25.940         38.33	     6.782
  25.960         55.83	     8.185
  25.980         34.17	     6.403
  26.000         56.67	     8.246
  26.020         48.33	     7.616
  26.040         37.50	     6.708
  26.060         39.17	     6.856
  26.080         50.83	     7.810
  26.100         53.33	     8.000
  26.120         45.83	     7.416
  26.140         65.00	     8.832
  26.160         84.17	    10.050
  26.180         70.83	     9.220
  26.200         85.00	    10.100
  26.220         90.00	    10.392
  26.240         86.67	    10.198
  26.260        100.83	    11.000
  26.280         98.33	    10.863
  26.300        100.83	    11.000
  26.320        105.83	    11.269
  26.340        133.33	    12.649
  26.360        121.67	    12.083
  26.380        136.67	    12.806
  26.400        165.83	    14.107
  26.420        194.17	    15.264
  26.440        225.83	    16.462
  26.460        258.33	    17.607
  26.480        310.83	    19.313
  26.500        290.00	    18.655
  26.520        280.83	    18.358
  26.540        330.83	    19.925
  26.560        360.83	    20.809
  26.580        421.67	    22.494
  26.600        461.67	    23.537
  26.620        466.67	    23.664
  26.640        578.33	    26.344
  26.660        640.83	    27.731
  26.680        633.33	    27.568
  26.700        616.67	    27.203
  26.720        555.00	    25.807
  26.740        480.00	    24.000
  26.760        407.50	    22.113
  26.780        353.33	    20.591
  26.800        290.00	    18.655
  26.820        236.67	    16.852
  26.840        189.17	    15.067
  26.860        155.83	    13.675
  26.880        140.83	    13.000
  26.900        100.00	    10.954
  26.920         75.83	     9.539
  26.940         75.00	     9.487
  26.960         67.50	     9.000
  26.980         40.83	     7.000
  27.000         61.67	     8.602
  27.020         34.17	     6.403
  27.040         44.17	     7.280
  27.060         40.83	     7.000
  27.080         38.33	     6.782
  27.100         35.00	     6.481
  27.120         39.17	     6.856
  27.140         24.17	     5.385
  27.160         45.00	     7.348
  27.180         51.67	     7.874
  27.200         38.33	     6.782
  27.220         49.17	     7.681
  27.240         56.67	     8.246
  27.260         57.50	     8.307
  27.280         53.33	     8.000
  27.300         53.33	     8.000
  27.320         60.83	     8.544
  27.340         55.00	     8.124
  27.360         58.33	     8.367
  27.380         45.83	     7.416
  27.400         60.00	     8.485
  27.420         49.17	     7.681
  27.440         53.33	     8.000
  27.460         57.50	     8.307
  27.480         47.50	     7.550
  27.500         55.83	     8.185
  27.520         87.50	    10.247
  27.540        180.00	    14.697
  27.560        243.33	    17.088
  27.580        269.17	    17.972
  27.600        217.50	    16.155
  27.620        193.33	    15.232
  27.640        216.67	    16.125
  27.660        198.33	    15.427
  27.680        133.33	    12.649
  27.700        135.83	    12.767
  27.720        134.17	    12.689
  27.740        108.33	    11.402
  27.760        117.50	    11.874
  27.780        110.83	    11.533
  27.800         85.00	    10.100
  27.820         73.33	     9.381
  27.840         73.33	     9.381
  27.860         82.50	     9.950
  27.880         61.67	     8.602
  27.900         53.33	     8.000
  27.920         52.50	     7.937
  27.940         43.33	     7.211
  27.960         41.67	     7.071
  27.980         35.83	     6.557
  28.000         33.33	     6.325
  28.020         31.67	     6.164
  28.040         36.67	     6.633
  28.060         42.50	     7.141
  28.080         39.17	     6.856
  28.100         40.83	     7.000
  28.120         31.67	     6.164
  28.140         35.00	     6.481
  28.160         38.33	     6.782
  28.180         35.00	     6.481
  28.200         35.00	     6.481
  28.220         30.00	     6.000
  28.240         30.00	     6.000
  28.260         37.50	     6.708
  28.280         27.50	     5.745
  28.300         41.67	     7.071
  28.320         51.67	     7.874
  28.340         80.00	     9.798
  28.360         85.00	    10.100
  28.380         77.50	     9.644
  28.400         72.50	     9.327
  28.420         71.67	     9.274
  28.440         70.00	     9.165
  28.460         86.67	    10.198
  28.480         51.67	     7.874
  28.500         59.17	     8.426
  28.520         56.67	     8.246
  28.540         55.83	     8.185
  28.560         42.50	     7.141
  28.580         47.50	     7.550
  28.600         65.83	     8.888
  28.620         57.50	     8.307
  28.640         48.33	     7.616
  28.660         32.50	     6.245
  28.680         43.33	     7.211
  28.700         32.50	     6.245
  28.720         22.50	     5.196
  28.740         22.50	     5.196
  28.760         23.33	     5.292
  28.780         28.33	     5.831
  28.800         22.50	     5.196
  28.820         30.83	     6.083
  28.840         29.17	     5.916
  28.860         23.33	     5.292
  28.880         25.83	     5.568
  28.900         16.67	     4.472
  28.920         25.00	     5.477
  28.940         18.33	     4.690
  28.960         25.00	     5.477
  28.980         16.67	     4.472
  29.000         27.50	     5.745
  29.020         23.33	     5.292
  29.040         19.17	     4.796
  29.060         17.50	     4.583
  29.080         21.67	     5.099
  29.100         25.00	     5.477
  29.120         24.17	     5.385
  29.140         20.00	     4.899
  29.160         17.50	     4.583
  29.180         16.67	     4.472
  29.200         33.33	     6.325
  29.220         15.00	     4.243
  29.240         22.50	     5.196
  29.260         23.33	     5.292
  29.280         27.50	     5.745
  29.300         25.83	     5.568
  29.320         25.00	     5.477
  29.340         21.67	     5.099
  29.360         20.83	     5.000
  29.380         15.83	     4.359
  29.400         26.67	     5.657
  29.420         22.50	     5.196
  29.440         24.17	     5.385
  29.460         25.00	     5.477
  29.480         22.50	     5.196
  29.500         22.50	     5.196
  29.520         25.00	     5.477
  29.540         15.00	     4.243
  29.560         11.67	     3.742
  29.580         33.33	     6.325
  29.600         35.00	     6.481
  29.620         24.17	     5.385
  29.640         25.00	     5.477
  29.660         31.67	     6.164
  29.680         26.67	     5.657
  29.700         22.50	     5.196
  29.720         24.17	     5.385
  29.740         27.50	     5.745
  29.760         25.83	     5.568
  29.780         25.83	     5.568
  29.800         20.00	     4.899
  29.820         21.67	     5.099
  29.840         24.17	     5.385
  29.860         27.50	     5.745
  29.880         21.67	     5.099
  29.900         34.17	     6.403
  29.920         32.50	     6.245
  29.940         39.17	     6.856
  29.960         29.17	     5.916
  29.980         27.50	     5.745
  30.000         26.67	     5.657
  30.020         22.50	     5.196
  30.040         25.00	     5.477
  30.060         24.17	     5.385
  30.080         30.00	     6.000
  30.100         30.00	     6.000
  30.120         28.33	     5.831
  30.140         24.17	     5.385
  30.160         25.00	     5.477
  30.180         28.33	     5.831
  30.200         28.33	     5.831
  30.220         20.83	     5.000
  30.240         36.67	     6.633
  30.260         23.33	     5.292
  30.280         30.00	     6.000
  30.300         28.33	     5.831
  30.320         35.00	     6.481
  30.340         24.17	     5.385
  30.360         19.17	     4.796
  30.380         18.33	     4.690
  30.400         21.67	     5.099
  30.420         27.50	     5.745
  30.440         19.17	     4.796
  30.460         17.50	     4.583
  30.480         22.50	     5.196
  30.500         17.50	     4.583
  30.520         14.17	     4.123
  30.540         28.33	     5.831
  30.560         14.17	     4.123
  30.580         22.50	     5.196
  30.600         15.83	     4.359
  30.620         19.17	     4.796
  30.640         15.00	     4.243
  30.660         25.00	     5.477
  30.680         20.83	     5.000
  30.700         27.50	     5.745
  30.720         30.83	     6.083
  30.740         28.33	     5.831
  30.760         25.00	     5.477
  30.780         30.83	     6.083
  30.800         22.50	     5.196
  30.820         19.17	     4.796
  30.840         27.50	     5.745
  30.860         16.67	     4.472
  30.880         23.33	     5.292
  30.900         22.50	     5.196
  30.920         31.67	     6.164
  30.940         27.50	     5.745
  30.960         20.83	     5.000
  30.980         30.00	     6.000
  31.000         36.67	     6.633
  31.020         30.83	     6.083
  31.040         34.17	     6.403
  31.060         35.83	     6.557
  31.080         35.83	     6.557
  31.100         30.00	     6.000
  31.120         31.67	     6.164
  31.140         26.67	     5.657
  31.160         37.50	     6.708
  31.180         32.50	     6.245
  31.200         26.67	     5.657
  31.220         32.50	     6.245
  31.240         23.33	     5.292
  31.260         32.50	     6.245
  31.280         33.33	     6.325
  31.300         40.83	     7.000
  31.320         43.33	     7.211
  31.340         40.83	     7.000
  31.360         48.33	     7.616
  31.380         52.50	     7.937
  31.400         51.67	     7.874
  31.420         52.50	     7.937
  31.440         44.17	     7.280
  31.460         41.67	     7.071
  31.480         41.67	     7.071
  31.500         42.50	     7.141
  31.520         40.00	     6.928
  31.540         37.50	     6.708
  31.560         45.00	     7.348
  31.580         58.33	     8.367
  31.600         44.17	     7.280
  31.620         35.83	     6.557
  31.640         39.17	     6.856
  31.660         45.83	     7.416
  31.680         24.17	     5.385
  31.700         31.67	     6.164
  31.720         27.50	     5.745
  31.740         35.00	     6.481
  31.760         24.17	     5.385
  31.780         32.50	     6.245
  31.800         30.00	     6.000
  31.820         16.67	     4.472
  31.840         20.83	     5.000
  31.860         21.67	     5.099
  31.880         27.50	     5.745
  31.900         15.00	     4.243
  31.920         20.00	     4.899
  31.940         27.50	     5.745
  31.960         21.67	     5.099
  31.980         25.83	     5.568
  32.000         24.17	     5.385
  32.020         19.17	     4.796
  32.040         16.67	     4.472
  32.060         26.67	     5.657
  32.080         26.67	     5.657
  32.100         22.50	     5.196
  32.120         24.17	     5.385
  32.140         16.67	     4.472
  32.160         18.33	     4.690
  32.180         18.33	     4.690
  32.200         15.00	     4.243
  32.220         25.83	     5.568
  32.240         20.83	     5.000
  32.260         18.33	     4.690
  32.280         17.50	     4.583
  32.300         18.33	     4.690
  32.320         17.50	     4.583
  32.340         21.67	     5.099
  32.360         21.67	     5.099
  32.380         16.67	     4.472
  32.400         19.17	     4.796
  32.420          8.33	     3.162
  32.440         12.50	     3.873
  32.460         26.67	     5.657
  32.480         15.00	     4.243
  32.500         14.17	     4.123
  32.520         20.00	     4.899
  32.540         11.67	     3.742
  32.560         14.17	     4.123
  32.580         12.50	     3.873
  32.600         17.50	     4.583
  32.620          9.17	     3.317
  32.640         18.33	     4.690
  32.660         17.50	     4.583
  32.680         20.00	     4.899
  32.700         20.00	     4.899
  32.720         20.83	     5.000
  32.740         17.50	     4.583
  32.760         20.83	     5.000
  32.780         25.00	     5.477
  32.800         23.33	     5.292
  32.820         25.00	     5.477
  32.840         17.50	     4.583
  32.860         18.33	     4.690
  32.880         13.33	     4.000
  32.900         15.83	     4.359
  32.920         20.00	     4.899
  32.940         14.17	     4.123
  32.960         12.50	     3.873
  32.980         18.33	     4.690
  33.000         23.33	     5.292
  33.020         25.00	     5.477
  33.040         17.50	     4.583
  33.060         20.83	     5.000
  33.080          8.33	     3.162
  33.100         17.50	     4.583
  33.120         16.67	     4.472
  33.140         15.00	     4.243
  33.160         16.67	     4.472
  33.180         20.00	     4.899
  33.200         13.33	     4.000
  33.220         18.33	     4.690
  33.240         20.00	     4.899
  33.260         17.50	     4.583
  33.280         23.33	     5.292
  33.300         17.50	     4.583
  33.320         21.67	     5.099
  33.340         19.17	     4.796
  33.360         17.50	     4.583
  33.380         14.17	     4.123
  33.400         16.67	     4.472
  33.420         20.00	     4.899
  33.440         14.17	     4.123
  33.460         19.17	     4.796
  33.480         13.33	     4.000
  33.500         13.33	     4.000
  33.520         15.00	     4.243
  33.540         15.00	     4.243
  33.560         14.17	     4.123
  33.580         10.83	     3.606
  33.600         19.17	     4.796
  33.620         18.33	     4.690
  33.640         20.00	     4.899
  33.660         23.33	     5.292
  33.680         15.00	     4.243
  33.700         12.50	     3.873
  33.720         19.17	     4.796
  33.740         19.17	     4.796
  33.760         16.67	     4.472
  33.780         20.83	     5.000
  33.800         20.83	     5.000
  33.820         23.33	     5.292
  33.840         19.17	     4.796
  33.860         15.83	     4.359
  33.880         19.17	     4.796
  33.900         18.33	     4.690
  33.920         20.00	     4.899
  33.940         20.00	     4.899
  33.960         25.00	     5.477
  33.980         23.33	     5.292
  34.000         21.67	     5.099
  34.020         22.50	     5.196
  34.040         25.83	     5.568
  34.060         23.33	     5.292
  34.080         39.17	     6.856
  34.100         45.00	     7.348
  34.120         43.33	     7.211
  34.140         52.50	     7.937
  34.160         55.83	     8.185
  34.180         38.33	     6.782
  34.200         61.67	     8.602
  34.220         30.00	     6.000
  34.240         40.83	     7.000
  34.260         25.00	     5.477
  34.280         31.67	     6.164
  34.300         23.33	     5.292
  34.320         25.00	     5.477
  34.340         27.50	     5.745
  34.360         29.17	     5.916
  34.380         20.00	     4.899
  34.400         22.50	     5.196
  34.420         20.00	     4.899
  34.440         16.67	     4.472
  34.460         14.17	     4.123
  34.480         26.67	     5.657
  34.500         20.00	     4.899
  34.520         21.67	     5.099
  34.540         15.00	     4.243
  34.560         20.83	     5.000
  34.580         20.00	     4.899
  34.600         21.67	     5.099
  34.620         25.83	     5.568
  34.640         25.00	     5.477
  34.660         19.17	     4.796
  34.680         19.17	     4.796
  34.700         32.50	     6.245
  34.720         13.33	     4.000
  34.740         20.00	     4.899
  34.760         23.33	     5.292
  34.780         25.83	     5.568
  34.800         18.33	     4.690
  34.820         25.83	     5.568
  34.840         22.50	     5.196
  34.860         24.17	     5.385
  34.880         27.50	     5.745
  34.900         25.83	     5.568
  34.920         28.33	     5.831
  34.940         26.67	     5.657
  34.960         16.67	     4.472
  34.980         19.17	     4.796
  35.000         25.00	     5.477
  35.020         20.00	     4.899
  35.040         31.67	     6.164
  35.060         30.83	     6.083
  35.080         24.17	     5.385
  35.100         36.67	     6.633
  35.120         32.50	     6.245
  35.140         53.33	     8.000
  35.160         46.67	     7.483
  35.180         21.67	     5.099
  35.200         35.83	     6.557
  35.220         44.17	     7.280
  35.240         35.83	     6.557
  35.260         30.00	     6.000
  35.280         30.00	     6.000
  35.300         35.83	     6.557
  35.320         28.33	     5.831
  35.340         25.83	     5.568
  35.360         33.33	     6.325
  35.380         45.83	     7.416
  35.400         28.33	     5.831
  35.420         32.50	     6.245
  35.440         32.50	     6.245
  35.460         35.00	     6.481
  35.480         34.17	     6.403
  35.500         42.50	     7.141
  35.520         25.83	     5.568
  35.540         35.00	     6.481
  35.560         31.67	     6.164
  35.580         33.33	     6.325
  35.600         28.33	     5.831
  35.620         17.50	     4.583
  35.640         20.00	     4.899
  35.660         27.50	     5.745
  35.680         34.17	     6.403
  35.700         25.83	     5.568
  35.720         35.00	     6.481
  35.740         27.50	     5.745
  35.760         34.17	     6.403
  35.780         36.67	     6.633
  35.800         43.33	     7.211
  35.820         46.67	     7.483
  35.840         55.00	     8.124
  35.860         61.67	     8.602
  35.880         62.50	     8.660
  35.900         56.67	     8.246
  35.920         61.67	     8.602
  35.940         60.00	     8.485
  35.960         56.67	     8.246
  35.980         46.67	     7.483
  36.000         51.67	     7.874
  36.020         45.00	     7.348
  36.040         46.67	     7.483
  36.060         45.83	     7.416
  36.080         38.33	     6.782
  36.100         26.67	     5.657
  36.120         25.83	     5.568
  36.140         32.50	     6.245
  36.160         38.33	     6.782
  36.180         34.17	     6.403
  36.200         42.50	     7.141
  36.220         49.17	     7.681
  36.240         57.50	     8.307
  36.260         69.17	     9.110
  36.280         63.33	     8.718
  36.300         65.83	     8.888
  36.320         54.17	     8.062
  36.340         62.50	     8.660
  36.360         53.33	     8.000
  36.380         47.50	     7.550
  36.400         48.33	     7.616
  36.420         32.50	     6.245
  36.440         46.67	     7.483
  36.460         32.50	     6.245
  36.480         40.83	     7.000
  36.500         27.50	     5.745
  36.520         32.50	     6.245
  36.540         25.83	     5.568
  36.560         42.50	     7.141
  36.580         25.83	     5.568
  36.600         35.00	     6.481
  36.620         32.50	     6.245
  36.640         34.17	     6.403
  36.660         33.33	     6.325
  36.680         26.67	     5.657
  36.700         27.50	     5.745
  36.720         22.50	     5.196
  36.740         25.00	     5.477
  36.760         35.00	     6.481
  36.780         31.67	     6.164
  36.800         35.00	     6.481
  36.820         31.67	     6.164
  36.840         23.33	     5.292
  36.860         20.00	     4.899
  36.880         39.17	     6.856
  36.900         31.67	     6.164
  36.920         33.33	     6.325
  36.940         30.83	     6.083
  36.960         29.17	     5.916
  36.980         40.00	     6.928
  37.000         40.00	     6.928
  37.020         48.33	     7.616
  37.040         37.50	     6.708
  37.060         35.00	     6.481
  37.080         50.00	     7.746
  37.100         34.17	     6.403
  37.120         41.67	     7.071
  37.140         29.17	     5.916
  37.160         38.33	     6.782
  37.180         35.83	     6.557
  37.200         22.50	     5.196
  37.220         34.17	     6.403
  37.240         37.50	     6.708
  37.260         37.50	     6.708
  37.280         40.00	     6.928
  37.300         37.50	     6.708
  37.320         36.67	     6.633
  37.340         38.33	     6.782
  37.360         41.67	     7.071
  37.380         40.83	     7.000
  37.400         35.83	     6.557
  37.420         45.00	     7.348
  37.440         40.83	     7.000
  37.460         40.83	     7.000
  37.480         49.17	     7.681
  37.500         46.67	     7.483
  37.520         45.83	     7.416
  37.540         33.33	     6.325
  37.560         45.83	     7.416
  37.580         49.17	     7.681
  37.600         71.67	     9.274
  37.620         73.33	     9.381
  37.640         76.67	     9.592
  37.660         65.83	     8.888
  37.680        119.17	    11.958
  37.700        143.33	    13.115
  37.720        145.00	    13.191
  37.740        175.00	    14.491
  37.760        218.33	    16.186
  37.780        270.83	    18.028
  37.800        320.00	    19.596
  37.820        445.00	    23.108
  37.840        745.00	    29.900
  37.860       1165.83	    37.403
  37.880       1700.83	    45.177
  37.900       2222.50	    51.643
  37.920       2751.67	    57.463
  37.940       3037.50	    60.374
  37.960       3360.00	    63.498
  37.980       3196.67	    61.935
  38.000       2789.17	    57.853
  38.020       2403.33	    53.703
  38.040       2219.17	    51.604
  38.060       1983.33	    48.785
  38.080       1549.17	    43.116
  38.100       1151.67	    37.175
  38.120        775.83	    30.512
  38.140        608.33	    27.019
  38.160        375.83	    21.237
  38.180        275.00	    18.166
  38.200        205.00	    15.684
  38.220        170.83	    14.318
  38.240        117.50	    11.874
  38.260         93.33	    10.583
  38.280         76.67	     9.592
  38.300         62.50	     8.660
  38.320         80.83	     9.849
  38.340         60.00	     8.485
  38.360         67.50	     9.000
  38.380         55.00	     8.124
  38.400         43.33	     7.211
  38.420         38.33	     6.782
  38.440         36.67	     6.633
  38.460         50.83	     7.810
  38.480         49.17	     7.681
  38.500         40.83	     7.000
  38.520         39.17	     6.856
  38.540         34.17	     6.403
  38.560         38.33	     6.782
  38.580         34.17	     6.403
  38.600         38.33	     6.782
  38.620         35.83	     6.557
  38.640         30.00	     6.000
  38.660         24.17	     5.385
  38.680         33.33	     6.325
  38.700         30.00	     6.000
  38.720         31.67	     6.164
  38.740         32.50	     6.245
  38.760         31.67	     6.164
  38.780         35.83	     6.557
  38.800         32.50	     6.245
  38.820         32.50	     6.245
  38.840         30.00	     6.000
  38.860         28.33	     5.831
  38.880         30.83	     6.083
  38.900         19.17	     4.796
  38.920         27.50	     5.745
  38.940         27.50	     5.745
  38.960         33.33	     6.325
  38.980         31.67	     6.164
  39.000         32.50	     6.245
  39.020         22.50	     5.196
  39.040         32.50	     6.245
  39.060         23.33	     5.292
  39.080         28.33	     5.831
  39.100         27.50	     5.745
  39.120         27.50	     5.745
  39.140         23.33	     5.292
  39.160         29.17	     5.916
  39.180         24.17	     5.385
  39.200         36.67	     6.633
  39.220         25.00	     5.477
  39.240         27.50	     5.745
  39.260         29.17	     5.916
  39.280         27.50	     5.745
  39.300         33.33	     6.325
  39.320         35.00	     6.481
  39.340         29.17	     5.916
  39.360         40.83	     7.000
  39.380         26.67	     5.657
  39.400         25.83	     5.568
  39.420         32.50	     6.245
  39.440         34.17	     6.403
  39.460         25.00	     5.477
  39.480         25.83	     5.568
  39.500         20.00	     4.899
  39.520         22.50	     5.196
  39.540         30.83	     6.083
  39.560         32.50	     6.245
  39.580         29.17	     5.916
  39.600         26.67	     5.657
  39.620         37.50	     6.708
  39.640         52.50	     7.937
  39.660         36.67	     6.633
  39.680         32.50	     6.245
  39.700         44.17	     7.280
  39.720         39.17	     6.856
  39.740         36.67	     6.633
  39.760         42.50	     7.141
  39.780         35.00	     6.481
  39.800         25.00	     5.477
  39.820         25.00	     5.477
  39.840         26.67	     5.657
  39.860         28.33	     5.831
  39.880         35.83	     6.557
  39.900         33.33	     6.325
  39.920         20.83	     5.000
  39.940         20.83	     5.000
  39.960         22.50	     5.196
  39.980         18.33	     4.690
  40.000         25.83	     5.568
  40.020         19.17	     4.796
  40.040         25.00	     5.477
  40.060         22.50	     5.196
  40.080         28.33	     5.831
  40.100         23.33	     5.292
  40.120         35.83	     6.557
  40.140         30.83	     6.083
  40.160         21.67	     5.099
  40.180         27.50	     5.745
  40.200         24.17	     5.385
  40.220         30.83	     6.083
  40.240         22.50	     5.196
  40.260         25.00	     5.477
  40.280         29.17	     5.916
  40.300         17.50	     4.583
  40.320         25.83	     5.568
  40.340         22.50	     5.196
  40.360         28.33	     5.831
  40.380         15.83	     4.359
  40.400         15.83	     4.359
  40.420         17.50	     4.583
  40.440         23.33	     5.292
  40.460         15.83	     4.359
  40.480         15.00	     4.243
  40.500         24.17	     5.385
  40.520         19.17	     4.796
  40.540         30.83	     6.083
  40.560         30.00	     6.000
  40.580         28.33	     5.831
  40.600         25.83	     5.568
  40.620         26.67	     5.657
  40.640         25.00	     5.477
  40.660         20.00	     4.899
  40.680         21.67	     5.099
  40.700         23.33	     5.292
  40.720         22.50	     5.196
  40.740         21.67	     5.099
  40.760         32.50	     6.245
  40.780         28.33	     5.831
  40.800         27.50	     5.745
  40.820         21.67	     5.099
  40.840         17.50	     4.583
  40.860         22.50	     5.196
  40.880         25.83	     5.568
  40.900         16.67	     4.472
  40.920         21.67	     5.099
  40.940         14.17	     4.123
  40.960         26.67	     5.657
  40.980         21.67	     5.099
  41.000         19.17	     4.796
  41.020         22.50	     5.196
  41.040         20.83	     5.000
  41.060         14.17	     4.123
  41.080         35.83	     6.557
  41.100         21.67	     5.099
  41.120         26.67	     5.657
  41.140         15.83	     4.359
  41.160         17.50	     4.583
  41.180         17.50	     4.583
  41.200         15.83	     4.359
  41.220         22.50	     5.196
  41.240         24.17	     5.385
  41.260         25.83	     5.568
  41.280         21.67	     5.099
  41.300         15.83	     4.359
  41.320         14.17	     4.123
  41.340         21.67	     5.099
  41.360         16.67	     4.472
  41.380         27.50	     5.745
  41.400         19.17	     4.796
  41.420         17.50	     4.583
  41.440         25.83	     5.568
  41.460         22.50	     5.196
  41.480         25.83	     5.568
  41.500         22.50	     5.196
  41.520         21.67	     5.099
  41.540         22.50	     5.196
  41.560         23.33	     5.292
  41.580         26.67	     5.657
  41.600         29.17	     5.916
  41.620         21.67	     5.099
  41.640         24.17	     5.385
  41.660         24.17	     5.385
  41.680         25.00	     5.477
  41.700         23.33	     5.292
  41.720         25.00	     5.477
  41.740         30.00	     6.000
  41.760         16.67	     4.472
  41.780         25.00	     5.477
  41.800         12.50	     3.873
  41.820         19.17	     4.796
  41.840         26.67	     5.657
  41.860         24.17	     5.385
  41.880         20.00	     4.899
  41.900         20.00	     4.899
  41.920         23.33	     5.292
  41.940         18.33	     4.690
  41.960         13.33	     4.000
  41.980         24.17	     5.385
  42.000         18.33	     4.690
  42.020         30.00	     6.000
  42.040         22.50	     5.196
  42.060         23.33	     5.292
  42.080         29.17	     5.916
  42.100         35.83	     6.557
  42.120         33.33	     6.325
  42.140         35.83	     6.557
  42.160         41.67	     7.071
  42.180         40.83	     7.000
  42.200         42.50	     7.141
  42.220         43.33	     7.211
  42.240         43.33	     7.211
  42.260         36.67	     6.633
  42.280         28.33	     5.831
  42.300         33.33	     6.325
  42.320         30.00	     6.000
  42.340         25.83	     5.568
  42.360         25.83	     5.568
  42.380         30.00	     6.000
  42.400         32.50	     6.245
  42.420         22.50	     5.196
  42.440         38.33	     6.782
  42.460         20.00	     4.899
  42.480         27.50	     5.745
  42.500         30.00	     6.000
  42.520         23.33	     5.292
  42.540         23.33	     5.292
  42.560         19.17	     4.796
  42.580         25.00	     5.477
  42.600         18.33	     4.690
  42.620         20.83	     5.000
  42.640         30.00	     6.000
  42.660         15.83	     4.359
  42.680         26.67	     5.657
  42.700         25.00	     5.477
  42.720         20.00	     4.899
  42.740         20.00	     4.899
  42.760         25.83	     5.568
  42.780         27.50	     5.745
  42.800         22.50	     5.196
  42.820         15.83	     4.359
  42.840         15.83	     4.359
  42.860         20.00	     4.899
  42.880         24.17	     5.385
  42.900         24.17	     5.385
  42.920         20.00	     4.899
  42.940         23.33	     5.292
  42.960         30.83	     6.083
  42.980         17.50	     4.583
  43.000         30.83	     6.083
  43.020         16.67	     4.472
  43.040         15.00	     4.243
  43.060         20.00	     4.899
  43.080         22.50	     5.196
  43.100         16.67	     4.472
  43.120         23.33	     5.292
  43.140         23.33	     5.292
  43.160         20.83	     5.000
  43.180         23.33	     5.292
  43.200         22.50	     5.196
  43.220         20.00	     4.899
  43.240         26.67	     5.657
  43.260         20.83	     5.000
  43.280         31.67	     6.164
  43.300         28.33	     5.831
  43.320         20.00	     4.899
  43.340         26.67	     5.657
  43.360         25.00	     5.477
  43.380         30.83	     6.083
  43.400         25.83	     5.568
  43.420         30.00	     6.000
  43.440         23.33	     5.292
  43.460         32.50	     6.245
  43.480         28.33	     5.831
  43.500         22.50	     5.196
  43.520         29.17	     5.916
  43.540         27.50	     5.745
  43.560         30.00	     6.000
  43.580         36.67	     6.633
  43.600         25.83	     5.568
  43.620         26.67	     5.657
  43.640         25.83	     5.568
  43.660         45.00	     7.348
  43.680         40.83	     7.000
  43.700         33.33	     6.325
  43.720         38.33	     6.782
  43.740         47.50	     7.550
  43.760         35.00	     6.481
  43.780         42.50	     7.141
  43.800         56.67	     8.246
  43.820         64.17	     8.775
  43.840         76.67	     9.592
  43.860         89.17	    10.344
  43.880         91.67	    10.488
  43.900        110.83	    11.533
  43.920        119.17	    11.958
  43.940        163.33	    14.000
  43.960        179.17	    14.663
  43.980        205.00	    15.684
  44.000        258.33	    17.607
  44.020        343.33	    20.298
  44.040        547.50	    25.632
  44.060        740.83	    29.816
  44.080       1125.83	    36.756
  44.100       1408.33	    41.110
  44.120       1453.33	    41.761
  44.140       1271.67	    39.064
  44.160       1164.17	    37.376
  44.180       1210.00	    38.105
  44.200       1310.00	    39.648
  44.220       1170.00	    37.470
  44.240        966.67	    34.059
  44.260        870.83	    32.326
  44.280        605.00	    26.944
  44.300        540.83	    25.475
  44.320        487.50	    24.187
  44.340        371.67	    21.119
  44.360        264.17	    17.804
  44.380        185.00	    14.900
  44.400        133.33	    12.649
  44.420        116.67	    11.832
  44.440         99.17	    10.909
  44.460         80.83	     9.849
  44.480         63.33	     8.718
  44.500         53.33	     8.000
  44.520         60.83	     8.544
  44.540         42.50	     7.141
  44.560         40.83	     7.000
  44.580         44.17	     7.280
  44.600         44.17	     7.280
  44.620         48.33	     7.616
  44.640         42.50	     7.141
  44.660         41.67	     7.071
  44.680         59.17	     8.426
  44.700         40.00	     6.928
  44.720         24.17	     5.385
  44.740         39.17	     6.856
  44.760         29.17	     5.916
  44.780         35.83	     6.557
  44.800         49.17	     7.681
  44.820         41.67	     7.071
  44.840         25.00	     5.477
  44.860         28.33	     5.831
  44.880         28.33	     5.831
  44.900         25.83	     5.568
  44.920         33.33	     6.325
  44.940         32.50	     6.245
  44.960         30.00	     6.000
  44.980         34.17	     6.403
  45.000         35.00	     6.481
  45.020         30.00	     6.000
  45.040         27.50	     5.745
  45.060         20.00	     4.899
  45.080         25.83	     5.568
  45.100         36.67	     6.633
  45.120         31.67	     6.164
  45.140         35.83	     6.557
  45.160         40.83	     7.000
  45.180         39.17	     6.856
  45.200         51.67	     7.874
  45.220         66.67	     8.944
  45.240         67.50	     9.000
  45.260         95.00	    10.677
  45.280        105.00	    11.225
  45.300        152.50	    13.528
  45.320        161.67	    13.928
  45.340        152.50	    13.528
  45.360        180.83	    14.731
  45.380        179.17	    14.663
  45.400        180.00	    14.697
  45.420        190.00	    15.100
  45.440        190.00	    15.100
  45.460        173.33	    14.422
  45.480        135.83	    12.767
  45.500        133.33	    12.649
  45.520        141.67	    13.038
  45.540         85.00	    10.100
  45.560         95.00	    10.677
  45.580         68.33	     9.055
  45.600         52.50	     7.937
  45.620         51.67	     7.874
  45.640         52.50	     7.937
  45.660         49.17	     7.681
  45.680         57.50	     8.307
  45.700         43.33	     7.211
  45.720         37.50	     6.708
  45.740         51.67	     7.874
  45.760         50.00	     7.746
  45.780         55.83	     8.185
  45.800         53.33	     8.000
  45.820         35.83	     6.557
  45.840         37.50	     6.708
  45.860         35.00	     6.481
  45.880         35.00	     6.481
  45.900         29.17	     5.916
  45.920         29.17	     5.916
  45.940         26.67	     5.657
  45.960         22.50	     5.196
  45.980         15.83	     4.359
  46.000         29.17	     5.916
  46.020         16.67	     4.472
  46.040         17.50	     4.583
  46.060         20.00	     4.899
  46.080         22.50	     5.196
  46.100         12.50	     3.873
  46.120         14.17	     4.123
  46.140         16.67	     4.472
  46.160         15.00	     4.243
  46.180         23.33	     5.292
  46.200         12.50	     3.873
  46.220         16.67	     4.472
  46.240         17.50	     4.583
  46.260          8.33	     3.162
  46.280         12.50	     3.873
  46.300          5.83	     2.646
  46.320         17.50	     4.583
  46.340         22.50	     5.196
  46.360         20.00	     4.899
  46.380         10.83	     3.606
  46.400         10.00	     3.464
  46.420         15.83	     4.359
  46.440         15.83	     4.359
  46.460         20.83	     5.000
  46.480         15.83	     4.359
  46.500         18.33	     4.690
  46.520         16.67	     4.472
  46.540         17.50	     4.583
  46.560         16.67	     4.472
  46.580         18.33	     4.690
  46.600         16.67	     4.472
  46.620         21.67	     5.099
  46.640         17.50	     4.583
  46.660         22.50	     5.196
  46.680         22.50	     5.196
  46.700         11.67	     3.742
  46.720          8.33	     3.162
  46.740         22.50	     5.196
  46.760         16.67	     4.472
  46.780         10.83	     3.606
  46.800         13.33	     4.000
  46.820         11.67	     3.742
  46.840         10.83	     3.606
  46.860         25.83	     5.568
  46.880         14.17	     4.123
  46.900         23.33	     5.292
  46.920         19.17	     4.796
  46.940         27.50	     5.745
  46.960         28.33	     5.831
  46.980         29.17	     5.916
  47.000         32.50	     6.245
  47.020         43.33	     7.211
  47.040         30.00	     6.000
  47.060         23.33	     5.292
  47.080         22.50	     5.196
  47.100         25.83	     5.568
  47.120         13.33	     4.000
  47.140         24.17	     5.385
  47.160         25.00	     5.477
  47.180         23.33	     5.292
  47.200         19.17	     4.796
  47.220         13.33	     4.000
  47.240         14.17	     4.123
  47.260         25.00	     5.477
  47.280         19.17	     4.796
  47.300         10.83	     3.606
  47.320          8.33	     3.162
  47.340         10.00	     3.464
  47.360         14.17	     4.123
  47.380         16.67	     4.472
  47.400         15.83	     4.359
  47.420         11.67	     3.742
  47.440         16.67	     4.472
  47.460         10.83	     3.606
  47.480         10.00	     3.464
  47.500         11.67	     3.742
  47.520         15.00	     4.243
  47.540          9.17	     3.317
  47.560         18.33	     4.690
  47.580         10.83	     3.606
  47.600         15.00	     4.243
  47.620         15.83	     4.359
  47.640         13.33	     4.000
  47.660         10.83	     3.606
  47.680         12.50	     3.873
  47.700         10.83	     3.606
  47.720         15.00	     4.243
  47.740          5.00	     2.449
  47.760         19.17	     4.796
  47.780         16.67	     4.472
  47.800         12.50	     3.873
  47.820         20.83	     5.000
  47.840         13.33	     4.000
  47.860         16.67	     4.472
  47.880         14.17	     4.123
  47.900         20.83	     5.000
  47.920         16.67	     4.472
  47.940         16.67	     4.472
  47.960         18.33	     4.690
  47.980         20.00	     4.899
  48.000         18.33	     4.690
  48.020         14.17	     4.123
  48.040         16.67	     4.472
  48.060         14.17	     4.123
  48.080         18.33	     4.690
  48.100         14.17	     4.123
  48.120         12.50	     3.873
  48.140         11.67	     3.742
  48.160         12.50	     3.873
  48.180         19.17	     4.796
  48.200         13.33	     4.000
  48.220         15.83	     4.359
  48.240         12.50	     3.873
  48.260         13.33	     4.000
  48.280         12.50	     3.873
  48.300         13.33	     4.000
  48.320         15.83	     4.359
  48.340         11.67	     3.742
  48.360         16.67	     4.472
  48.380         18.33	     4.690
  48.400         15.83	     4.359
  48.420          8.33	     3.162
  48.440         12.50	     3.873
  48.460         17.50	     4.583
  48.480         22.50	     5.196
  48.500         14.17	     4.123
  48.520         12.50	     3.873
  48.540         19.17	     4.796
  48.560         14.17	     4.123
  48.580          9.17	     3.317
  48.600         10.83	     3.606
  48.620         19.17	     4.796
  48.640         18.33	     4.690
  48.660         15.00	     4.243
  48.680         13.33	     4.000
  48.700         15.83	     4.359
  48.720         19.17	     4.796
  48.740         15.83	     4.359
  48.760         15.00	     4.243
  48.780         20.83	     5.000
  48.800         16.67	     4.472
  48.820         22.50	     5.196
  48.840         21.67	     5.099
  48.860         23.33	     5.292
  48.880         20.00	     4.899
  48.900         18.33	     4.690
  48.920         16.67	     4.472
  48.940         14.17	     4.123
  48.960         13.33	     4.000
  48.980         16.67	     4.472
  49.000         15.00	     4.243
  49.020         13.33	     4.000
  49.040         15.83	     4.359
  49.060         11.67	     3.742
  49.080         12.50	     3.873
  49.100         18.33	     4.690
  49.120         16.67	     4.472
  49.140         17.50	     4.583
  49.160         17.50	     4.583
  49.180         13.33	     4.000
  49.200         10.00	     3.464
  49.220         16.67	     4.472
  49.240         11.67	     3.742
  49.260         14.17	     4.123
  49.280         12.50	     3.873
  49.300         17.50	     4.583
  49.320          9.17	     3.317
  49.340         14.17	     4.123
  49.360         10.83	     3.606
  49.380         16.67	     4.472
  49.400         16.67	     4.472
  49.420         12.50	     3.873
  49.440         10.83	     3.606
  49.460         12.50	     3.873
  49.480          5.83	     2.646
  49.500         15.83	     4.359
  49.520         13.33	     4.000
  49.540         12.50	     3.873
  49.560         10.83	     3.606
  49.580         12.50	     3.873
  49.600         14.17	     4.123
  49.620          6.67	     2.828
  49.640         20.83	     5.000
  49.660          8.33	     3.162
  49.680         12.50	     3.873
  49.700         13.33	     4.000
  49.720         13.33	     4.000
  49.740         12.50	     3.873
  49.760         14.17	     4.123
  49.780         14.17	     4.123
  49.800         14.17	     4.123
  49.820         15.83	     4.359
  49.840         15.83	     4.359
  49.860         15.00	     4.243
  49.880         20.83	     5.000
  49.900         19.17	     4.796
  49.920         25.00	     5.477
  49.940         33.33	     6.325
  49.960         30.83	     6.083
  49.980         24.17	     5.385
  50.000         18.33	     4.690
  50.020         24.17	     5.385
  50.040         23.33	     5.292
  50.060         31.67	     6.164
  50.080         45.00	     7.348
  50.100         38.33	     6.782
  50.120         41.67	     7.071
  50.140         36.67	     6.633
  50.160         42.50	     7.141
  50.180         44.17	     7.280
  50.200         47.50	     7.550
  50.220         31.67	     6.164
  50.240         43.33	     7.211
  50.260         25.83	     5.568
  50.280         25.00	     5.477
  50.300         27.50	     5.745
  50.320         29.17	     5.916
  50.340         17.50	     4.583
  50.360         17.50	     4.583
  50.380         20.83	     5.000
  50.400         20.83	     5.000
  50.420         14.17	     4.123
  50.440         11.67	     3.742
  50.460         17.50	     4.583
  50.480         14.17	     4.123
  50.500         12.50	     3.873
  50.520         15.83	     4.359
  50.540         20.83	     5.000
  50.560          8.33	     3.162
  50.580          9.17	     3.317
  50.600          9.17	     3.317
  50.620         10.00	     3.464
  50.640         17.50	     4.583
  50.660         16.67	     4.472
  50.680         15.83	     4.359
  50.700         13.33	     4.000
  50.720         14.17	     4.123
  50.740          8.33	     3.162
  50.760         10.00	     3.464
  50.780         10.83	     3.606
  50.800         15.00	     4.243
  50.820         10.00	     3.464
  50.840         16.67	     4.472
  50.860         15.00	     4.243
  50.880          8.33	     3.162
  50.900         12.50	     3.873
  50.920         16.67	     4.472
  50.940         10.83	     3.606
  50.960          7.50	     3.000
  50.980          5.00	     2.449
  51.000          7.50	     3.000
  51.020         15.00	     4.243
  51.040          8.33	     3.162
  51.060          7.50	     3.000
  51.080          5.00	     2.449
  51.100         13.33	     4.000
  51.120         12.50	     3.873
  51.140         10.83	     3.606
  51.160         15.00	     4.243
  51.180         10.00	     3.464
  51.200         11.67	     3.742
  51.220         10.83	     3.606
  51.240         13.33	     4.000
  51.260         10.00	     3.464
  51.280         10.83	     3.606
  51.300          7.50	     3.000
  51.320         11.67	     3.742
  51.340          5.00	     2.449
  51.360          9.17	     3.317
  51.380         10.83	     3.606
  51.400          8.33	     3.162
  51.420          9.17	     3.317
  51.440          6.67	     2.828
  51.460         13.33	     4.000
  51.480          7.50	     3.000
  51.500          7.50	     3.000
  51.520          9.17	     3.317
  51.540          3.33	     2.000
  51.560         10.00	     3.464
  51.580         10.00	     3.464
  51.600          7.50	     3.000
  51.620         13.33	     4.000
  51.640          9.17	     3.317
  51.660          9.17	     3.317
  51.680         12.50	     3.873
  51.700         10.83	     3.606
  51.720          7.50	     3.000
  51.740          6.67	     2.828
  51.760          5.83	     2.646
  51.780         13.33	     4.000
  51.800         10.00	     3.464
  51.820         10.00	     3.464
  51.840          5.83	     2.646
  51.860         11.67	     3.742
  51.880         10.83	     3.606
  51.900         10.83	     3.606
  51.920         14.17	     4.123
  51.940          9.17	     3.317
  51.960         12.50	     3.873
  51.980         11.67	     3.742
  52.000         10.00	     3.464
  52.020          8.33	     3.162
  52.040         13.33	     4.000
  52.060         10.83	     3.606
  52.080         14.17	     4.123
  52.100          6.67	     2.828
  52.120         11.67	     3.742
  52.140         10.83	     3.606
  52.160         11.67	     3.742
  52.180         12.50	     3.873
  52.200         10.83	     3.606
  52.220         10.83	     3.606
  52.240          5.00	     2.449
  52.260         10.83	     3.606
  52.280          4.17	     2.236
  52.300         10.83	     3.606
  52.320         10.83	     3.606
  52.340          5.83	     2.646
  52.360          7.50	     3.000
  52.380          9.17	     3.317
  52.400         10.83	     3.606
  52.420          9.17	     3.317
  52.440          5.83	     2.646
  52.460         12.50	     3.873
  52.480         11.67	     3.742
  52.500         10.83	     3.606
  52.520          4.17	     2.236
  52.540         16.67	     4.472
  52.560         10.83	     3.606
  52.580         15.83	     4.359
  52.600         10.00	     3.464
  52.620          9.17	     3.317
  52.640          8.33	     3.162
  52.660         12.50	     3.873
  52.680          8.33	     3.162
  52.700         12.50	     3.873
  52.720         11.67	     3.742
  52.740          8.33	     3.162
  52.760         10.00	     3.464
  52.780         14.17	     4.123
  52.800         10.00	     3.464
  52.820         11.67	     3.742
  52.840         12.50	     3.873
  52.860          5.83	     2.646
  52.880         10.83	     3.606
  52.900         11.67	     3.742
  52.920         10.00	     3.464
  52.940          8.33	     3.162
  52.960         10.83	     3.606
  52.980          8.33	     3.162
  53.000          7.50	     3.000
  53.020          6.67	     2.828
  53.040          6.67	     2.828
  53.060          3.33	     2.000
  53.080         12.50	     3.873
  53.100         11.67	     3.742
  53.120          9.17	     3.317
  53.140         18.33	     4.690
  53.160          8.33	     3.162
  53.180         11.67	     3.742
  53.200         10.83	     3.606
  53.220         12.50	     3.873
  53.240          9.17	     3.317
  53.260          9.17	     3.317
  53.280          9.17	     3.317
  53.300          9.17	     3.317
  53.320          7.50	     3.000
  53.340          8.33	     3.162
  53.360          3.33	     2.000
  53.380          9.17	     3.317
  53.400          7.50	     3.000
  53.420          7.50	     3.000
  53.440          7.50	     3.000
  53.460          5.83	     2.646
  53.480          9.17	     3.317
  53.500         10.83	     3.606
  53.520          9.17	     3.317
  53.540         10.00	     3.464
  53.560         13.33	     4.000
  53.580          7.50	     3.000
  53.600         15.00	     4.243
  53.620          6.67	     2.828
  53.640          7.50	     3.000
  53.660          5.83	     2.646
  53.680         10.83	     3.606
  53.700         13.33	     4.000
  53.720         13.33	     4.000
  53.740          9.17	     3.317
  53.760          3.33	     2.000
  53.780          8.33	     3.162
  53.800          5.83	     2.646
  53.820         15.00	     4.243
  53.840         13.33	     4.000
  53.860         16.67	     4.472
  53.880         15.00	     4.243
  53.900         12.50	     3.873
  53.920         10.00	     3.464
  53.940         15.00	     4.243
  53.960         12.50	     3.873
  53.980         13.33	     4.000
  54.000         13.33	     4.000
  54.020         14.17	     4.123
  54.040          7.50	     3.000
  54.060         15.00	     4.243
  54.080          6.67	     2.828
  54.100          7.50	     3.000
  54.120         10.83	     3.606
  54.140         10.83	     3.606
  54.160         10.83	     3.606
  54.180         10.00	     3.464
  54.200         13.33	     4.000
  54.220         10.00	     3.464
  54.240          5.00	     2.449
  54.260         13.33	     4.000
  54.280         10.83	     3.606
  54.300         10.83	     3.606
  54.320         10.83	     3.606
  54.340         10.83	     3.606
  54.360         10.83	     3.606
  54.380          8.33	     3.162
  54.400         10.00	     3.464
  54.420         10.00	     3.464
  54.440         11.67	     3.742
  54.460         10.83	     3.606
  54.480         10.83	     3.606
  54.500          6.67	     2.828
  54.520          6.67	     2.828
  54.540          8.33	     3.162
  54.560         12.50	     3.873
  54.580         13.33	     4.000
  54.600         13.33	     4.000
  54.620          5.00	     2.449
  54.640         10.00	     3.464
  54.660         17.50	     4.583
  54.680         25.00	     5.477
  54.700         16.67	     4.472
  54.720         22.50	     5.196
  54.740         16.67	     4.472
  54.760         12.50	     3.873
  54.780         16.67	     4.472
  54.800         15.83	     4.359
  54.820         15.00	     4.243
  54.840         21.67	     5.099
  54.860         15.83	     4.359
  54.880         15.00	     4.243
  54.900         15.83	     4.359
  54.920         10.83	     3.606
  54.940         10.83	     3.606
  54.960         15.00	     4.243
  54.980          9.17	     3.317
  55.000         15.83	     4.359
  55.020         11.67	     3.742
  55.040         10.00	     3.464
  55.060         10.00	     3.464
  55.080          8.33	     3.162
  55.100         14.17	     4.123
  55.120          5.00	     2.449
  55.140         13.33	     4.000
  55.160         15.83	     4.359
  55.180         12.50	     3.873
  55.200         11.67	     3.742
  55.220         15.00	     4.243
  55.240         14.17	     4.123
  55.260         16.67	     4.472
  55.280         13.33	     4.000
  55.300         10.00	     3.464
  55.320         10.83	     3.606
  55.340          8.33	     3.162
  55.360         10.83	     3.606
  55.380         14.17	     4.123
  55.400         10.00	     3.464
  55.420         10.83	     3.606
  55.440          6.67	     2.828
  55.460         10.00	     3.464
  55.480          9.17	     3.317
  55.500          7.50	     3.000
  55.520         13.33	     4.000
  55.540          8.33	     3.162
  55.560         15.00	     4.243
  55.580         11.67	     3.742
  55.600         13.33	     4.000
  55.620         11.67	     3.742
  55.640         10.00	     3.464
  55.660          9.17	     3.317
  55.680         12.50	     3.873
  55.700          6.67	     2.828
  55.720         11.67	     3.742
  55.740         10.83	     3.606
  55.760          5.83	     2.646
  55.780         11.67	     3.742
  55.800         10.83	     3.606
  55.820          6.67	     2.828
  55.840         11.67	     3.742
  55.860         10.00	     3.464
  55.880         13.33	     4.000
  55.900          8.33	     3.162
  55.920          9.17	     3.317
  55.940         10.00	     3.464
  55.960         10.00	     3.464
  55.980         11.67	     3.742
  56.000          6.67	     2.828
  56.020          8.33	     3.162
  56.040         10.00	     3.464
  56.060         12.50	     3.873
  56.080          8.33	     3.162
  56.100         10.83	     3.606
  56.120          8.33	     3.162
  56.140          6.67	     2.828
  56.160         12.50	     3.873
  56.180          8.33	     3.162
  56.200          7.50	     3.000
  56.220          7.50	     3.000
  56.240          8.33	     3.162
  56.260          9.17	     3.317
  56.280         10.83	     3.606
  56.300          9.17	     3.317
  56.320          4.17	     2.236
  56.340         11.67	     3.742
  56.360          7.50	     3.000
  56.380         13.33	     4.000
  56.400         11.67	     3.742
  56.420          8.33	     3.162
  56.440         10.00	     3.464
  56.460          8.33	     3.162
  56.480          8.33	     3.162
  56.500          4.17	     2.236
  56.520          2.50	     1.732
  56.540         12.50	     3.873
  56.560         11.67	     3.742
  56.580          8.33	     3.162
  56.600          6.67	     2.828
  56.620          5.83	     2.646
  56.640          6.67	     2.828
  56.660          9.17	     3.317
  56.680          9.17	     3.317
  56.700          9.17	     3.317
  56.720          9.17	     3.317
  56.740          5.83	     2.646
  56.760         10.00	     3.464
  56.780          9.17	     3.317
  56.800          9.17	     3.317
  56.820         10.83	     3.606
  56.840         12.50	     3.873
  56.860         15.00	     4.243
  56.880         11.67	     3.742
  56.900          8.33	     3.162
  56.920          6.67	     2.828
  56.940         10.83	     3.606
  56.960         10.00	     3.464
  56.980         10.00	     3.464
  57.000          9.17	     3.317
  57.020          7.50	     3.000
  57.040         12.50	     3.873
  57.060         13.33	     4.000
  57.080         13.33	     4.000
  57.100          9.17	     3.317
  57.120          5.83	     2.646
  57.140          8.33	     3.162
  57.160         12.50	     3.873
  57.180          9.17	     3.317
  57.200         12.50	     3.873
  57.220         11.67	     3.742
  57.240         12.50	     3.873
  57.260          7.50	     3.000
  57.280         10.83	     3.606
  57.300          7.50	     3.000
  57.320         10.83	     3.606
  57.340         10.83	     3.606
  57.360         15.00	     4.243
  57.380         18.33	     4.690
  57.400         27.50	     5.745
  57.420         20.83	     5.000
  57.440         17.50	     4.583
  57.460         20.83	     5.000
  57.480         10.00	     3.464
  57.500         12.50	     3.873
  57.520         19.17	     4.796
  57.540         20.00	     4.899
  57.560         12.50	     3.873
  57.580         13.33	     4.000
  57.600         12.50	     3.873
  57.620         13.33	     4.000
  57.640         10.83	     3.606
  57.660         11.67	     3.742
  57.680         10.83	     3.606
  57.700          5.00	     2.449
  57.720         10.00	     3.464
  57.740         10.00	     3.464
  57.760          7.50	     3.000
  57.780          9.17	     3.317
  57.800         10.83	     3.606
  57.820          6.67	     2.828
  57.840         10.83	     3.606
  57.860         11.67	     3.742
  57.880          9.17	     3.317
  57.900         10.00	     3.464
  57.920         13.33	     4.000
  57.940         15.00	     4.243
  57.960         11.67	     3.742
  57.980          8.33	     3.162
  58.000          7.50	     3.000
  58.020          7.50	     3.000
  58.040         10.83	     3.606
  58.060          4.17	     2.236
  58.080          8.33	     3.162
  58.100         12.50	     3.873
  58.120         18.33	     4.690
  58.140          7.50	     3.000
  58.160          7.50	     3.000
  58.180         15.00	     4.243
  58.200          5.83	     2.646
  58.220         14.17	     4.123
  58.240         10.00	     3.464
  58.260         11.67	     3.742
  58.280          8.33	     3.162
  58.300         12.50	     3.873
  58.320         10.00	     3.464
  58.340         11.67	     3.742
  58.360         13.33	     4.000
  58.380          6.67	     2.828
  58.400         14.17	     4.123
  58.420         14.17	     4.123
  58.440         10.83	     3.606
  58.460         12.50	     3.873
  58.480         11.67	     3.742
  58.500         12.50	     3.873
  58.520         12.50	     3.873
  58.540         13.33	     4.000
  58.560         10.83	     3.606
  58.580         15.00	     4.243
  58.600         10.83	     3.606
  58.620         13.33	     4.000
  58.640         10.83	     3.606
  58.660          9.17	     3.317
  58.680          9.17	     3.317
  58.700         15.00	     4.243
  58.720         10.00	     3.464
  58.740         10.83	     3.606
  58.760         13.33	     4.000
  58.780          9.17	     3.317
  58.800         10.83	     3.606
  58.820         12.50	     3.873
  58.840         10.83	     3.606
  58.860         14.17	     4.123
  58.880         11.67	     3.742
  58.900         10.83	     3.606
  58.920         12.50	     3.873
  58.940         15.83	     4.359
  58.960          9.17	     3.317
  58.980          5.83	     2.646
  59.000         10.83	     3.606
  59.020         12.50	     3.873
  59.040         11.67	     3.742
  59.060         12.50	     3.873
  59.080         14.17	     4.123
  59.100         20.00	     4.899
  59.120         14.17	     4.123
  59.140          7.50	     3.000
  59.160         10.83	     3.606
  59.180         13.33	     4.000
  59.200          6.67	     2.828
  59.220         11.67	     3.742
  59.240         10.83	     3.606
  59.260         10.00	     3.464
  59.280         13.33	     4.000
  59.300         15.00	     4.243
  59.320         10.00	     3.464
  59.340         16.67	     4.472
  59.360         10.83	     3.606
  59.380         12.50	     3.873
  59.400          6.67	     2.828
  59.420          9.17	     3.317
  59.440         10.00	     3.464
  59.460          7.50	     3.000
  59.480         10.83	     3.606
  59.500         11.67	     3.742
  59.520         15.00	     4.243
  59.540         10.00	     3.464
  59.560          5.00	     2.449
  59.580          9.17	     3.317
  59.600          9.17	     3.317
  59.620         10.83	     3.606
  59.640         10.83	     3.606
  59.660         14.17	     4.123
  59.680         12.50	     3.873
  59.700         11.67	     3.742
  59.720         15.83	     4.359
  59.740         14.17	     4.123
  59.760         16.67	     4.472
  59.780         25.00	     5.477
  59.800         22.50	     5.196
  59.820         14.17	     4.123
  59.840         16.67	     4.472
  59.860         17.50	     4.583
  59.880         15.83	     4.359
  59.900         11.67	     3.742
  59.920          9.17	     3.317
  59.940         15.00	     4.243
  59.960         20.00	     4.899
  59.980         15.83	     4.359
  60.000         12.50	     3.873
  60.020         13.33	     4.000
  60.040         12.50	     3.873
  60.060         14.17	     4.123
  60.080          4.17	     2.236
  60.100          6.67	     2.828
  60.120         11.67	     3.742
  60.140         10.00	     3.464
  60.160         10.83	     3.606
  60.180         10.00	     3.464
  60.200          9.17	     3.317
  60.220          9.17	     3.317
  60.240         10.00	     3.464
  60.260         18.33	     4.690
  60.280         12.50	     3.873
  60.300         10.00	     3.464
  60.320         11.67	     3.742
  60.340         10.00	     3.464
  60.360          9.17	     3.317
  60.380         10.00	     3.464
  60.400         13.33	     4.000
  60.420         15.00	     4.243
  60.440          9.17	     3.317
  60.460         10.00	     3.464
  60.480         14.17	     4.123
  60.500          7.50	     3.000
  60.520          8.33	     3.162
  60.540         11.67	     3.742
  60.560         10.00	     3.464
  60.580          5.00	     2.449
  60.600         10.83	     3.606
  60.620         11.67	     3.742
  60.640         20.00	     4.899
  60.660         16.67	     4.472
  60.680         11.67	     3.742
  60.700         13.33	     4.000
  60.720         21.67	     5.099
  60.740         16.67	     4.472
  60.760         17.50	     4.583
  60.780         15.83	     4.359
  60.800         12.50	     3.873
  60.820          6.67	     2.828
  60.840         16.67	     4.472
  60.860         10.83	     3.606
  60.880          8.33	     3.162
  60.900         13.33	     4.000
  60.920         10.83	     3.606
  60.940         10.83	     3.606
  60.960         13.33	     4.000
  60.980         13.33	     4.000
  61.000         13.33	     4.000
  61.020         11.67	     3.742
  61.040         21.67	     5.099
  61.060         14.17	     4.123
  61.080         15.83	     4.359
  61.100         14.17	     4.123
  61.120         12.50	     3.873
  61.140         15.00	     4.243
  61.160         17.50	     4.583
  61.180         15.83	     4.359
  61.200         20.83	     5.000
  61.220         18.33	     4.690
  61.240         25.83	     5.568
  61.260         17.50	     4.583
  61.280         28.33	     5.831
  61.300         29.17	     5.916
  61.320         20.00	     4.899
  61.340         19.17	     4.796
  61.360         30.83	     6.083
  61.380         15.83	     4.359
  61.400         14.17	     4.123
  61.420         10.83	     3.606
  61.440         15.00	     4.243
  61.460         10.83	     3.606
  61.480         14.17	     4.123
  61.500          9.17	     3.317
  61.520         18.33	     4.690
  61.540         15.00	     4.243
  61.560         20.83	     5.000
  61.580         16.67	     4.472
  61.600         15.83	     4.359
  61.620         15.83	     4.359
  61.640         10.00	     3.464
  61.660         11.67	     3.742
  61.680          9.17	     3.317
  61.700         10.83	     3.606
  61.720         10.83	     3.606
  61.740         15.83	     4.359
  61.760         18.33	     4.690
  61.780         13.33	     4.000
  61.800         21.67	     5.099
  61.820         18.33	     4.690
  61.840         12.50	     3.873
  61.860         15.00	     4.243
  61.880         12.50	     3.873
  61.900         13.33	     4.000
  61.920         10.83	     3.606
  61.940         10.00	     3.464
  61.960         15.83	     4.359
  61.980          5.83	     2.646
  62.000         14.17	     4.123
  62.020         10.83	     3.606
  62.040         10.83	     3.606
  62.060          8.33	     3.162
  62.080         14.17	     4.123
  62.100         15.00	     4.243
  62.120         10.83	     3.606
  62.140         15.00	     4.243
  62.160         10.00	     3.464
  62.180          9.17	     3.317
  62.200         14.17	     4.123
  62.220          8.33	     3.162
  62.240          7.50	     3.000
  62.260         10.83	     3.606
  62.280          8.33	     3.162
  62.300         10.00	     3.464
  62.320         10.83	     3.606
  62.340         10.00	     3.464
  62.360         15.83	     4.359
  62.380          8.33	     3.162
  62.400         10.83	     3.606
  62.420         12.50	     3.873
  62.440         15.83	     4.359
  62.460         11.67	     3.742
  62.480         18.33	     4.690
  62.500         17.50	     4.583
  62.520         10.00	     3.464
  62.540         13.33	     4.000
  62.560         15.00	     4.243
  62.580         13.33	     4.000
  62.600         19.17	     4.796
  62.620          8.33	     3.162
  62.640         15.00	     4.243
  62.660         12.50	     3.873
  62.680         15.00	     4.243
  62.700         13.33	     4.000
  62.720         14.17	     4.123
  62.740         12.50	     3.873
  62.760         16.67	     4.472
  62.780         10.00	     3.464
  62.800         10.00	     3.464
  62.820         11.67	     3.742
  62.840          6.67	     2.828
  62.860          8.33	     3.162
  62.880         14.17	     4.123
  62.900         17.50	     4.583
  62.920          7.50	     3.000
  62.940         11.67	     3.742
  62.960          8.33	     3.162
  62.980         15.00	     4.243
  63.000         13.33	     4.000
  63.020         12.50	     3.873
  63.040         18.33	     4.690
  63.060         16.67	     4.472
  63.080         15.00	     4.243
  63.100         10.83	     3.606
  63.120         15.83	     4.359
  63.140         12.50	     3.873
  63.160          8.33	     3.162
  63.180         15.00	     4.243
  63.200         13.33	     4.000
  63.220         18.33	     4.690
  63.240         15.00	     4.243
  63.260         15.83	     4.359
  63.280         10.00	     3.464
  63.300         19.17	     4.796
  63.320         13.33	     4.000
  63.340         10.00	     3.464
  63.360         16.67	     4.472
  63.380         15.83	     4.359
  63.400         12.50	     3.873
  63.420         12.50	     3.873
  63.440         13.33	     4.000
  63.460         12.50	     3.873
  63.480         16.67	     4.472
  63.500         15.83	     4.359
  63.520         20.83	     5.000
  63.540         14.17	     4.123
  63.560         19.17	     4.796
  63.580         19.17	     4.796
  63.600         20.00	     4.899
  63.620         10.83	     3.606
  63.640         21.67	     5.099
  63.660         28.33	     5.831
  63.680         14.17	     4.123
  63.700         20.83	     5.000
  63.720         16.67	     4.472
  63.740         22.50	     5.196
  63.760         21.67	     5.099
  63.780         20.00	     4.899
  63.800         21.67	     5.099
  63.820         30.83	     6.083
  63.840         18.33	     4.690
  63.860         28.33	     5.831
  63.880         34.17	     6.403
  63.900         26.67	     5.657
  63.920         38.33	     6.782
  63.940         45.83	     7.416
  63.960         39.17	     6.856
  63.980         58.33	     8.367
  64.000         57.50	     8.307
  64.020         62.50	     8.660
  64.040         71.67	     9.274
  64.060         73.33	     9.381
  64.080         98.33	    10.863
  64.100        100.00	    10.954
  64.120        114.17	    11.705
  64.140        139.17	    12.923
  64.160        205.00	    15.684
  64.180        240.00	    16.971
  64.200        328.33	    19.849
  64.220        524.17	    25.080
  64.240        767.50	    30.348
  64.260        975.00	    34.205
  64.280       1035.00	    35.242
  64.300        940.00	    33.586
  64.320        706.67	    29.120
  64.340        586.67	    26.533
  64.360        430.83	    22.738
  64.380        415.83	    22.338
  64.400        425.83	    22.605
  64.420        529.17	    25.199
  64.440        603.33	    26.907
  64.460        605.00	    26.944
  64.480        551.67	    25.729
  64.500        408.33	    22.136
  64.520        311.67	    19.339
  64.540        247.50	    17.234
  64.560        159.17	    13.820
  64.580        126.67	    12.329
  64.600         90.83	    10.440
  64.620         75.00	     9.487
  64.640         70.00	     9.165
  64.660         52.50	     7.937
  64.680         55.00	     8.124
  64.700         47.50	     7.550
  64.720         40.00	     6.928
  64.740         35.00	     6.481
  64.760         29.17	     5.916
  64.780         34.17	     6.403
  64.800         30.83	     6.083
  64.820         25.83	     5.568
  64.840         25.00	     5.477
  64.860         22.50	     5.196
  64.880         20.00	     4.899
  64.900         34.17	     6.403
  64.920         24.17	     5.385
  64.940         18.33	     4.690
  64.960         25.83	     5.568
  64.980         20.83	     5.000
  65.000         23.33	     5.292
