
Filename:
	C:\Program Files\Thermo Electron\WinXRD\Datafiles\F_HERMAN\FIEN\28_7_12_08_2_FILTER.raw

File Created:
	January 08, 2019 - 12:15 PM

Specimen Id:
	28/7 12:08 2 FILTER

Specimen Name:
	

Specimen Description:
	

Comment:
Scan Type: 2Theta Scan
Start Angle: 1 deg.
Stop Angle: 65 deg.
Num Points: 3201
Step Size: 0.02 deg.
Scan Rate: 1.000000
Scan Mode: Continuous
Wavelength: 1.540562
\Kalpha1: 1.540562	\Kalpha2: 1.544390	\Kbeta: 1.392218

Optics:
		Detector:
			 Type: Fixed Slits
		Tube: 
			 Type: Fixed Slits


Datas:
 Pos [deg]       Rate [CPS]      ESD [-]

Range 1 ---> Iteration 1
   1.000       1101.67	    36.359
   1.020        656.67	    28.071
   1.040        775.00	    30.496
   1.060        676.67	    28.496
   1.080        567.50	    26.096
   1.100        585.00	    26.495
   1.120        410.83	    22.204
   1.140        420.83	    22.472
   1.160        463.33	    23.580
   1.180        498.33	    24.454
   1.200        422.50	    22.517
   1.220        365.00	    20.928
   1.240        369.17	    21.048
   1.260        470.83	    23.770
   1.280        496.67	    24.413
   1.300        615.00	    27.166
   1.320        723.33	    29.462
   1.340        905.83	    32.970
   1.360       1091.67	    36.194
   1.380       1283.33	    39.243
   1.400       1400.00	    40.988
   1.420       1400.00	    40.988
   1.440       1280.83	    39.205
   1.460       1230.00	    38.419
   1.480       1217.50	    38.223
   1.500       1303.33	    39.547
   1.520       1193.33	    37.842
   1.540       1111.67	    36.524
   1.560       1118.33	    36.633
   1.580       1054.17	    35.567
   1.600       1013.33	    34.871
   1.620        957.50	    33.897
   1.640        910.83	    33.061
   1.660        889.17	    32.665
   1.680        844.17	    31.828
   1.700        773.33	    30.463
   1.720        731.67	    29.631
   1.740        661.67	    28.178
   1.760        667.50	    28.302
   1.780        574.17	    26.249
   1.800        544.17	    25.554
   1.820        558.33	    25.884
   1.840        529.17	    25.199
   1.860        545.00	    25.573
   1.880        488.33	    24.207
   1.900        485.83	    24.145
   1.920        480.83	    24.021
   1.940        486.67	    24.166
   1.960        429.17	    22.694
   1.980        457.50	    23.431
   2.000        424.17	    22.561
   2.020        479.17	    23.979
   2.040        415.83	    22.338
   2.060        414.17	    22.293
   2.080        415.83	    22.338
   2.100        441.67	    23.022
   2.120        411.67	    22.226
   2.140        419.17	    22.428
   2.160        428.33	    22.672
   2.180        430.83	    22.738
   2.200        352.50	    20.567
   2.220        380.00	    21.354
   2.240        375.00	    21.213
   2.260        357.50	    20.712
   2.280        360.83	    20.809
   2.300        338.33	    20.149
   2.320        355.00	    20.640
   2.340        338.33	    20.149
   2.360        343.33	    20.298
   2.380        345.00	    20.347
   2.400        332.50	    19.975
   2.420        312.50	    19.365
   2.440        322.50	    19.672
   2.460        325.83	    19.774
   2.480        362.50	    20.857
   2.500        335.00	    20.050
   2.520        320.83	    19.621
   2.540        332.50	    19.975
   2.560        333.33	    20.000
   2.580        304.17	    19.105
   2.600        327.50	    19.824
   2.620        299.17	    18.947
   2.640        320.83	    19.621
   2.660        312.50	    19.365
   2.680        299.17	    18.947
   2.700        291.67	    18.708
   2.720        283.33	    18.439
   2.740        301.67	    19.026
   2.760        299.17	    18.947
   2.780        283.33	    18.439
   2.800        274.17	    18.138
   2.820        284.17	    18.466
   2.840        285.00	    18.493
   2.860        270.00	    18.000
   2.880        277.50	    18.248
   2.900        304.17	    19.105
   2.920        266.67	    17.889
   2.940        265.00	    17.833
   2.960        275.00	    18.166
   2.980        251.67	    17.378
   3.000        260.00	    17.664
   3.020        262.50	    17.748
   3.040        253.33	    17.436
   3.060        264.17	    17.804
   3.080        246.67	    17.205
   3.100        260.83	    17.692
   3.120        235.83	    16.823
   3.140        227.50	    16.523
   3.160        243.33	    17.088
   3.180        260.00	    17.664
   3.200        215.83	    16.093
   3.220        259.17	    17.635
   3.240        231.67	    16.673
   3.260        207.50	    15.780
   3.280        237.50	    16.882
   3.300        231.67	    16.673
   3.320        226.67	    16.492
   3.340        221.67	    16.310
   3.360        232.50	    16.703
   3.380        227.50	    16.523
   3.400        226.67	    16.492
   3.420        197.50	    15.395
   3.440        212.50	    15.969
   3.460        222.50	    16.340
   3.480        194.17	    15.264
   3.500        210.00	    15.875
   3.520        214.17	    16.031
   3.540        222.50	    16.340
   3.560        210.83	    15.906
   3.580        169.17	    14.248
   3.600        190.00	    15.100
   3.620        210.83	    15.906
   3.640        215.83	    16.093
   3.660        200.83	    15.524
   3.680        210.00	    15.875
   3.700        200.83	    15.524
   3.720        220.00	    16.248
   3.740        195.83	    15.330
   3.760        214.17	    16.031
   3.780        191.67	    15.166
   3.800        216.67	    16.125
   3.820        170.83	    14.318
   3.840        175.00	    14.491
   3.860        183.33	    14.832
   3.880        218.33	    16.186
   3.900        174.17	    14.457
   3.920        197.50	    15.395
   3.940        186.67	    14.967
   3.960        184.17	    14.866
   3.980        200.00	    15.492
   4.000        180.83	    14.731
   4.020        204.17	    15.652
   4.040        162.50	    13.964
   4.060        176.67	    14.560
   4.080        175.00	    14.491
   4.100        174.17	    14.457
   4.120        167.50	    14.177
   4.140        165.00	    14.071
   4.160        175.83	    14.526
   4.180        200.83	    15.524
   4.200        164.17	    14.036
   4.220        160.83	    13.892
   4.240        189.17	    15.067
   4.260        180.83	    14.731
   4.280        164.17	    14.036
   4.300        176.67	    14.560
   4.320        166.67	    14.142
   4.340        175.00	    14.491
   4.360        181.67	    14.765
   4.380        171.67	    14.353
   4.400        164.17	    14.036
   4.420        145.83	    13.229
   4.440        175.00	    14.491
   4.460        146.67	    13.266
   4.480        168.33	    14.213
   4.500        184.17	    14.866
   4.520        182.50	    14.799
   4.540        162.50	    13.964
   4.560        141.67	    13.038
   4.580        160.00	    13.856
   4.600        151.67	    13.491
   4.620        160.83	    13.892
   4.640        135.00	    12.728
   4.660        160.00	    13.856
   4.680        169.17	    14.248
   4.700        164.17	    14.036
   4.720        165.00	    14.071
   4.740        149.17	    13.379
   4.760        159.17	    13.820
   4.780        149.17	    13.379
   4.800        152.50	    13.528
   4.820        151.67	    13.491
   4.840        130.00	    12.490
   4.860        153.33	    13.565
   4.880        145.00	    13.191
   4.900        148.33	    13.342
   4.920        152.50	    13.528
   4.940        169.17	    14.248
   4.960        153.33	    13.565
   4.980        158.33	    13.784
   5.000        135.00	    12.728
   5.020        145.83	    13.229
   5.040        150.00	    13.416
   5.060        135.83	    12.767
   5.080        164.17	    14.036
   5.100        132.50	    12.610
   5.120        140.83	    13.000
   5.140        121.67	    12.083
   5.160        141.67	    13.038
   5.180        142.50	    13.077
   5.200        120.00	    12.000
   5.220        144.17	    13.153
   5.240        142.50	    13.077
   5.260        129.17	    12.450
   5.280        126.67	    12.329
   5.300        120.83	    12.042
   5.320        132.50	    12.610
   5.340        135.83	    12.767
   5.360        127.50	    12.369
   5.380        124.17	    12.207
   5.400        141.67	    13.038
   5.420        136.67	    12.806
   5.440        119.17	    11.958
   5.460        140.00	    12.961
   5.480        118.33	    11.916
   5.500        115.00	    11.747
   5.520        119.17	    11.958
   5.540        142.50	    13.077
   5.560        125.00	    12.247
   5.580        115.83	    11.790
   5.600        128.33	    12.410
   5.620        120.00	    12.000
   5.640        130.00	    12.490
   5.660        128.33	    12.410
   5.680        135.00	    12.728
   5.700        139.17	    12.923
   5.720        114.17	    11.705
   5.740        119.17	    11.958
   5.760        146.67	    13.266
   5.780        105.83	    11.269
   5.800        130.83	    12.530
   5.820        134.17	    12.689
   5.840        118.33	    11.916
   5.860        118.33	    11.916
   5.880        146.67	    13.266
   5.900        129.17	    12.450
   5.920        135.00	    12.728
   5.940        144.17	    13.153
   5.960        130.83	    12.530
   5.980        140.83	    13.000
   6.000        145.00	    13.191
   6.020        126.67	    12.329
   6.040        140.00	    12.961
   6.060        155.83	    13.675
   6.080        154.17	    13.601
   6.100        145.00	    13.191
   6.120        162.50	    13.964
   6.140        216.67	    16.125
   6.160        197.50	    15.395
   6.180        219.17	    16.217
   6.200        213.33	    16.000
   6.220        206.67	    15.748
   6.240        203.33	    15.620
   6.260        174.17	    14.457
   6.280        160.83	    13.892
   6.300        166.67	    14.142
   6.320        142.50	    13.077
   6.340        136.67	    12.806
   6.360        137.50	    12.845
   6.380        119.17	    11.958
   6.400        147.50	    13.304
   6.420        128.33	    12.410
   6.440        133.33	    12.649
   6.460        120.83	    12.042
   6.480        100.83	    11.000
   6.500        110.00	    11.489
   6.520        118.33	    11.916
   6.540        125.00	    12.247
   6.560        104.17	    11.180
   6.580        111.67	    11.576
   6.600        108.33	    11.402
   6.620        112.50	    11.619
   6.640        111.67	    11.576
   6.660        112.50	    11.619
   6.680        120.83	    12.042
   6.700        111.67	    11.576
   6.720        110.83	    11.533
   6.740        109.17	    11.446
   6.760        110.83	    11.533
   6.780         90.83	    10.440
   6.800        106.67	    11.314
   6.820        125.00	    12.247
   6.840         89.17	    10.344
   6.860        120.00	    12.000
   6.880         97.50	    10.817
   6.900        105.00	    11.225
   6.920        100.83	    11.000
   6.940         90.00	    10.392
   6.960        115.83	    11.790
   6.980         85.83	    10.149
   7.000        106.67	    11.314
   7.020        104.17	    11.180
   7.040        105.83	    11.269
   7.060        128.33	    12.410
   7.080        119.17	    11.958
   7.100         75.00	     9.487
   7.120        106.67	    11.314
   7.140         90.00	    10.392
   7.160        103.33	    11.136
   7.180         95.00	    10.677
   7.200        105.83	    11.269
   7.220        109.17	    11.446
   7.240        102.50	    11.091
   7.260         95.83	    10.724
   7.280         94.17	    10.630
   7.300        101.67	    11.045
   7.320         83.33	    10.000
   7.340        101.67	    11.045
   7.360        100.00	    10.954
   7.380         93.33	    10.583
   7.400         82.50	     9.950
   7.420         94.17	    10.630
   7.440        106.67	    11.314
   7.460         84.17	    10.050
   7.480        102.50	    11.091
   7.500         83.33	    10.000
   7.520         82.50	     9.950
   7.540         83.33	    10.000
   7.560        105.00	    11.225
   7.580         85.00	    10.100
   7.600         95.00	    10.677
   7.620         99.17	    10.909
   7.640         90.00	    10.392
   7.660         85.00	    10.100
   7.680         90.83	    10.440
   7.700        105.83	    11.269
   7.720         84.17	    10.050
   7.740         87.50	    10.247
   7.760        100.83	    11.000
   7.780        102.50	    11.091
   7.800         88.33	    10.296
   7.820         93.33	    10.583
   7.840         89.17	    10.344
   7.860         85.83	    10.149
   7.880         95.83	    10.724
   7.900         97.50	    10.817
   7.920         86.67	    10.198
   7.940         83.33	    10.000
   7.960         80.83	     9.849
   7.980         88.33	    10.296
   8.000         70.83	     9.220
   8.020         79.17	     9.747
   8.040         69.17	     9.110
   8.060         82.50	     9.950
   8.080         64.17	     8.775
   8.100         85.83	    10.149
   8.120         75.83	     9.539
   8.140         87.50	    10.247
   8.160         81.67	     9.899
   8.180         90.83	    10.440
   8.200         66.67	     8.944
   8.220         73.33	     9.381
   8.240         81.67	     9.899
   8.260         85.83	    10.149
   8.280         75.83	     9.539
   8.300         95.83	    10.724
   8.320         92.50	    10.536
   8.340         88.33	    10.296
   8.360         80.83	     9.849
   8.380         95.00	    10.677
   8.400         80.83	     9.849
   8.420         86.67	    10.198
   8.440         89.17	    10.344
   8.460         66.67	     8.944
   8.480         95.83	    10.724
   8.500         81.67	     9.899
   8.520         80.83	     9.849
   8.540         81.67	     9.899
   8.560         82.50	     9.950
   8.580         90.00	    10.392
   8.600         91.67	    10.488
   8.620         92.50	    10.536
   8.640        103.33	    11.136
   8.660        103.33	    11.136
   8.680        105.83	    11.269
   8.700        125.83	    12.288
   8.720        110.83	    11.533
   8.740        141.67	    13.038
   8.760        140.00	    12.961
   8.780        177.50	    14.595
   8.800        201.67	    15.556
   8.820        232.50	    16.703
   8.840        273.33	    18.111
   8.860        230.83	    16.643
   8.880        176.67	    14.560
   8.900        138.33	    12.884
   8.920        110.00	    11.489
   8.940         88.33	    10.296
   8.960         72.50	     9.327
   8.980         90.00	    10.392
   9.000         92.50	    10.536
   9.020         80.00	     9.798
   9.040         72.50	     9.327
   9.060         79.17	     9.747
   9.080         77.50	     9.644
   9.100         83.33	    10.000
   9.120         89.17	    10.344
   9.140        101.67	    11.045
   9.160         79.17	     9.747
   9.180         82.50	     9.950
   9.200         63.33	     8.718
   9.220         73.33	     9.381
   9.240         70.83	     9.220
   9.260         82.50	     9.950
   9.280         70.83	     9.220
   9.300         91.67	    10.488
   9.320         99.17	    10.909
   9.340         95.00	    10.677
   9.360         95.00	    10.677
   9.380         98.33	    10.863
   9.400         77.50	     9.644
   9.420         67.50	     9.000
   9.440         85.83	    10.149
   9.460         75.00	     9.487
   9.480         80.00	     9.798
   9.500         72.50	     9.327
   9.520         67.50	     9.000
   9.540         65.83	     8.888
   9.560         68.33	     9.055
   9.580         81.67	     9.899
   9.600         71.67	     9.274
   9.620         64.17	     8.775
   9.640         64.17	     8.775
   9.660         69.17	     9.110
   9.680         69.17	     9.110
   9.700         65.83	     8.888
   9.720         54.17	     8.062
   9.740         80.00	     9.798
   9.760         53.33	     8.000
   9.780         56.67	     8.246
   9.800         69.17	     9.110
   9.820         58.33	     8.367
   9.840         60.00	     8.485
   9.860         61.67	     8.602
   9.880         65.83	     8.888
   9.900         77.50	     9.644
   9.920         60.83	     8.544
   9.940         69.17	     9.110
   9.960         64.17	     8.775
   9.980         55.83	     8.185
  10.000         49.17	     7.681
  10.020         59.17	     8.426
  10.040         63.33	     8.718
  10.060         65.00	     8.832
  10.080         60.83	     8.544
  10.100         46.67	     7.483
  10.120         72.50	     9.327
  10.140         63.33	     8.718
  10.160         60.00	     8.485
  10.180         57.50	     8.307
  10.200         55.83	     8.185
  10.220         59.17	     8.426
  10.240         59.17	     8.426
  10.260         63.33	     8.718
  10.280         55.83	     8.185
  10.300         60.83	     8.544
  10.320         54.17	     8.062
  10.340         61.67	     8.602
  10.360         75.83	     9.539
  10.380         53.33	     8.000
  10.400         59.17	     8.426
  10.420         65.00	     8.832
  10.440         58.33	     8.367
  10.460         61.67	     8.602
  10.480         61.67	     8.602
  10.500         56.67	     8.246
  10.520         58.33	     8.367
  10.540         62.50	     8.660
  10.560         60.83	     8.544
  10.580         64.17	     8.775
  10.600         60.83	     8.544
  10.620         48.33	     7.616
  10.640         56.67	     8.246
  10.660         58.33	     8.367
  10.680         60.00	     8.485
  10.700         60.00	     8.485
  10.720         51.67	     7.874
  10.740         53.33	     8.000
  10.760         65.83	     8.888
  10.780         48.33	     7.616
  10.800         47.50	     7.550
  10.820         55.00	     8.124
  10.840         62.50	     8.660
  10.860         53.33	     8.000
  10.880         69.17	     9.110
  10.900         53.33	     8.000
  10.920         57.50	     8.307
  10.940         55.83	     8.185
  10.960         49.17	     7.681
  10.980         65.00	     8.832
  11.000         71.67	     9.274
  11.020         51.67	     7.874
  11.040         55.00	     8.124
  11.060         59.17	     8.426
  11.080         64.17	     8.775
  11.100         70.00	     9.165
  11.120         63.33	     8.718
  11.140         63.33	     8.718
  11.160         31.67	     6.164
  11.180         54.17	     8.062
  11.200         45.00	     7.348
  11.220         53.33	     8.000
  11.240         59.17	     8.426
  11.260         54.17	     8.062
  11.280         55.83	     8.185
  11.300         70.00	     9.165
  11.320         52.50	     7.937
  11.340         69.17	     9.110
  11.360         39.17	     6.856
  11.380         45.83	     7.416
  11.400         56.67	     8.246
  11.420         62.50	     8.660
  11.440         57.50	     8.307
  11.460         55.00	     8.124
  11.480         65.00	     8.832
  11.500         58.33	     8.367
  11.520         45.00	     7.348
  11.540         52.50	     7.937
  11.560         40.00	     6.928
  11.580         55.00	     8.124
  11.600         53.33	     8.000
  11.620         52.50	     7.937
  11.640         36.67	     6.633
  11.660         51.67	     7.874
  11.680         55.00	     8.124
  11.700         51.67	     7.874
  11.720         70.00	     9.165
  11.740         54.17	     8.062
  11.760         60.83	     8.544
  11.780         51.67	     7.874
  11.800         61.67	     8.602
  11.820         62.50	     8.660
  11.840         61.67	     8.602
  11.860         63.33	     8.718
  11.880         55.00	     8.124
  11.900         55.83	     8.185
  11.920         55.00	     8.124
  11.940         60.83	     8.544
  11.960         55.83	     8.185
  11.980         66.67	     8.944
  12.000         73.33	     9.381
  12.020         82.50	     9.950
  12.040         83.33	    10.000
  12.060        152.50	    13.528
  12.080        192.50	    15.199
  12.100        231.67	    16.673
  12.120        270.00	    18.000
  12.140        243.33	    17.088
  12.160        189.17	    15.067
  12.180        125.83	    12.288
  12.200         97.50	    10.817
  12.220         78.33	     9.695
  12.240         95.00	    10.677
  12.260        105.00	    11.225
  12.280         86.67	    10.198
  12.300        100.83	    11.000
  12.320         83.33	    10.000
  12.340         99.17	    10.909
  12.360        123.33	    12.166
  12.380        108.33	    11.402
  12.400        157.50	    13.748
  12.420        168.33	    14.213
  12.440        215.83	    16.093
  12.460        203.33	    15.620
  12.480        175.83	    14.526
  12.500        144.17	    13.153
  12.520        107.50	    11.358
  12.540         85.00	    10.100
  12.560         70.83	     9.220
  12.580         60.83	     8.544
  12.600         57.50	     8.307
  12.620         60.00	     8.485
  12.640         41.67	     7.071
  12.660         52.50	     7.937
  12.680         49.17	     7.681
  12.700         40.00	     6.928
  12.720         50.83	     7.810
  12.740         52.50	     7.937
  12.760         45.00	     7.348
  12.780         47.50	     7.550
  12.800         50.00	     7.746
  12.820         46.67	     7.483
  12.840         52.50	     7.937
  12.860         42.50	     7.141
  12.880         44.17	     7.280
  12.900         47.50	     7.550
  12.920         50.83	     7.810
  12.940         42.50	     7.141
  12.960         46.67	     7.483
  12.980         48.33	     7.616
  13.000         51.67	     7.874
  13.020         38.33	     6.782
  13.040         52.50	     7.937
  13.060         48.33	     7.616
  13.080         45.83	     7.416
  13.100         57.50	     8.307
  13.120         65.00	     8.832
  13.140         41.67	     7.071
  13.160         40.83	     7.000
  13.180         40.83	     7.000
  13.200         59.17	     8.426
  13.220         56.67	     8.246
  13.240         44.17	     7.280
  13.260         46.67	     7.483
  13.280         53.33	     8.000
  13.300         42.50	     7.141
  13.320         44.17	     7.280
  13.340         44.17	     7.280
  13.360         41.67	     7.071
  13.380         40.00	     6.928
  13.400         46.67	     7.483
  13.420         42.50	     7.141
  13.440         49.17	     7.681
  13.460         50.00	     7.746
  13.480         43.33	     7.211
  13.500         44.17	     7.280
  13.520         47.50	     7.550
  13.540         54.17	     8.062
  13.560         67.50	     9.000
  13.580         94.17	    10.630
  13.600         94.17	    10.630
  13.620         95.83	    10.724
  13.640         60.00	     8.485
  13.660         50.83	     7.810
  13.680         60.83	     8.544
  13.700         45.00	     7.348
  13.720         57.50	     8.307
  13.740         51.67	     7.874
  13.760         64.17	     8.775
  13.780         60.83	     8.544
  13.800         64.17	     8.775
  13.820         67.50	     9.000
  13.840         78.33	     9.695
  13.860         65.00	     8.832
  13.880         73.33	     9.381
  13.900         68.33	     9.055
  13.920         52.50	     7.937
  13.940         49.17	     7.681
  13.960         35.83	     6.557
  13.980         50.00	     7.746
  14.000         45.00	     7.348
  14.020         40.00	     6.928
  14.040         47.50	     7.550
  14.060         46.67	     7.483
  14.080         37.50	     6.708
  14.100         49.17	     7.681
  14.120         43.33	     7.211
  14.140         36.67	     6.633
  14.160         48.33	     7.616
  14.180         38.33	     6.782
  14.200         41.67	     7.071
  14.220         46.67	     7.483
  14.240         37.50	     6.708
  14.260         39.17	     6.856
  14.280         41.67	     7.071
  14.300         36.67	     6.633
  14.320         46.67	     7.483
  14.340         35.00	     6.481
  14.360         45.83	     7.416
  14.380         39.17	     6.856
  14.400         48.33	     7.616
  14.420         40.00	     6.928
  14.440         32.50	     6.245
  14.460         35.83	     6.557
  14.480         45.00	     7.348
  14.500         34.17	     6.403
  14.520         32.50	     6.245
  14.540         40.83	     7.000
  14.560         40.00	     6.928
  14.580         37.50	     6.708
  14.600         34.17	     6.403
  14.620         36.67	     6.633
  14.640         35.00	     6.481
  14.660         40.00	     6.928
  14.680         40.00	     6.928
  14.700         46.67	     7.483
  14.720         50.00	     7.746
  14.740         56.67	     8.246
  14.760         30.83	     6.083
  14.780         42.50	     7.141
  14.800         40.83	     7.000
  14.820         36.67	     6.633
  14.840         39.17	     6.856
  14.860         50.00	     7.746
  14.880         47.50	     7.550
  14.900         32.50	     6.245
  14.920         39.17	     6.856
  14.940         39.17	     6.856
  14.960         48.33	     7.616
  14.980         45.00	     7.348
  15.000         50.00	     7.746
  15.020         47.50	     7.550
  15.040         54.17	     8.062
  15.060         40.00	     6.928
  15.080         44.17	     7.280
  15.100         45.83	     7.416
  15.120         26.67	     5.657
  15.140         36.67	     6.633
  15.160         39.17	     6.856
  15.180         40.83	     7.000
  15.200         40.83	     7.000
  15.220         43.33	     7.211
  15.240         33.33	     6.325
  15.260         36.67	     6.633
  15.280         36.67	     6.633
  15.300         35.00	     6.481
  15.320         33.33	     6.325
  15.340         40.83	     7.000
  15.360         40.00	     6.928
  15.380         29.17	     5.916
  15.400         35.83	     6.557
  15.420         29.17	     5.916
  15.440         32.50	     6.245
  15.460         31.67	     6.164
  15.480         30.83	     6.083
  15.500         37.50	     6.708
  15.520         29.17	     5.916
  15.540         40.00	     6.928
  15.560         39.17	     6.856
  15.580         38.33	     6.782
  15.600         24.17	     5.385
  15.620         41.67	     7.071
  15.640         35.00	     6.481
  15.660         31.67	     6.164
  15.680         36.67	     6.633
  15.700         50.83	     7.810
  15.720         30.00	     6.000
  15.740         40.83	     7.000
  15.760         34.17	     6.403
  15.780         33.33	     6.325
  15.800         51.67	     7.874
  15.820         42.50	     7.141
  15.840         43.33	     7.211
  15.860         36.67	     6.633
  15.880         39.17	     6.856
  15.900         37.50	     6.708
  15.920         28.33	     5.831
  15.940         41.67	     7.071
  15.960         35.00	     6.481
  15.980         39.17	     6.856
  16.000         30.00	     6.000
  16.020         36.67	     6.633
  16.040         32.50	     6.245
  16.060         29.17	     5.916
  16.080         36.67	     6.633
  16.100         39.17	     6.856
  16.120         25.83	     5.568
  16.140         31.67	     6.164
  16.160         27.50	     5.745
  16.180         37.50	     6.708
  16.200         32.50	     6.245
  16.220         49.17	     7.681
  16.240         40.00	     6.928
  16.260         31.67	     6.164
  16.280         34.17	     6.403
  16.300         32.50	     6.245
  16.320         40.83	     7.000
  16.340         37.50	     6.708
  16.360         35.00	     6.481
  16.380         39.17	     6.856
  16.400         28.33	     5.831
  16.420         30.83	     6.083
  16.440         32.50	     6.245
  16.460         29.17	     5.916
  16.480         35.83	     6.557
  16.500         38.33	     6.782
  16.520         27.50	     5.745
  16.540         28.33	     5.831
  16.560         35.83	     6.557
  16.580         26.67	     5.657
  16.600         32.50	     6.245
  16.620         28.33	     5.831
  16.640         42.50	     7.141
  16.660         25.83	     5.568
  16.680         30.83	     6.083
  16.700         31.67	     6.164
  16.720         46.67	     7.483
  16.740         35.00	     6.481
  16.760         29.17	     5.916
  16.780         33.33	     6.325
  16.800         27.50	     5.745
  16.820         26.67	     5.657
  16.840         36.67	     6.633
  16.860         46.67	     7.483
  16.880         30.00	     6.000
  16.900         31.67	     6.164
  16.920         28.33	     5.831
  16.940         40.83	     7.000
  16.960         34.17	     6.403
  16.980         38.33	     6.782
  17.000         30.83	     6.083
  17.020         35.00	     6.481
  17.040         26.67	     5.657
  17.060         35.00	     6.481
  17.080         33.33	     6.325
  17.100         38.33	     6.782
  17.120         30.00	     6.000
  17.140         31.67	     6.164
  17.160         46.67	     7.483
  17.180         35.00	     6.481
  17.200         26.67	     5.657
  17.220         42.50	     7.141
  17.240         31.67	     6.164
  17.260         35.83	     6.557
  17.280         38.33	     6.782
  17.300         35.00	     6.481
  17.320         32.50	     6.245
  17.340         39.17	     6.856
  17.360         30.00	     6.000
  17.380         37.50	     6.708
  17.400         33.33	     6.325
  17.420         29.17	     5.916
  17.440         24.17	     5.385
  17.460         35.83	     6.557
  17.480         35.83	     6.557
  17.500         29.17	     5.916
  17.520         38.33	     6.782
  17.540         32.50	     6.245
  17.560         27.50	     5.745
  17.580         35.83	     6.557
  17.600         45.00	     7.348
  17.620         31.67	     6.164
  17.640         46.67	     7.483
  17.660         52.50	     7.937
  17.680         60.00	     8.485
  17.700         94.17	    10.630
  17.720         91.67	    10.488
  17.740         91.67	    10.488
  17.760        115.00	    11.747
  17.780        109.17	    11.446
  17.800         94.17	    10.630
  17.820         76.67	     9.592
  17.840         81.67	     9.899
  17.860         56.67	     8.246
  17.880         43.33	     7.211
  17.900         38.33	     6.782
  17.920         35.00	     6.481
  17.940         34.17	     6.403
  17.960         40.00	     6.928
  17.980         36.67	     6.633
  18.000         40.00	     6.928
  18.020         28.33	     5.831
  18.040         32.50	     6.245
  18.060         27.50	     5.745
  18.080         37.50	     6.708
  18.100         31.67	     6.164
  18.120         22.50	     5.196
  18.140         28.33	     5.831
  18.160         25.00	     5.477
  18.180         31.67	     6.164
  18.200         39.17	     6.856
  18.220         34.17	     6.403
  18.240         25.83	     5.568
  18.260         34.17	     6.403
  18.280         31.67	     6.164
  18.300         32.50	     6.245
  18.320         25.83	     5.568
  18.340         45.83	     7.416
  18.360         41.67	     7.071
  18.380         40.83	     7.000
  18.400         41.67	     7.071
  18.420         40.83	     7.000
  18.440         59.17	     8.426
  18.460         40.00	     6.928
  18.480         50.83	     7.810
  18.500         41.67	     7.071
  18.520         50.83	     7.810
  18.540         32.50	     6.245
  18.560         42.50	     7.141
  18.580         52.50	     7.937
  18.600         55.00	     8.124
  18.620         43.33	     7.211
  18.640         41.67	     7.071
  18.660         50.83	     7.810
  18.680         64.17	     8.775
  18.700         78.33	     9.695
  18.720         88.33	    10.296
  18.740         90.83	    10.440
  18.760        100.00	    10.954
  18.780         83.33	    10.000
  18.800         58.33	     8.367
  18.820         60.83	     8.544
  18.840         55.00	     8.124
  18.860         45.00	     7.348
  18.880         43.33	     7.211
  18.900         37.50	     6.708
  18.920         34.17	     6.403
  18.940         26.67	     5.657
  18.960         32.50	     6.245
  18.980         28.33	     5.831
  19.000         34.17	     6.403
  19.020         31.67	     6.164
  19.040         31.67	     6.164
  19.060         28.33	     5.831
  19.080         35.00	     6.481
  19.100         28.33	     5.831
  19.120         33.33	     6.325
  19.140         39.17	     6.856
  19.160         29.17	     5.916
  19.180         46.67	     7.483
  19.200         32.50	     6.245
  19.220         30.83	     6.083
  19.240         37.50	     6.708
  19.260         29.17	     5.916
  19.280         35.83	     6.557
  19.300         39.17	     6.856
  19.320         31.67	     6.164
  19.340         27.50	     5.745
  19.360         29.17	     5.916
  19.380         31.67	     6.164
  19.400         32.50	     6.245
  19.420         45.00	     7.348
  19.440         37.50	     6.708
  19.460         25.00	     5.477
  19.480         30.00	     6.000
  19.500         35.83	     6.557
  19.520         27.50	     5.745
  19.540         41.67	     7.071
  19.560         40.00	     6.928
  19.580         51.67	     7.874
  19.600         43.33	     7.211
  19.620         41.67	     7.071
  19.640         47.50	     7.550
  19.660         48.33	     7.616
  19.680         37.50	     6.708
  19.700         36.67	     6.633
  19.720         35.00	     6.481
  19.740         39.17	     6.856
  19.760         49.17	     7.681
  19.780         56.67	     8.246
  19.800         58.33	     8.367
  19.820         54.17	     8.062
  19.840         52.50	     7.937
  19.860         45.00	     7.348
  19.880         39.17	     6.856
  19.900         48.33	     7.616
  19.920         45.00	     7.348
  19.940         38.33	     6.782
  19.960         34.17	     6.403
  19.980         38.33	     6.782
  20.000         48.33	     7.616
  20.020         36.67	     6.633
  20.040         38.33	     6.782
  20.060         34.17	     6.403
  20.080         33.33	     6.325
  20.100         32.50	     6.245
  20.120         28.33	     5.831
  20.140         35.00	     6.481
  20.160         30.00	     6.000
  20.180         35.00	     6.481
  20.200         30.00	     6.000
  20.220         28.33	     5.831
  20.240         35.00	     6.481
  20.260         26.67	     5.657
  20.280         35.00	     6.481
  20.300         28.33	     5.831
  20.320         35.83	     6.557
  20.340         35.00	     6.481
  20.360         29.17	     5.916
  20.380         35.83	     6.557
  20.400         25.00	     5.477
  20.420         27.50	     5.745
  20.440         40.83	     7.000
  20.460         32.50	     6.245
  20.480         26.67	     5.657
  20.500         38.33	     6.782
  20.520         33.33	     6.325
  20.540         47.50	     7.550
  20.560         39.17	     6.856
  20.580         40.83	     7.000
  20.600         35.00	     6.481
  20.620         40.00	     6.928
  20.640         37.50	     6.708
  20.660         51.67	     7.874
  20.680         69.17	     9.110
  20.700         95.83	    10.724
  20.720        116.67	    11.832
  20.740        165.00	    14.071
  20.760        310.00	    19.287
  20.780        460.83	    23.516
  20.800        528.33	    25.179
  20.820        567.50	    26.096
  20.840        613.33	    27.129
  20.860        566.67	    26.077
  20.880        460.00	    23.495
  20.900        309.17	    19.261
  20.920        263.33	    17.776
  20.940        210.00	    15.875
  20.960        130.00	    12.490
  20.980        121.67	    12.083
  21.000         78.33	     9.695
  21.020         73.33	     9.381
  21.040         75.00	     9.487
  21.060         65.83	     8.888
  21.080         54.17	     8.062
  21.100         44.17	     7.280
  21.120         36.67	     6.633
  21.140         38.33	     6.782
  21.160         41.67	     7.071
  21.180         54.17	     8.062
  21.200         45.83	     7.416
  21.220         39.17	     6.856
  21.240         35.83	     6.557
  21.260         36.67	     6.633
  21.280         34.17	     6.403
  21.300         28.33	     5.831
  21.320         35.00	     6.481
  21.340         35.83	     6.557
  21.360         25.83	     5.568
  21.380         35.00	     6.481
  21.400         28.33	     5.831
  21.420         18.33	     4.690
  21.440         34.17	     6.403
  21.460         30.00	     6.000
  21.480         26.67	     5.657
  21.500         28.33	     5.831
  21.520         36.67	     6.633
  21.540         31.67	     6.164
  21.560         32.50	     6.245
  21.580         35.83	     6.557
  21.600         26.67	     5.657
  21.620         34.17	     6.403
  21.640         34.17	     6.403
  21.660         35.00	     6.481
  21.680         43.33	     7.211
  21.700         38.33	     6.782
  21.720         25.00	     5.477
  21.740         31.67	     6.164
  21.760         26.67	     5.657
  21.780         27.50	     5.745
  21.800         31.67	     6.164
  21.820         30.00	     6.000
  21.840         34.17	     6.403
  21.860         31.67	     6.164
  21.880         44.17	     7.280
  21.900         55.00	     8.124
  21.920         81.67	     9.899
  21.940        116.67	    11.832
  21.960        130.00	    12.490
  21.980        170.83	    14.318
  22.000        162.50	    13.964
  22.020        175.00	    14.491
  22.040        136.67	    12.806
  22.060         97.50	    10.817
  22.080         95.83	    10.724
  22.100         66.67	     8.944
  22.120         65.00	     8.832
  22.140         61.67	     8.602
  22.160         39.17	     6.856
  22.180         50.00	     7.746
  22.200         35.83	     6.557
  22.220         44.17	     7.280
  22.240         40.83	     7.000
  22.260         31.67	     6.164
  22.280         35.83	     6.557
  22.300         28.33	     5.831
  22.320         29.17	     5.916
  22.340         31.67	     6.164
  22.360         37.50	     6.708
  22.380         39.17	     6.856
  22.400         43.33	     7.211
  22.420         28.33	     5.831
  22.440         33.33	     6.325
  22.460         30.83	     6.083
  22.480         37.50	     6.708
  22.500         38.33	     6.782
  22.520         28.33	     5.831
  22.540         30.83	     6.083
  22.560         24.17	     5.385
  22.580         32.50	     6.245
  22.600         25.00	     5.477
  22.620         34.17	     6.403
  22.640         36.67	     6.633
  22.660         32.50	     6.245
  22.680         33.33	     6.325
  22.700         34.17	     6.403
  22.720         70.83	     9.220
  22.740        180.83	    14.731
  22.760        135.83	    12.767
  22.780         76.67	     9.592
  22.800        125.00	    12.247
  22.820         87.50	    10.247
  22.840         50.83	     7.810
  22.860         44.17	     7.280
  22.880         48.33	     7.616
  22.900         50.00	     7.746
  22.920         48.33	     7.616
  22.940         45.00	     7.348
  22.960         41.67	     7.071
  22.980         43.33	     7.211
  23.000         50.83	     7.810
  23.020         46.67	     7.483
  23.040         54.17	     8.062
  23.060         40.83	     7.000
  23.080         41.67	     7.071
  23.100         35.00	     6.481
  23.120         49.17	     7.681
  23.140         37.50	     6.708
  23.160         36.67	     6.633
  23.180         25.83	     5.568
  23.200         31.67	     6.164
  23.220         34.17	     6.403
  23.240         60.00	     8.485
  23.260         32.50	     6.245
  23.280         45.83	     7.416
  23.300         37.50	     6.708
  23.320         41.67	     7.071
  23.340         46.67	     7.483
  23.360         35.00	     6.481
  23.380         51.67	     7.874
  23.400         44.17	     7.280
  23.420         64.17	     8.775
  23.440         70.00	     9.165
  23.460         85.00	    10.100
  23.480         97.50	    10.817
  23.500         87.50	    10.247
  23.520         75.83	     9.539
  23.540         75.00	     9.487
  23.560         74.17	     9.434
  23.580         61.67	     8.602
  23.600         57.50	     8.307
  23.620         52.50	     7.937
  23.640         50.83	     7.810
  23.660         45.83	     7.416
  23.680         53.33	     8.000
  23.700         50.00	     7.746
  23.720         44.17	     7.280
  23.740         47.50	     7.550
  23.760         68.33	     9.055
  23.780         90.00	    10.392
  23.800        104.17	    11.180
  23.820         95.83	    10.724
  23.840         81.67	     9.899
  23.860         85.83	    10.149
  23.880         79.17	     9.747
  23.900         56.67	     8.246
  23.920         50.83	     7.810
  23.940         52.50	     7.937
  23.960         60.83	     8.544
  23.980         58.33	     8.367
  24.000         54.17	     8.062
  24.020         62.50	     8.660
  24.040         57.50	     8.307
  24.060         91.67	    10.488
  24.080        145.83	    13.229
  24.100        278.33	    18.276
  24.120        289.17	    18.628
  24.140        214.17	    16.031
  24.160        195.00	    15.297
  24.180        190.00	    15.100
  24.200        160.83	    13.892
  24.220        142.50	    13.077
  24.240        143.33	    13.115
  24.260        127.50	    12.369
  24.280        123.33	    12.166
  24.300        132.50	    12.610
  24.320        100.83	    11.000
  24.340         78.33	     9.695
  24.360         75.00	     9.487
  24.380         56.67	     8.246
  24.400         63.33	     8.718
  24.420         66.67	     8.944
  24.440         69.17	     9.110
  24.460         90.00	    10.392
  24.480         94.17	    10.630
  24.500        130.83	    12.530
  24.520        115.00	    11.747
  24.540        114.17	    11.705
  24.560        129.17	    12.450
  24.580        134.17	    12.689
  24.600        109.17	    11.446
  24.620        120.83	    12.042
  24.640         89.17	    10.344
  24.660         95.00	    10.677
  24.680         88.33	    10.296
  24.700         80.00	     9.798
  24.720         80.83	     9.849
  24.740         90.83	    10.440
  24.760         68.33	     9.055
  24.780         76.67	     9.592
  24.800         54.17	     8.062
  24.820         61.67	     8.602
  24.840         61.67	     8.602
  24.860         68.33	     9.055
  24.880         53.33	     8.000
  24.900         61.67	     8.602
  24.920         51.67	     7.874
  24.940         75.83	     9.539
  24.960         65.00	     8.832
  24.980         73.33	     9.381
  25.000         86.67	    10.198
  25.020         97.50	    10.817
  25.040        120.00	    12.000
  25.060        124.17	    12.207
  25.080        129.17	    12.450
  25.100        161.67	    13.928
  25.120        172.50	    14.387
  25.140        157.50	    13.748
  25.160        130.83	    12.530
  25.180        131.67	    12.570
  25.200        104.17	    11.180
  25.220         82.50	     9.950
  25.240         86.67	    10.198
  25.260         81.67	     9.899
  25.280         75.83	     9.539
  25.300         66.67	     8.944
  25.320         73.33	     9.381
  25.340         87.50	    10.247
  25.360         87.50	    10.247
  25.380         90.83	    10.440
  25.400         98.33	    10.863
  25.420        108.33	    11.402
  25.440        128.33	    12.410
  25.460        155.00	    13.638
  25.480        120.00	    12.000
  25.500        105.00	    11.225
  25.520        101.67	    11.045
  25.540        100.00	    10.954
  25.560         95.00	    10.677
  25.580         74.17	     9.434
  25.600         80.00	     9.798
  25.620         64.17	     8.775
  25.640         77.50	     9.644
  25.660         60.83	     8.544
  25.680         70.00	     9.165
  25.700         53.33	     8.000
  25.720         57.50	     8.307
  25.740         57.50	     8.307
  25.760         46.67	     7.483
  25.780         41.67	     7.071
  25.800         47.50	     7.550
  25.820         48.33	     7.616
  25.840         42.50	     7.141
  25.860         46.67	     7.483
  25.880         40.00	     6.928
  25.900         39.17	     6.856
  25.920         49.17	     7.681
  25.940         40.83	     7.000
  25.960         47.50	     7.550
  25.980         40.00	     6.928
  26.000         46.67	     7.483
  26.020         55.83	     8.185
  26.040         48.33	     7.616
  26.060         65.83	     8.888
  26.080         55.00	     8.124
  26.100         46.67	     7.483
  26.120         44.17	     7.280
  26.140         56.67	     8.246
  26.160         45.00	     7.348
  26.180         55.00	     8.124
  26.200         58.33	     8.367
  26.220         65.00	     8.832
  26.240         72.50	     9.327
  26.260         84.17	    10.050
  26.280         87.50	    10.247
  26.300        122.50	    12.124
  26.320        154.17	    13.601
  26.340        211.67	    15.937
  26.360        257.50	    17.578
  26.380        322.50	    19.672
  26.400        360.00	    20.785
  26.420        394.17	    21.749
  26.440        388.33	    21.587
  26.460        381.67	    21.401
  26.480        380.00	    21.354
  26.500        508.33	    24.698
  26.520        775.00	    30.496
  26.540       1742.50	    45.727
  26.560       2629.17	    56.169
  26.580       2684.17	    56.754
  26.600       2439.17	    54.102
  26.620       2648.33	    56.374
  26.640       2435.83	    54.065
  26.660       1763.33	    46.000
  26.680       1287.50	    39.306
  26.700        944.17	    33.660
  26.720        685.00	    28.671
  26.740        548.33	    25.652
  26.760        410.00	    22.181
  26.780        409.17	    22.159
  26.800        412.50	    22.249
  26.820        428.33	    22.672
  26.840        368.33	    21.024
  26.860        337.50	    20.125
  26.880        304.17	    19.105
  26.900        218.33	    16.186
  26.920        162.50	    13.964
  26.940        136.67	    12.806
  26.960        115.83	    11.790
  26.980         97.50	    10.817
  27.000         65.83	     8.888
  27.020         72.50	     9.327
  27.040         51.67	     7.874
  27.060         80.83	     9.849
  27.080         62.50	     8.660
  27.100         63.33	     8.718
  27.120         64.17	     8.775
  27.140         58.33	     8.367
  27.160         81.67	     9.899
  27.180         86.67	    10.198
  27.200         77.50	     9.644
  27.220         70.00	     9.165
  27.240         70.00	     9.165
  27.260         67.50	     9.000
  27.280         78.33	     9.695
  27.300         65.83	     8.888
  27.320         88.33	    10.296
  27.340         95.83	    10.724
  27.360        130.83	    12.530
  27.380        236.67	    16.852
  27.400        363.33	    20.881
  27.420        534.17	    25.318
  27.440        646.67	    27.857
  27.460        559.17	    25.904
  27.480        466.67	    23.664
  27.500        355.83	    20.664
  27.520        323.33	    19.698
  27.540        230.83	    16.643
  27.560        122.50	    12.124
  27.580        120.00	    12.000
  27.600        109.17	    11.446
  27.620        184.17	    14.866
  27.640        290.83	    18.682
  27.660        300.00	    18.974
  27.680        225.00	    16.432
  27.700        235.83	    16.823
  27.720        275.00	    18.166
  27.740        301.67	    19.026
  27.760        246.67	    17.205
  27.780        291.67	    18.708
  27.800        360.83	    20.809
  27.820        361.67	    20.833
  27.840        490.83	    24.269
  27.860        470.83	    23.770
  27.880        424.17	    22.561
  27.900        380.00	    21.354
  27.920        420.00	    22.450
  27.940        310.83	    19.313
  27.960        269.17	    17.972
  27.980        200.00	    15.492
  28.000        172.50	    14.387
  28.020        190.00	    15.100
  28.040        108.33	    11.402
  28.060        120.00	    12.000
  28.080         93.33	    10.583
  28.100         77.50	     9.644
  28.120         87.50	    10.247
  28.140        104.17	    11.180
  28.160         61.67	     8.602
  28.180         79.17	     9.747
  28.200         74.17	     9.434
  28.220         61.67	     8.602
  28.240         77.50	     9.644
  28.260         80.83	     9.849
  28.280         85.83	    10.149
  28.300         75.00	     9.487
  28.320         70.00	     9.165
  28.340         58.33	     8.367
  28.360         67.50	     9.000
  28.380         71.67	     9.274
  28.400         47.50	     7.550
  28.420         45.83	     7.416
  28.440         56.67	     8.246
  28.460         55.00	     8.124
  28.480         58.33	     8.367
  28.500         64.17	     8.775
  28.520         72.50	     9.327
  28.540         80.00	     9.798
  28.560         51.67	     7.874
  28.580         51.67	     7.874
  28.600         58.33	     8.367
  28.620         45.83	     7.416
  28.640         55.00	     8.124
  28.660         50.00	     7.746
  28.680         54.17	     8.062
  28.700         55.00	     8.124
  28.720         49.17	     7.681
  28.740         38.33	     6.782
  28.760         39.17	     6.856
  28.780         49.17	     7.681
  28.800         48.33	     7.616
  28.820         37.50	     6.708
  28.840         32.50	     6.245
  28.860         36.67	     6.633
  28.880         32.50	     6.245
  28.900         33.33	     6.325
  28.920         35.00	     6.481
  28.940         28.33	     5.831
  28.960         43.33	     7.211
  28.980         35.00	     6.481
  29.000         33.33	     6.325
  29.020         44.17	     7.280
  29.040         30.83	     6.083
  29.060         37.50	     6.708
  29.080         30.00	     6.000
  29.100         31.67	     6.164
  29.120         26.67	     5.657
  29.140         45.00	     7.348
  29.160         31.67	     6.164
  29.180         29.17	     5.916
  29.200         31.67	     6.164
  29.220         37.50	     6.708
  29.240         36.67	     6.633
  29.260         32.50	     6.245
  29.280         29.17	     5.916
  29.300         35.83	     6.557
  29.320         31.67	     6.164
  29.340         37.50	     6.708
  29.360         34.17	     6.403
  29.380         21.67	     5.099
  29.400         35.83	     6.557
  29.420         30.00	     6.000
  29.440         33.33	     6.325
  29.460         43.33	     7.211
  29.480         25.83	     5.568
  29.500         26.67	     5.657
  29.520         28.33	     5.831
  29.540         35.83	     6.557
  29.560         35.00	     6.481
  29.580         29.17	     5.916
  29.600         39.17	     6.856
  29.620         22.50	     5.196
  29.640         31.67	     6.164
  29.660         35.83	     6.557
  29.680         31.67	     6.164
  29.700         40.83	     7.000
  29.720         41.67	     7.071
  29.740         35.83	     6.557
  29.760         50.83	     7.810
  29.780         46.67	     7.483
  29.800         65.00	     8.832
  29.820         63.33	     8.718
  29.840         49.17	     7.681
  29.860         64.17	     8.775
  29.880         61.67	     8.602
  29.900         52.50	     7.937
  29.920         50.83	     7.810
  29.940         52.50	     7.937
  29.960         55.83	     8.185
  29.980         60.83	     8.544
  30.000         66.67	     8.944
  30.020         93.33	    10.583
  30.040        125.83	    12.288
  30.060         84.17	    10.050
  30.080         75.83	     9.539
  30.100         70.00	     9.165
  30.120        111.67	    11.576
  30.140         79.17	     9.747
  30.160         75.83	     9.539
  30.180         63.33	     8.718
  30.200         65.83	     8.888
  30.220         60.00	     8.485
  30.240         55.00	     8.124
  30.260         44.17	     7.280
  30.280         53.33	     8.000
  30.300         60.83	     8.544
  30.320         50.00	     7.746
  30.340         45.83	     7.416
  30.360         68.33	     9.055
  30.380         66.67	     8.944
  30.400         85.00	    10.100
  30.420        101.67	    11.045
  30.440         85.83	    10.149
  30.460         70.00	     9.165
  30.480         70.83	     9.220
  30.500         60.83	     8.544
  30.520         62.50	     8.660
  30.540         54.17	     8.062
  30.560         52.50	     7.937
  30.580         56.67	     8.246
  30.600         40.83	     7.000
  30.620         40.83	     7.000
  30.640         36.67	     6.633
  30.660         40.00	     6.928
  30.680         51.67	     7.874
  30.700         39.17	     6.856
  30.720         49.17	     7.681
  30.740         40.83	     7.000
  30.760         51.67	     7.874
  30.780         50.83	     7.810
  30.800         55.00	     8.124
  30.820         52.50	     7.937
  30.840         41.67	     7.071
  30.860         37.50	     6.708
  30.880         42.50	     7.141
  30.900         55.83	     8.185
  30.920         50.83	     7.810
  30.940         34.17	     6.403
  30.960         43.33	     7.211
  30.980         39.17	     6.856
  31.000         37.50	     6.708
  31.020         38.33	     6.782
  31.040         40.00	     6.928
  31.060         46.67	     7.483
  31.080         58.33	     8.367
  31.100         56.67	     8.246
  31.120         59.17	     8.426
  31.140         88.33	    10.296
  31.160         91.67	    10.488
  31.180        116.67	    11.832
  31.200        139.17	    12.923
  31.220        127.50	    12.369
  31.240        120.00	    12.000
  31.260        135.00	    12.728
  31.280        121.67	    12.083
  31.300         92.50	    10.536
  31.320         76.67	     9.592
  31.340         70.83	     9.220
  31.360         80.00	     9.798
  31.380         84.17	    10.050
  31.400         75.83	     9.539
  31.420         67.50	     9.000
  31.440         60.83	     8.544
  31.460         73.33	     9.381
  31.480         66.67	     8.944
  31.500         74.17	     9.434
  31.520         60.83	     8.544
  31.540         88.33	    10.296
  31.560         56.67	     8.246
  31.580         68.33	     9.055
  31.600         65.00	     8.832
  31.620         58.33	     8.367
  31.640         55.83	     8.185
  31.660         54.17	     8.062
  31.680         40.00	     6.928
  31.700         47.50	     7.550
  31.720         50.83	     7.810
  31.740         36.67	     6.633
  31.760         41.67	     7.071
  31.780         45.00	     7.348
  31.800         35.00	     6.481
  31.820         42.50	     7.141
  31.840         41.67	     7.071
  31.860         40.83	     7.000
  31.880         25.00	     5.477
  31.900         31.67	     6.164
  31.920         44.17	     7.280
  31.940         30.83	     6.083
  31.960         41.67	     7.071
  31.980         31.67	     6.164
  32.000         49.17	     7.681
  32.020         48.33	     7.616
  32.040         42.50	     7.141
  32.060         55.83	     8.185
  32.080         55.83	     8.185
  32.100         58.33	     8.367
  32.120         49.17	     7.681
  32.140         43.33	     7.211
  32.160         44.17	     7.280
  32.180         36.67	     6.633
  32.200         35.00	     6.481
  32.220         35.00	     6.481
  32.240         30.00	     6.000
  32.260         24.17	     5.385
  32.280         23.33	     5.292
  32.300         26.67	     5.657
  32.320         35.00	     6.481
  32.340         32.50	     6.245
  32.360         29.17	     5.916
  32.380         26.67	     5.657
  32.400         28.33	     5.831
  32.420         24.17	     5.385
  32.440         22.50	     5.196
  32.460         25.83	     5.568
  32.480         30.00	     6.000
  32.500         29.17	     5.916
  32.520         19.17	     4.796
  32.540         19.17	     4.796
  32.560         26.67	     5.657
  32.580         25.00	     5.477
  32.600         32.50	     6.245
  32.620         22.50	     5.196
  32.640         18.33	     4.690
  32.660         17.50	     4.583
  32.680         21.67	     5.099
  32.700         25.00	     5.477
  32.720         15.83	     4.359
  32.740         30.83	     6.083
  32.760         21.67	     5.099
  32.780         20.00	     4.899
  32.800         26.67	     5.657
  32.820         21.67	     5.099
  32.840         30.00	     6.000
  32.860         21.67	     5.099
  32.880         25.00	     5.477
  32.900         22.50	     5.196
  32.920         29.17	     5.916
  32.940         25.83	     5.568
  32.960         35.00	     6.481
  32.980         34.17	     6.403
  33.000         34.17	     6.403
  33.020         36.67	     6.633
  33.040         59.17	     8.426
  33.060         95.83	    10.724
  33.080        104.17	    11.180
  33.100         74.17	     9.434
  33.120         36.67	     6.633
  33.140         58.33	     8.367
  33.160         72.50	     9.327
  33.180         44.17	     7.280
  33.200         27.50	     5.745
  33.220         28.33	     5.831
  33.240         20.00	     4.899
  33.260         30.00	     6.000
  33.280         31.67	     6.164
  33.300         24.17	     5.385
  33.320         17.50	     4.583
  33.340         30.00	     6.000
  33.360         28.33	     5.831
  33.380         22.50	     5.196
  33.400         22.50	     5.196
  33.420         20.00	     4.899
  33.440         34.17	     6.403
  33.460         23.33	     5.292
  33.480         17.50	     4.583
  33.500         27.50	     5.745
  33.520         31.67	     6.164
  33.540         25.83	     5.568
  33.560         25.83	     5.568
  33.580         25.83	     5.568
  33.600         24.17	     5.385
  33.620         25.83	     5.568
  33.640         15.83	     4.359
  33.660         26.67	     5.657
  33.680         25.83	     5.568
  33.700         21.67	     5.099
  33.720         32.50	     6.245
  33.740         21.67	     5.099
  33.760         22.50	     5.196
  33.780         21.67	     5.099
  33.800         29.17	     5.916
  33.820         36.67	     6.633
  33.840         45.83	     7.416
  33.860         39.17	     6.856
  33.880         40.00	     6.928
  33.900         32.50	     6.245
  33.920         41.67	     7.071
  33.940         32.50	     6.245
  33.960         34.17	     6.403
  33.980         25.00	     5.477
  34.000         20.83	     5.000
  34.020         22.50	     5.196
  34.040         21.67	     5.099
  34.060         31.67	     6.164
  34.080         31.67	     6.164
  34.100         31.67	     6.164
  34.120         27.50	     5.745
  34.140         21.67	     5.099
  34.160         30.83	     6.083
  34.180         29.17	     5.916
  34.200         30.83	     6.083
  34.220         36.67	     6.633
  34.240         25.83	     5.568
  34.260         23.33	     5.292
  34.280         30.83	     6.083
  34.300         41.67	     7.071
  34.320         40.83	     7.000
  34.340         45.00	     7.348
  34.360         45.83	     7.416
  34.380         49.17	     7.681
  34.400         44.17	     7.280
  34.420         51.67	     7.874
  34.440         50.83	     7.810
  34.460         52.50	     7.937
  34.480         44.17	     7.280
  34.500         43.33	     7.211
  34.520         43.33	     7.211
  34.540         38.33	     6.782
  34.560         37.50	     6.708
  34.580         35.00	     6.481
  34.600         30.83	     6.083
  34.620         30.83	     6.083
  34.640         35.83	     6.557
  34.660         42.50	     7.141
  34.680         47.50	     7.550
  34.700         27.50	     5.745
  34.720         40.83	     7.000
  34.740         39.17	     6.856
  34.760         45.00	     7.348
  34.780         50.00	     7.746
  34.800         64.17	     8.775
  34.820         61.67	     8.602
  34.840         64.17	     8.775
  34.860         55.00	     8.124
  34.880         52.50	     7.937
  34.900         72.50	     9.327
  34.920         80.00	     9.798
  34.940         75.00	     9.487
  34.960         77.50	     9.644
  34.980         72.50	     9.327
  35.000         70.83	     9.220
  35.020         65.00	     8.832
  35.040         52.50	     7.937
  35.060         57.50	     8.307
  35.080         65.00	     8.832
  35.100         44.17	     7.280
  35.120         50.83	     7.810
  35.140         42.50	     7.141
  35.160         40.83	     7.000
  35.180         45.00	     7.348
  35.200         40.83	     7.000
  35.220         30.83	     6.083
  35.240         30.83	     6.083
  35.260         45.83	     7.416
  35.280         44.17	     7.280
  35.300         32.50	     6.245
  35.320         42.50	     7.141
  35.340         30.83	     6.083
  35.360         45.83	     7.416
  35.380         35.83	     6.557
  35.400         60.83	     8.544
  35.420         50.00	     7.746
  35.440         62.50	     8.660
  35.460         70.00	     9.165
  35.480         73.33	     9.381
  35.500         59.17	     8.426
  35.520         65.00	     8.832
  35.540         63.33	     8.718
  35.560         65.00	     8.832
  35.580         47.50	     7.550
  35.600         48.33	     7.616
  35.620         42.50	     7.141
  35.640         35.00	     6.481
  35.660         40.83	     7.000
  35.680         43.33	     7.211
  35.700         32.50	     6.245
  35.720         35.00	     6.481
  35.740         32.50	     6.245
  35.760         36.67	     6.633
  35.780         25.83	     5.568
  35.800         40.00	     6.928
  35.820         36.67	     6.633
  35.840         35.83	     6.557
  35.860         39.17	     6.856
  35.880         28.33	     5.831
  35.900         41.67	     7.071
  35.920         39.17	     6.856
  35.940         49.17	     7.681
  35.960         54.17	     8.062
  35.980         57.50	     8.307
  36.000         50.83	     7.810
  36.020         55.00	     8.124
  36.040         50.00	     7.746
  36.060         56.67	     8.246
  36.080         65.00	     8.832
  36.100         50.00	     7.746
  36.120         56.67	     8.246
  36.140         39.17	     6.856
  36.160         38.33	     6.782
  36.180         43.33	     7.211
  36.200         38.33	     6.782
  36.220         32.50	     6.245
  36.240         35.00	     6.481
  36.260         30.00	     6.000
  36.280         36.67	     6.633
  36.300         41.67	     7.071
  36.320         29.17	     5.916
  36.340         36.67	     6.633
  36.360         50.00	     7.746
  36.380         51.67	     7.874
  36.400         51.67	     7.874
  36.420         75.83	     9.539
  36.440        181.67	    14.765
  36.460        399.17	    21.886
  36.480        473.33	    23.833
  36.500        335.00	    20.050
  36.520        220.83	    16.279
  36.540        206.67	    15.748
  36.560        274.17	    18.138
  36.580        270.83	    18.028
  36.600        157.50	    13.748
  36.620        108.33	    11.402
  36.640         92.50	    10.536
  36.660         82.50	     9.950
  36.680         61.67	     8.602
  36.700         65.83	     8.888
  36.720         49.17	     7.681
  36.740         45.83	     7.416
  36.760         46.67	     7.483
  36.780         30.00	     6.000
  36.800         31.67	     6.164
  36.820         36.67	     6.633
  36.840         39.17	     6.856
  36.860         22.50	     5.196
  36.880         34.17	     6.403
  36.900         37.50	     6.708
  36.920         24.17	     5.385
  36.940         25.83	     5.568
  36.960         35.00	     6.481
  36.980         35.83	     6.557
  37.000         36.67	     6.633
  37.020         33.33	     6.325
  37.040         25.83	     5.568
  37.060         35.83	     6.557
  37.080         32.50	     6.245
  37.100         45.00	     7.348
  37.120         34.17	     6.403
  37.140         40.83	     7.000
  37.160         42.50	     7.141
  37.180         35.00	     6.481
  37.200         43.33	     7.211
  37.220         33.33	     6.325
  37.240         47.50	     7.550
  37.260         68.33	     9.055
  37.280         69.17	     9.110
  37.300         70.83	     9.220
  37.320         55.83	     8.185
  37.340         60.00	     8.485
  37.360         51.67	     7.874
  37.380         56.67	     8.246
  37.400         50.00	     7.746
  37.420         36.67	     6.633
  37.440         44.17	     7.280
  37.460         35.83	     6.557
  37.480         39.17	     6.856
  37.500         57.50	     8.307
  37.520         37.50	     6.708
  37.540         44.17	     7.280
  37.560         37.50	     6.708
  37.580         45.83	     7.416
  37.600         47.50	     7.550
  37.620         45.83	     7.416
  37.640         46.67	     7.483
  37.660         45.83	     7.416
  37.680         43.33	     7.211
  37.700         45.83	     7.416
  37.720         37.50	     6.708
  37.740         44.17	     7.280
  37.760         43.33	     7.211
  37.780         40.83	     7.000
  37.800         41.67	     7.071
  37.820         34.17	     6.403
  37.840         36.67	     6.633
  37.860         41.67	     7.071
  37.880         33.33	     6.325
  37.900         35.00	     6.481
  37.920         47.50	     7.550
  37.940         45.00	     7.348
  37.960         60.00	     8.485
  37.980        111.67	    11.576
  38.000        151.67	    13.491
  38.020        234.17	    16.763
  38.040        170.83	    14.318
  38.060        135.00	    12.728
  38.080        100.00	    10.954
  38.100        114.17	    11.705
  38.120        117.50	    11.874
  38.140         93.33	    10.583
  38.160         82.50	     9.950
  38.180         55.00	     8.124
  38.200         35.83	     6.557
  38.220         33.33	     6.325
  38.240         25.83	     5.568
  38.260         35.83	     6.557
  38.280         18.33	     4.690
  38.300         35.00	     6.481
  38.320         34.17	     6.403
  38.340         25.00	     5.477
  38.360         53.33	     8.000
  38.380         70.00	     9.165
  38.400         82.50	     9.950
  38.420         62.50	     8.660
  38.440         35.83	     6.557
  38.460         39.17	     6.856
  38.480         54.17	     8.062
  38.500         57.50	     8.307
  38.520         44.17	     7.280
  38.540         49.17	     7.681
  38.560         33.33	     6.325
  38.580         38.33	     6.782
  38.600         32.50	     6.245
  38.620         29.17	     5.916
  38.640         32.50	     6.245
  38.660         37.50	     6.708
  38.680         35.83	     6.557
  38.700         33.33	     6.325
  38.720         27.50	     5.745
  38.740         37.50	     6.708
  38.760         55.00	     8.124
  38.780        155.83	    13.675
  38.800        291.67	    18.708
  38.820        271.67	    18.055
  38.840        125.83	    12.288
  38.860         64.17	     8.775
  38.880        101.67	    11.045
  38.900        191.67	    15.166
  38.920        168.33	    14.213
  38.940         75.83	     9.539
  38.960         47.50	     7.550
  38.980         35.83	     6.557
  39.000         31.67	     6.164
  39.020         30.83	     6.083
  39.040         27.50	     5.745
  39.060         28.33	     5.831
  39.080         32.50	     6.245
  39.100         19.17	     4.796
  39.120         31.67	     6.164
  39.140         25.00	     5.477
  39.160         24.17	     5.385
  39.180         21.67	     5.099
  39.200         30.83	     6.083
  39.220         25.83	     5.568
  39.240         25.83	     5.568
  39.260         31.67	     6.164
  39.280         29.17	     5.916
  39.300         31.67	     6.164
  39.320         36.67	     6.633
  39.340         34.17	     6.403
  39.360         60.00	     8.485
  39.380         95.00	    10.677
  39.400        136.67	    12.806
  39.420        157.50	    13.748
  39.440        128.33	    12.410
  39.460        100.00	    10.954
  39.480         93.33	    10.583
  39.500        106.67	    11.314
  39.520        101.67	    11.045
  39.540         80.83	     9.849
  39.560         62.50	     8.660
  39.580         55.00	     8.124
  39.600         53.33	     8.000
  39.620         39.17	     6.856
  39.640         26.67	     5.657
  39.660         30.00	     6.000
  39.680         25.83	     5.568
  39.700         25.83	     5.568
  39.720         30.00	     6.000
  39.740         27.50	     5.745
  39.760         27.50	     5.745
  39.780         29.17	     5.916
  39.800         23.33	     5.292
  39.820         30.00	     6.000
  39.840         27.50	     5.745
  39.860         35.00	     6.481
  39.880         23.33	     5.292
  39.900         24.17	     5.385
  39.920         24.17	     5.385
  39.940         27.50	     5.745
  39.960         33.33	     6.325
  39.980         35.83	     6.557
  40.000         24.17	     5.385
  40.020         30.00	     6.000
  40.040         36.67	     6.633
  40.060         41.67	     7.071
  40.080         27.50	     5.745
  40.100         22.50	     5.196
  40.120         32.50	     6.245
  40.140         39.17	     6.856
  40.160         37.50	     6.708
  40.180         51.67	     7.874
  40.200         45.83	     7.416
  40.220         84.17	    10.050
  40.240         85.00	    10.100
  40.260         87.50	    10.247
  40.280         69.17	     9.110
  40.300         67.50	     9.000
  40.320         60.00	     8.485
  40.340         72.50	     9.327
  40.360         69.17	     9.110
  40.380         51.67	     7.874
  40.400         41.67	     7.071
  40.420         34.17	     6.403
  40.440         38.33	     6.782
  40.460         30.83	     6.083
  40.480         33.33	     6.325
  40.500         25.00	     5.477
  40.520         25.00	     5.477
  40.540         22.50	     5.196
  40.560         25.00	     5.477
  40.580         29.17	     5.916
  40.600         25.00	     5.477
  40.620         19.17	     4.796
  40.640         21.67	     5.099
  40.660         27.50	     5.745
  40.680         24.17	     5.385
  40.700         30.00	     6.000
  40.720         20.00	     4.899
  40.740         20.83	     5.000
  40.760         18.33	     4.690
  40.780         37.50	     6.708
  40.800         19.17	     4.796
  40.820         20.83	     5.000
  40.840         24.17	     5.385
  40.860         26.67	     5.657
  40.880         22.50	     5.196
  40.900         28.33	     5.831
  40.920         26.67	     5.657
  40.940         32.50	     6.245
  40.960         21.67	     5.099
  40.980         26.67	     5.657
  41.000         30.83	     6.083
  41.020         20.83	     5.000
  41.040         30.00	     6.000
  41.060         24.17	     5.385
  41.080         22.50	     5.196
  41.100         26.67	     5.657
  41.120         35.00	     6.481
  41.140         34.17	     6.403
  41.160         45.00	     7.348
  41.180         31.67	     6.164
  41.200         42.50	     7.141
  41.220         33.33	     6.325
  41.240         42.50	     7.141
  41.260         45.83	     7.416
  41.280         41.67	     7.071
  41.300         48.33	     7.616
  41.320         41.67	     7.071
  41.340         41.67	     7.071
  41.360         39.17	     6.856
  41.380         32.50	     6.245
  41.400         31.67	     6.164
  41.420         31.67	     6.164
  41.440         24.17	     5.385
  41.460         38.33	     6.782
  41.480         25.00	     5.477
  41.500         30.00	     6.000
  41.520         24.17	     5.385
  41.540         25.00	     5.477
  41.560         39.17	     6.856
  41.580         33.33	     6.325
  41.600         36.67	     6.633
  41.620         49.17	     7.681
  41.640         37.50	     6.708
  41.660         34.17	     6.403
  41.680         38.33	     6.782
  41.700         36.67	     6.633
  41.720         28.33	     5.831
  41.740         50.83	     7.810
  41.760         30.83	     6.083
  41.780         36.67	     6.633
  41.800         35.83	     6.557
  41.820         25.83	     5.568
  41.840         33.33	     6.325
  41.860         34.17	     6.403
  41.880         20.83	     5.000
  41.900         31.67	     6.164
  41.920         35.00	     6.481
  41.940         29.17	     5.916
  41.960         35.00	     6.481
  41.980         33.33	     6.325
  42.000         23.33	     5.292
  42.020         24.17	     5.385
  42.040         24.17	     5.385
  42.060         36.67	     6.633
  42.080         30.83	     6.083
  42.100         25.83	     5.568
  42.120         25.83	     5.568
  42.140         23.33	     5.292
  42.160         29.17	     5.916
  42.180         26.67	     5.657
  42.200         32.50	     6.245
  42.220         27.50	     5.745
  42.240         20.83	     5.000
  42.260         43.33	     7.211
  42.280         37.50	     6.708
  42.300         37.50	     6.708
  42.320         50.00	     7.746
  42.340         66.67	     8.944
  42.360        100.83	    11.000
  42.380        112.50	    11.619
  42.400        110.83	    11.533
  42.420         85.00	    10.100
  42.440         85.00	    10.100
  42.460         92.50	    10.536
  42.480         79.17	     9.747
  42.500         88.33	    10.296
  42.520         61.67	     8.602
  42.540         60.83	     8.544
  42.560         65.00	     8.832
  42.580         50.83	     7.810
  42.600         43.33	     7.211
  42.620         40.00	     6.928
  42.640         41.67	     7.071
  42.660         35.00	     6.481
  42.680         40.83	     7.000
  42.700         25.83	     5.568
  42.720         32.50	     6.245
  42.740         27.50	     5.745
  42.760         43.33	     7.211
  42.780         39.17	     6.856
  42.800         40.83	     7.000
  42.820         35.83	     6.557
  42.840         33.33	     6.325
  42.860         25.00	     5.477
  42.880         30.00	     6.000
  42.900         32.50	     6.245
  42.920         28.33	     5.831
  42.940         32.50	     6.245
  42.960         25.00	     5.477
  42.980         35.83	     6.557
  43.000         37.50	     6.708
  43.020         48.33	     7.616
  43.040         40.00	     6.928
  43.060         42.50	     7.141
  43.080         28.33	     5.831
  43.100         28.33	     5.831
  43.120         31.67	     6.164
  43.140         30.83	     6.083
  43.160         30.00	     6.000
  43.180         29.17	     5.916
  43.200         24.17	     5.385
  43.220         30.00	     6.000
  43.240         24.17	     5.385
  43.260         16.67	     4.472
  43.280         20.00	     4.899
  43.300         15.83	     4.359
  43.320         25.00	     5.477
  43.340         30.00	     6.000
  43.360         28.33	     5.831
  43.380         29.17	     5.916
  43.400         33.33	     6.325
  43.420         33.33	     6.325
  43.440         35.83	     6.557
  43.460         33.33	     6.325
  43.480         35.83	     6.557
  43.500         48.33	     7.616
  43.520         51.67	     7.874
  43.540         44.17	     7.280
  43.560         44.17	     7.280
  43.580         51.67	     7.874
  43.600         42.50	     7.141
  43.620         43.33	     7.211
  43.640         56.67	     8.246
  43.660         34.17	     6.403
  43.680         40.83	     7.000
  43.700         35.00	     6.481
  43.720         25.83	     5.568
  43.740         33.33	     6.325
  43.760         40.00	     6.928
  43.780         21.67	     5.099
  43.800         26.67	     5.657
  43.820         29.17	     5.916
  43.840         29.17	     5.916
  43.860         31.67	     6.164
  43.880         28.33	     5.831
  43.900         27.50	     5.745
  43.920         27.50	     5.745
  43.940         25.00	     5.477
  43.960         29.17	     5.916
  43.980         25.83	     5.568
  44.000         32.50	     6.245
  44.020         38.33	     6.782
  44.040         32.50	     6.245
  44.060         31.67	     6.164
  44.080         23.33	     5.292
  44.100         36.67	     6.633
  44.120         44.17	     7.280
  44.140         46.67	     7.483
  44.160         51.67	     7.874
  44.180        112.50	    11.619
  44.200        136.67	    12.806
  44.220        166.67	    14.142
  44.240        122.50	    12.124
  44.260         80.00	     9.798
  44.280         67.50	     9.000
  44.300         73.33	     9.381
  44.320         81.67	     9.899
  44.340        104.17	    11.180
  44.360         70.00	     9.165
  44.380         45.83	     7.416
  44.400         37.50	     6.708
  44.420         30.83	     6.083
  44.440         27.50	     5.745
  44.460         22.50	     5.196
  44.480         32.50	     6.245
  44.500         30.00	     6.000
  44.520         33.33	     6.325
  44.540         21.67	     5.099
  44.560         30.83	     6.083
  44.580         26.67	     5.657
  44.600         24.17	     5.385
  44.620         30.00	     6.000
  44.640         31.67	     6.164
  44.660         22.50	     5.196
  44.680         29.17	     5.916
  44.700         26.67	     5.657
  44.720         25.00	     5.477
  44.740         29.17	     5.916
  44.760         32.50	     6.245
  44.780         21.67	     5.099
  44.800         34.17	     6.403
  44.820         32.50	     6.245
  44.840         32.50	     6.245
  44.860         30.00	     6.000
  44.880         25.83	     5.568
  44.900         50.83	     7.810
  44.920         38.33	     6.782
  44.940         32.50	     6.245
  44.960         46.67	     7.483
  44.980         43.33	     7.211
  45.000         34.17	     6.403
  45.020         42.50	     7.141
  45.040         35.00	     6.481
  45.060         28.33	     5.831
  45.080         28.33	     5.831
  45.100         34.17	     6.403
  45.120         35.83	     6.557
  45.140         39.17	     6.856
  45.160         35.83	     6.557
  45.180         43.33	     7.211
  45.200         40.00	     6.928
  45.220         51.67	     7.874
  45.240         50.00	     7.746
  45.260         53.33	     8.000
  45.280         45.83	     7.416
  45.300         52.50	     7.937
  45.320         63.33	     8.718
  45.340         72.50	     9.327
  45.360         70.83	     9.220
  45.380         91.67	    10.488
  45.400        102.50	    11.091
  45.420        120.00	    12.000
  45.440        117.50	    11.874
  45.460        125.00	    12.247
  45.480        162.50	    13.964
  45.500        161.67	    13.928
  45.520        229.17	    16.583
  45.540        202.50	    15.588
  45.560        182.50	    14.799
  45.580        168.33	    14.213
  45.600        152.50	    13.528
  45.620        145.00	    13.191
  45.640        117.50	    11.874
  45.660        141.67	    13.038
  45.680        142.50	    13.077
  45.700        150.00	    13.416
  45.720        159.17	    13.820
  45.740        220.00	    16.248
  45.760        210.00	    15.875
  45.780        169.17	    14.248
  45.800        125.00	    12.247
  45.820        100.00	    10.954
  45.840         81.67	     9.899
  45.860        110.83	    11.533
  45.880        124.17	    12.207
  45.900        125.83	    12.288
  45.920         70.00	     9.165
  45.940         60.00	     8.485
  45.960         46.67	     7.483
  45.980         47.50	     7.550
  46.000         41.67	     7.071
  46.020         32.50	     6.245
  46.040         24.17	     5.385
  46.060         30.83	     6.083
  46.080         25.83	     5.568
  46.100         39.17	     6.856
  46.120         28.33	     5.831
  46.140         30.00	     6.000
  46.160         15.00	     4.243
  46.180         20.00	     4.899
  46.200         34.17	     6.403
  46.220         33.33	     6.325
  46.240         21.67	     5.099
  46.260         30.83	     6.083
  46.280         22.50	     5.196
  46.300         24.17	     5.385
  46.320         11.67	     3.742
  46.340         27.50	     5.745
  46.360         30.00	     6.000
  46.380         25.83	     5.568
  46.400         20.00	     4.899
  46.420         31.67	     6.164
  46.440         30.00	     6.000
  46.460         25.83	     5.568
  46.480         20.83	     5.000
  46.500         40.83	     7.000
  46.520         30.00	     6.000
  46.540         50.00	     7.746
  46.560         53.33	     8.000
  46.580         61.67	     8.602
  46.600         65.00	     8.832
  46.620         39.17	     6.856
  46.640         25.00	     5.477
  46.660         43.33	     7.211
  46.680         42.50	     7.141
  46.700         49.17	     7.681
  46.720         43.33	     7.211
  46.740         34.17	     6.403
  46.760         22.50	     5.196
  46.780         22.50	     5.196
  46.800         25.83	     5.568
  46.820         25.00	     5.477
  46.840         26.67	     5.657
  46.860         18.33	     4.690
  46.880         20.00	     4.899
  46.900         23.33	     5.292
  46.920         24.17	     5.385
  46.940         31.67	     6.164
  46.960         23.33	     5.292
  46.980         18.33	     4.690
  47.000         25.83	     5.568
  47.020         24.17	     5.385
  47.040         23.33	     5.292
  47.060         33.33	     6.325
  47.080         30.00	     6.000
  47.100         20.83	     5.000
  47.120         25.83	     5.568
  47.140         29.17	     5.916
  47.160         32.50	     6.245
  47.180         32.50	     6.245
  47.200         21.67	     5.099
  47.220         20.83	     5.000
  47.240         22.50	     5.196
  47.260         27.50	     5.745
  47.280         26.67	     5.657
  47.300         20.00	     4.899
  47.320         26.67	     5.657
  47.340         28.33	     5.831
  47.360         23.33	     5.292
  47.380         16.67	     4.472
  47.400         25.00	     5.477
  47.420         20.83	     5.000
  47.440         25.00	     5.477
  47.460         25.83	     5.568
  47.480         18.33	     4.690
  47.500         26.67	     5.657
  47.520         16.67	     4.472
  47.540         22.50	     5.196
  47.560         21.67	     5.099
  47.580         27.50	     5.745
  47.600         18.33	     4.690
  47.620         20.00	     4.899
  47.640         20.83	     5.000
  47.660         20.00	     4.899
  47.680         23.33	     5.292
  47.700         13.33	     4.000
  47.720         18.33	     4.690
  47.740         25.00	     5.477
  47.760         21.67	     5.099
  47.780         18.33	     4.690
  47.800         35.83	     6.557
  47.820         26.67	     5.657
  47.840         27.50	     5.745
  47.860         28.33	     5.831
  47.880         28.33	     5.831
  47.900         32.50	     6.245
  47.920         36.67	     6.633
  47.940         38.33	     6.782
  47.960         26.67	     5.657
  47.980         35.00	     6.481
  48.000         32.50	     6.245
  48.020         37.50	     6.708
  48.040         42.50	     7.141
  48.060         41.67	     7.071
  48.080         46.67	     7.483
  48.100         38.33	     6.782
  48.120         41.67	     7.071
  48.140         30.00	     6.000
  48.160         38.33	     6.782
  48.180         33.33	     6.325
  48.200         33.33	     6.325
  48.220         34.17	     6.403
  48.240         28.33	     5.831
  48.260         35.00	     6.481
  48.280         30.83	     6.083
  48.300         39.17	     6.856
  48.320         30.83	     6.083
  48.340         35.00	     6.481
  48.360         25.83	     5.568
  48.380         26.67	     5.657
  48.400         32.50	     6.245
  48.420         25.00	     5.477
  48.440         30.00	     6.000
  48.460         20.83	     5.000
  48.480         28.33	     5.831
  48.500         22.50	     5.196
  48.520         25.83	     5.568
  48.540         19.17	     4.796
  48.560         24.17	     5.385
  48.580         23.33	     5.292
  48.600         20.00	     4.899
  48.620         23.33	     5.292
  48.640         26.67	     5.657
  48.660         29.17	     5.916
  48.680         25.00	     5.477
  48.700         24.17	     5.385
  48.720         27.50	     5.745
  48.740         29.17	     5.916
  48.760         51.67	     7.874
  48.780         42.50	     7.141
  48.800         32.50	     6.245
  48.820         25.83	     5.568
  48.840         34.17	     6.403
  48.860         30.83	     6.083
  48.880         40.83	     7.000
  48.900         49.17	     7.681
  48.920         33.33	     6.325
  48.940         30.83	     6.083
  48.960         33.33	     6.325
  48.980         28.33	     5.831
  49.000         40.83	     7.000
  49.020         30.83	     6.083
  49.040         35.00	     6.481
  49.060         36.67	     6.633
  49.080         27.50	     5.745
  49.100         30.83	     6.083
  49.120         35.83	     6.557
  49.140         45.83	     7.416
  49.160         58.33	     8.367
  49.180         40.83	     7.000
  49.200         36.67	     6.633
  49.220         42.50	     7.141
  49.240         50.83	     7.810
  49.260         40.83	     7.000
  49.280         47.50	     7.550
  49.300         45.83	     7.416
  49.320         35.83	     6.557
  49.340         40.83	     7.000
  49.360         35.83	     6.557
  49.380         50.00	     7.746
  49.400         63.33	     8.718
  49.420         42.50	     7.141
  49.440         30.83	     6.083
  49.460         37.50	     6.708
  49.480         46.67	     7.483
  49.500         36.67	     6.633
  49.520         30.83	     6.083
  49.540         45.83	     7.416
  49.560         31.67	     6.164
  49.580         40.83	     7.000
  49.600         35.83	     6.557
  49.620         33.33	     6.325
  49.640         36.67	     6.633
  49.660         24.17	     5.385
  49.680         32.50	     6.245
  49.700         38.33	     6.782
  49.720         48.33	     7.616
  49.740         40.83	     7.000
  49.760         46.67	     7.483
  49.780         48.33	     7.616
  49.800         45.00	     7.348
  49.820         41.67	     7.071
  49.840         50.83	     7.810
  49.860         64.17	     8.775
  49.880         45.00	     7.348
  49.900         54.17	     8.062
  49.920         52.50	     7.937
  49.940         60.83	     8.544
  49.960         71.67	     9.274
  49.980         62.50	     8.660
  50.000         70.83	     9.220
  50.020         85.83	    10.149
  50.040        150.00	    13.416
  50.060        267.50	    17.916
  50.080        432.50	    22.782
  50.100        510.83	    24.759
  50.120        365.83	    20.952
  50.140        205.00	    15.684
  50.160        120.00	    12.000
  50.180        150.83	    13.454
  50.200        232.50	    16.703
  50.220        302.50	    19.053
  50.240        278.33	    18.276
  50.260        184.17	    14.866
  50.280         98.33	    10.863
  50.300         61.67	     8.602
  50.320         58.33	     8.367
  50.340         48.33	     7.616
  50.360         45.00	     7.348
  50.380         35.00	     6.481
  50.400         35.83	     6.557
  50.420         35.00	     6.481
  50.440         46.67	     7.483
  50.460         60.00	     8.485
  50.480         88.33	    10.296
  50.500        139.17	    12.923
  50.520        152.50	    13.528
  50.540         87.50	    10.247
  50.560         65.00	     8.832
  50.580         63.33	     8.718
  50.600         97.50	    10.817
  50.620        141.67	    13.038
  50.640        103.33	    11.136
  50.660         76.67	     9.592
  50.680         56.67	     8.246
  50.700         34.17	     6.403
  50.720         43.33	     7.211
  50.740         62.50	     8.660
  50.760         64.17	     8.775
  50.780         36.67	     6.633
  50.800         30.00	     6.000
  50.820         28.33	     5.831
  50.840         20.00	     4.899
  50.860         31.67	     6.164
  50.880         39.17	     6.856
  50.900         19.17	     4.796
  50.920         28.33	     5.831
  50.940         31.67	     6.164
  50.960         31.67	     6.164
  50.980         26.67	     5.657
  51.000         30.83	     6.083
  51.020         29.17	     5.916
  51.040         29.17	     5.916
  51.060         43.33	     7.211
  51.080         40.83	     7.000
  51.100         33.33	     6.325
  51.120         40.00	     6.928
  51.140         43.33	     7.211
  51.160         44.17	     7.280
  51.180         39.17	     6.856
  51.200         45.00	     7.348
  51.220         50.00	     7.746
  51.240         51.67	     7.874
  51.260         40.00	     6.928
  51.280         38.33	     6.782
  51.300         35.83	     6.557
  51.320         33.33	     6.325
  51.340         34.17	     6.403
  51.360         35.83	     6.557
  51.380         32.50	     6.245
  51.400         30.00	     6.000
  51.420         26.67	     5.657
  51.440         27.50	     5.745
  51.460         24.17	     5.385
  51.480         22.50	     5.196
  51.500         18.33	     4.690
  51.520         16.67	     4.472
  51.540         23.33	     5.292
  51.560         21.67	     5.099
  51.580         27.50	     5.745
  51.600         22.50	     5.196
  51.620         22.50	     5.196
  51.640         25.83	     5.568
  51.660         21.67	     5.099
  51.680         25.83	     5.568
  51.700         29.17	     5.916
  51.720         20.83	     5.000
  51.740         22.50	     5.196
  51.760         28.33	     5.831
  51.780         21.67	     5.099
  51.800         18.33	     4.690
  51.820         22.50	     5.196
  51.840         22.50	     5.196
  51.860         18.33	     4.690
  51.880         19.17	     4.796
  51.900         20.83	     5.000
  51.920         21.67	     5.099
  51.940         19.17	     4.796
  51.960         25.00	     5.477
  51.980         18.33	     4.690
  52.000         23.33	     5.292
  52.020         24.17	     5.385
  52.040         20.00	     4.899
  52.060         33.33	     6.325
  52.080         30.00	     6.000
  52.100         30.83	     6.083
  52.120         25.83	     5.568
  52.140         29.17	     5.916
  52.160         19.17	     4.796
  52.180         26.67	     5.657
  52.200         30.00	     6.000
  52.220         26.67	     5.657
  52.240         25.83	     5.568
  52.260         21.67	     5.099
  52.280         37.50	     6.708
  52.300         30.00	     6.000
  52.320         40.00	     6.928
  52.340         29.17	     5.916
  52.360         25.83	     5.568
  52.380         25.00	     5.477
  52.400         26.67	     5.657
  52.420         44.17	     7.280
  52.440         25.00	     5.477
  52.460         32.50	     6.245
  52.480         25.83	     5.568
  52.500         25.00	     5.477
  52.520         30.00	     6.000
  52.540         25.83	     5.568
  52.560         37.50	     6.708
  52.580         27.50	     5.745
  52.600         20.00	     4.899
  52.620         32.50	     6.245
  52.640         19.17	     4.796
  52.660         26.67	     5.657
  52.680         22.50	     5.196
  52.700         31.67	     6.164
  52.720         25.83	     5.568
  52.740         34.17	     6.403
  52.760         21.67	     5.099
  52.780         33.33	     6.325
  52.800         39.17	     6.856
  52.820         35.00	     6.481
  52.840         43.33	     7.211
  52.860         34.17	     6.403
  52.880         50.00	     7.746
  52.900         66.67	     8.944
  52.920         70.00	     9.165
  52.940         67.50	     9.000
  52.960         65.83	     8.888
  52.980         48.33	     7.616
  53.000         50.83	     7.810
  53.020         42.50	     7.141
  53.040         40.83	     7.000
  53.060         55.00	     8.124
  53.080         47.50	     7.550
  53.100         56.67	     8.246
  53.120         37.50	     6.708
  53.140         35.00	     6.481
  53.160         35.83	     6.557
  53.180         27.50	     5.745
  53.200         27.50	     5.745
  53.220         36.67	     6.633
  53.240         35.00	     6.481
  53.260         25.83	     5.568
  53.280         39.17	     6.856
  53.300         31.67	     6.164
  53.320         27.50	     5.745
  53.340         26.67	     5.657
  53.360         21.67	     5.099
  53.380         29.17	     5.916
  53.400         22.50	     5.196
  53.420         19.17	     4.796
  53.440         21.67	     5.099
  53.460         22.50	     5.196
  53.480         16.67	     4.472
  53.500         24.17	     5.385
  53.520         17.50	     4.583
  53.540         15.83	     4.359
  53.560         20.83	     5.000
  53.580         23.33	     5.292
  53.600         36.67	     6.633
  53.620         32.50	     6.245
  53.640         29.17	     5.916
  53.660         26.67	     5.657
  53.680         30.00	     6.000
  53.700         32.50	     6.245
  53.720         27.50	     5.745
  53.740         25.83	     5.568
  53.760         23.33	     5.292
  53.780         26.67	     5.657
  53.800         35.83	     6.557
  53.820         22.50	     5.196
  53.840         31.67	     6.164
  53.860         28.33	     5.831
  53.880         30.83	     6.083
  53.900         24.17	     5.385
  53.920         32.50	     6.245
  53.940         38.33	     6.782
  53.960         34.17	     6.403
  53.980         29.17	     5.916
  54.000         30.00	     6.000
  54.020         29.17	     5.916
  54.040         45.83	     7.416
  54.060         29.17	     5.916
  54.080         28.33	     5.831
  54.100         25.00	     5.477
  54.120         27.50	     5.745
  54.140         25.83	     5.568
  54.160         33.33	     6.325
  54.180         43.33	     7.211
  54.200         38.33	     6.782
  54.220         20.83	     5.000
  54.240         22.50	     5.196
  54.260         35.83	     6.557
  54.280         35.83	     6.557
  54.300         26.67	     5.657
  54.320         35.00	     6.481
  54.340         41.67	     7.071
  54.360         23.33	     5.292
  54.380         22.50	     5.196
  54.400         23.33	     5.292
  54.420         26.67	     5.657
  54.440         29.17	     5.916
  54.460         29.17	     5.916
  54.480         19.17	     4.796
  54.500         18.33	     4.690
  54.520         28.33	     5.831
  54.540         30.83	     6.083
  54.560         30.83	     6.083
  54.580         22.50	     5.196
  54.600         16.67	     4.472
  54.620         17.50	     4.583
  54.640         26.67	     5.657
  54.660         34.17	     6.403
  54.680         19.17	     4.796
  54.700         25.83	     5.568
  54.720         29.17	     5.916
  54.740         30.83	     6.083
  54.760         47.50	     7.550
  54.780         65.00	     8.832
  54.800         73.33	     9.381
  54.820         80.83	     9.849
  54.840         87.50	    10.247
  54.860         66.67	     8.944
  54.880         71.67	     9.274
  54.900         49.17	     7.681
  54.920         50.00	     7.746
  54.940         50.83	     7.810
  54.960         61.67	     8.602
  54.980         68.33	     9.055
  55.000         54.17	     8.062
  55.020         35.83	     6.557
  55.040         46.67	     7.483
  55.060         37.50	     6.708
  55.080         32.50	     6.245
  55.100         26.67	     5.657
  55.120         27.50	     5.745
  55.140         24.17	     5.385
  55.160         35.00	     6.481
  55.180         32.50	     6.245
  55.200         35.00	     6.481
  55.220         33.33	     6.325
  55.240         40.83	     7.000
  55.260         37.50	     6.708
  55.280         47.50	     7.550
  55.300         44.17	     7.280
  55.320         50.00	     7.746
  55.340         49.17	     7.681
  55.360         36.67	     6.633
  55.380         24.17	     5.385
  55.400         39.17	     6.856
  55.420         35.83	     6.557
  55.440         37.50	     6.708
  55.460         45.83	     7.416
  55.480         33.33	     6.325
  55.500         32.50	     6.245
  55.520         31.67	     6.164
  55.540         28.33	     5.831
  55.560         31.67	     6.164
  55.580         29.17	     5.916
  55.600         27.50	     5.745
  55.620         25.00	     5.477
  55.640         29.17	     5.916
  55.660         37.50	     6.708
  55.680         35.00	     6.481
  55.700         45.00	     7.348
  55.720         47.50	     7.550
  55.740         64.17	     8.775
  55.760         45.83	     7.416
  55.780         48.33	     7.616
  55.800         67.50	     9.000
  55.820         44.17	     7.280
  55.840         46.67	     7.483
  55.860         47.50	     7.550
  55.880         37.50	     6.708
  55.900         44.17	     7.280
  55.920         35.83	     6.557
  55.940         45.00	     7.348
  55.960         39.17	     6.856
  55.980         28.33	     5.831
  56.000         18.33	     4.690
  56.020         26.67	     5.657
  56.040         33.33	     6.325
  56.060         21.67	     5.099
  56.080         24.17	     5.385
  56.100         25.83	     5.568
  56.120         29.17	     5.916
  56.140         27.50	     5.745
  56.160         22.50	     5.196
  56.180         22.50	     5.196
  56.200         26.67	     5.657
  56.220         19.17	     4.796
  56.240         35.00	     6.481
  56.260         30.83	     6.083
  56.280         31.67	     6.164
  56.300         21.67	     5.099
  56.320         25.00	     5.477
  56.340         22.50	     5.196
  56.360         23.33	     5.292
  56.380         25.00	     5.477
  56.400         27.50	     5.745
  56.420         32.50	     6.245
  56.440         24.17	     5.385
  56.460         25.83	     5.568
  56.480         31.67	     6.164
  56.500         35.00	     6.481
  56.520         29.17	     5.916
  56.540         29.17	     5.916
  56.560         27.50	     5.745
  56.580         31.67	     6.164
  56.600         25.83	     5.568
  56.620         22.50	     5.196
  56.640         20.83	     5.000
  56.660         20.83	     5.000
  56.680         23.33	     5.292
  56.700         25.00	     5.477
  56.720         34.17	     6.403
  56.740         27.50	     5.745
  56.760         25.83	     5.568
  56.780         19.17	     4.796
  56.800         25.83	     5.568
  56.820         24.17	     5.385
  56.840         25.00	     5.477
  56.860         20.00	     4.899
  56.880         31.67	     6.164
  56.900         37.50	     6.708
  56.920         39.17	     6.856
  56.940         34.17	     6.403
  56.960         32.50	     6.245
  56.980         24.17	     5.385
  57.000         29.17	     5.916
  57.020         29.17	     5.916
  57.040         25.83	     5.568
  57.060         29.17	     5.916
  57.080         25.83	     5.568
  57.100         23.33	     5.292
  57.120         30.83	     6.083
  57.140         35.83	     6.557
  57.160         30.00	     6.000
  57.180         28.33	     5.831
  57.200         29.17	     5.916
  57.220         26.67	     5.657
  57.240         25.00	     5.477
  57.260         27.50	     5.745
  57.280         25.83	     5.568
  57.300         25.83	     5.568
  57.320         33.33	     6.325
  57.340         40.00	     6.928
  57.360         30.83	     6.083
  57.380         20.83	     5.000
  57.400         19.17	     4.796
  57.420         25.83	     5.568
  57.440         25.83	     5.568
  57.460         27.50	     5.745
  57.480         20.83	     5.000
  57.500         33.33	     6.325
  57.520         27.50	     5.745
  57.540         24.17	     5.385
  57.560         20.83	     5.000
  57.580         20.83	     5.000
  57.600         26.67	     5.657
  57.620         25.00	     5.477
  57.640         27.50	     5.745
  57.660         22.50	     5.196
  57.680         24.17	     5.385
  57.700         22.50	     5.196
  57.720         25.00	     5.477
  57.740         25.00	     5.477
  57.760         26.67	     5.657
  57.780         28.33	     5.831
  57.800         25.00	     5.477
  57.820         15.83	     4.359
  57.840         20.83	     5.000
  57.860         23.33	     5.292
  57.880         16.67	     4.472
  57.900         16.67	     4.472
  57.920         26.67	     5.657
  57.940         27.50	     5.745
  57.960         27.50	     5.745
  57.980         24.17	     5.385
  58.000         30.83	     6.083
  58.020         29.17	     5.916
  58.040         29.17	     5.916
  58.060         29.17	     5.916
  58.080         23.33	     5.292
  58.100         23.33	     5.292
  58.120         28.33	     5.831
  58.140         25.83	     5.568
  58.160         23.33	     5.292
  58.180         15.00	     4.243
  58.200         20.00	     4.899
  58.220         28.33	     5.831
  58.240         27.50	     5.745
  58.260         20.00	     4.899
  58.280         22.50	     5.196
  58.300         22.50	     5.196
  58.320         19.17	     4.796
  58.340         26.67	     5.657
  58.360         29.17	     5.916
  58.380         29.17	     5.916
  58.400         31.67	     6.164
  58.420         26.67	     5.657
  58.440         23.33	     5.292
  58.460         30.83	     6.083
  58.480         23.33	     5.292
  58.500         30.83	     6.083
  58.520         22.50	     5.196
  58.540         35.00	     6.481
  58.560         26.67	     5.657
  58.580         27.50	     5.745
  58.600         35.83	     6.557
  58.620         26.67	     5.657
  58.640         29.17	     5.916
  58.660         31.67	     6.164
  58.680         33.33	     6.325
  58.700         30.00	     6.000
  58.720         45.83	     7.416
  58.740         30.00	     6.000
  58.760         19.17	     4.796
  58.780         26.67	     5.657
  58.800         35.00	     6.481
  58.820         25.83	     5.568
  58.840         31.67	     6.164
  58.860         31.67	     6.164
  58.880         20.00	     4.899
  58.900         28.33	     5.831
  58.920         25.00	     5.477
  58.940         37.50	     6.708
  58.960         42.50	     7.141
  58.980         36.67	     6.633
  59.000         20.83	     5.000
  59.020         32.50	     6.245
  59.040         35.00	     6.481
  59.060         29.17	     5.916
  59.080         34.17	     6.403
  59.100         41.67	     7.071
  59.120         40.00	     6.928
  59.140         37.50	     6.708
  59.160         45.00	     7.348
  59.180         42.50	     7.141
  59.200         50.83	     7.810
  59.220         45.83	     7.416
  59.240         48.33	     7.616
  59.260         44.17	     7.280
  59.280         38.33	     6.782
  59.300         42.50	     7.141
  59.320         32.50	     6.245
  59.340         32.50	     6.245
  59.360         32.50	     6.245
  59.380         30.83	     6.083
  59.400         30.00	     6.000
  59.420         44.17	     7.280
  59.440         45.00	     7.348
  59.460         38.33	     6.782
  59.480         57.50	     8.307
  59.500         85.83	    10.149
  59.520         95.83	    10.724
  59.540        119.17	    11.958
  59.560         84.17	    10.050
  59.580         72.50	     9.327
  59.600         55.00	     8.124
  59.620         50.83	     7.810
  59.640         58.33	     8.367
  59.660         48.33	     7.616
  59.680         50.00	     7.746
  59.700         93.33	    10.583
  59.720         58.33	     8.367
  59.740         50.83	     7.810
  59.760         40.83	     7.000
  59.780         47.50	     7.550
  59.800         61.67	     8.602
  59.820         64.17	     8.775
  59.840         86.67	    10.198
  59.860        135.00	    12.728
  59.880        165.00	    14.071
  59.900        255.00	    17.493
  59.920        251.67	    17.378
  59.940        216.67	    16.125
  59.960        165.83	    14.107
  59.980        125.83	    12.288
  60.000        100.83	    11.000
  60.020         90.83	    10.440
  60.040        119.17	    11.958
  60.060        153.33	    13.565
  60.080        159.17	    13.820
  60.100        134.17	    12.689
  60.120        105.83	    11.269
  60.140         90.83	    10.440
  60.160         64.17	     8.775
  60.180         47.50	     7.550
  60.200         55.00	     8.124
  60.220         55.83	     8.185
  60.240         55.83	     8.185
  60.260         65.83	     8.888
  60.280         67.50	     9.000
  60.300         61.67	     8.602
  60.320         44.17	     7.280
  60.340         35.83	     6.557
  60.360         40.83	     7.000
  60.380         31.67	     6.164
  60.400         44.17	     7.280
  60.420         50.00	     7.746
  60.440         62.50	     8.660
  60.460         38.33	     6.782
  60.480         38.33	     6.782
  60.500         34.17	     6.403
  60.520         34.17	     6.403
  60.540         29.17	     5.916
  60.560         39.17	     6.856
  60.580         29.17	     5.916
  60.600         32.50	     6.245
  60.620         27.50	     5.745
  60.640         31.67	     6.164
  60.660         29.17	     5.916
  60.680         25.83	     5.568
  60.700         33.33	     6.325
  60.720         36.67	     6.633
  60.740         20.83	     5.000
  60.760         32.50	     6.245
  60.780         26.67	     5.657
  60.800         41.67	     7.071
  60.820         39.17	     6.856
  60.840         35.00	     6.481
  60.860         33.33	     6.325
  60.880         32.50	     6.245
  60.900         42.50	     7.141
  60.920         36.67	     6.633
  60.940         42.50	     7.141
  60.960         38.33	     6.782
  60.980         24.17	     5.385
  61.000         34.17	     6.403
  61.020         20.83	     5.000
  61.040         43.33	     7.211
  61.060         38.33	     6.782
  61.080         35.00	     6.481
  61.100         35.00	     6.481
  61.120         31.67	     6.164
  61.140         25.00	     5.477
  61.160         21.67	     5.099
  61.180         33.33	     6.325
  61.200         35.83	     6.557
  61.220         26.67	     5.657
  61.240         28.33	     5.831
  61.260         31.67	     6.164
  61.280         29.17	     5.916
  61.300         39.17	     6.856
  61.320         30.83	     6.083
  61.340         35.00	     6.481
  61.360         27.50	     5.745
  61.380         41.67	     7.071
  61.400         39.17	     6.856
  61.420         55.00	     8.124
  61.440         43.33	     7.211
  61.460         42.50	     7.141
  61.480         35.83	     6.557
  61.500         31.67	     6.164
  61.520         32.50	     6.245
  61.540         46.67	     7.483
  61.560         31.67	     6.164
  61.580         26.67	     5.657
  61.600         34.17	     6.403
  61.620         43.33	     7.211
  61.640         52.50	     7.937
  61.660         45.00	     7.348
  61.680         42.50	     7.141
  61.700         40.83	     7.000
  61.720         49.17	     7.681
  61.740         36.67	     6.633
  61.760         29.17	     5.916
  61.780         37.50	     6.708
  61.800         48.33	     7.616
  61.820         47.50	     7.550
  61.840         47.50	     7.550
  61.860         48.33	     7.616
  61.880         55.00	     8.124
  61.900         37.50	     6.708
  61.920         51.67	     7.874
  61.940         53.33	     8.000
  61.960         35.00	     6.481
  61.980         35.83	     6.557
  62.000         33.33	     6.325
  62.020         31.67	     6.164
  62.040         39.17	     6.856
  62.060         45.83	     7.416
  62.080         32.50	     6.245
  62.100         34.17	     6.403
  62.120         37.50	     6.708
  62.140         31.67	     6.164
  62.160         29.17	     5.916
  62.180         32.50	     6.245
  62.200         25.83	     5.568
  62.220         23.33	     5.292
  62.240         21.67	     5.099
  62.260         20.83	     5.000
  62.280         27.50	     5.745
  62.300         20.00	     4.899
  62.320         30.83	     6.083
  62.340         20.83	     5.000
  62.360         24.17	     5.385
  62.380         18.33	     4.690
  62.400         18.33	     4.690
  62.420         18.33	     4.690
  62.440         38.33	     6.782
  62.460         20.83	     5.000
  62.480         20.83	     5.000
  62.500         23.33	     5.292
  62.520         21.67	     5.099
  62.540         28.33	     5.831
  62.560         26.67	     5.657
  62.580         27.50	     5.745
  62.600         16.67	     4.472
  62.620         23.33	     5.292
  62.640         22.50	     5.196
  62.660         25.00	     5.477
  62.680         21.67	     5.099
  62.700         25.00	     5.477
  62.720         27.50	     5.745
  62.740         33.33	     6.325
  62.760         23.33	     5.292
  62.780         25.00	     5.477
  62.800         24.17	     5.385
  62.820         30.83	     6.083
  62.840         25.00	     5.477
  62.860         25.83	     5.568
  62.880         20.83	     5.000
  62.900         16.67	     4.472
  62.920         22.50	     5.196
  62.940         30.83	     6.083
  62.960         21.67	     5.099
  62.980         21.67	     5.099
  63.000         21.67	     5.099
  63.020         24.17	     5.385
  63.040         23.33	     5.292
  63.060         20.00	     4.899
  63.080         20.00	     4.899
  63.100         23.33	     5.292
  63.120         26.67	     5.657
  63.140         20.00	     4.899
  63.160         29.17	     5.916
  63.180         25.00	     5.477
  63.200         33.33	     6.325
  63.220         20.00	     4.899
  63.240         23.33	     5.292
  63.260         20.83	     5.000
  63.280         30.83	     6.083
  63.300         23.33	     5.292
  63.320         22.50	     5.196
  63.340         25.83	     5.568
  63.360         35.83	     6.557
  63.380         27.50	     5.745
  63.400         35.00	     6.481
  63.420         27.50	     5.745
  63.440         29.17	     5.916
  63.460         30.00	     6.000
  63.480         31.67	     6.164
  63.500         22.50	     5.196
  63.520         25.00	     5.477
  63.540         30.83	     6.083
  63.560         21.67	     5.099
  63.580         30.00	     6.000
  63.600         21.67	     5.099
  63.620         28.33	     5.831
  63.640         20.83	     5.000
  63.660         29.17	     5.916
  63.680         29.17	     5.916
  63.700         30.00	     6.000
  63.720         31.67	     6.164
  63.740         30.83	     6.083
  63.760         30.00	     6.000
  63.780         22.50	     5.196
  63.800         32.50	     6.245
  63.820         30.83	     6.083
  63.840         38.33	     6.782
  63.860         35.83	     6.557
  63.880         41.67	     7.071
  63.900         45.00	     7.348
  63.920         50.00	     7.746
  63.940         65.00	     8.832
  63.960         73.33	     9.381
  63.980         88.33	    10.296
  64.000         92.50	    10.536
  64.020         79.17	     9.747
  64.040         70.00	     9.165
  64.060         71.67	     9.274
  64.080         63.33	     8.718
  64.100         53.33	     8.000
  64.120         60.00	     8.485
  64.140         56.67	     8.246
  64.160         71.67	     9.274
  64.180         90.83	    10.440
  64.200         72.50	     9.327
  64.220         60.83	     8.544
  64.240         52.50	     7.937
  64.260         61.67	     8.602
  64.280         64.17	     8.775
  64.300        101.67	    11.045
  64.320        135.00	    12.728
  64.340        182.50	    14.799
  64.360        235.83	    16.823
  64.380        187.50	    15.000
  64.400        118.33	    11.916
  64.420         86.67	    10.198
  64.440         60.00	     8.485
  64.460         65.00	     8.832
  64.480         75.00	     9.487
  64.500         80.83	     9.849
  64.520        108.33	    11.402
  64.540        134.17	    12.689
  64.560        110.00	    11.489
  64.580         70.00	     9.165
  64.600         51.67	     7.874
  64.620         40.00	     6.928
  64.640         40.83	     7.000
  64.660         26.67	     5.657
  64.680         40.83	     7.000
  64.700         36.67	     6.633
  64.720         33.33	     6.325
  64.740         36.67	     6.633
  64.760         29.17	     5.916
  64.780         30.00	     6.000
  64.800         27.50	     5.745
  64.820         33.33	     6.325
  64.840         25.83	     5.568
  64.860         24.17	     5.385
  64.880         28.33	     5.831
  64.900         35.00	     6.481
  64.920         30.00	     6.000
  64.940         30.83	     6.083
  64.960         30.83	     6.083
  64.980         20.83	     5.000
  65.000         27.50	     5.745
