
Filename:
	C:\Program Files\Thermo Electron\WinXRD\Datafiles\F_HERMAN\FIEN\2_1_AUG_RT.raw

File Created:
	February 22, 2019 - 12:36 PM

Specimen Id:
	2.1 AUGUST RT

Specimen Name:
	

Specimen Description:
	

Comment:
Scan Type: 2Theta Scan
Start Angle: 1 deg.
Stop Angle: 65 deg.
Num Points: 3201
Step Size: 0.02 deg.
Scan Rate: 1.000000
Scan Mode: Continuous
Wavelength: 1.540562
\Kalpha1: 1.540562	\Kalpha2: 1.544390	\Kbeta: 1.392218

Optics:
		Detector:
			 Type: Fixed Slits
		Tube: 
			 Type: Fixed Slits


Datas:
 Pos [deg]       Rate [CPS]      ESD [-]

Range 1 ---> Iteration 1
   1.000        945.83	    33.690
   1.020        780.83	    30.610
   1.040        545.00	    25.573
   1.060        575.83	    26.287
   1.080        500.83	    24.515
   1.100        563.33	    26.000
   1.120        480.83	    24.021
   1.140        397.50	    21.840
   1.160        434.17	    22.825
   1.180        555.83	    25.826
   1.200        408.33	    22.136
   1.220        413.33	    22.271
   1.240        411.67	    22.226
   1.260        393.33	    21.726
   1.280        460.83	    23.516
   1.300        574.17	    26.249
   1.320        635.83	    27.622
   1.340        950.00	    33.764
   1.360       1075.83	    35.930
   1.380       1101.67	    36.359
   1.400       1243.33	    38.626
   1.420       1274.17	    39.102
   1.440       1310.83	    39.661
   1.460       1190.00	    37.789
   1.480       1128.33	    36.797
   1.500       1252.50	    38.769
   1.520       1144.17	    37.054
   1.540       1196.67	    37.895
   1.560       1070.83	    35.847
   1.580       1073.33	    35.889
   1.600       1057.50	    35.623
   1.620       1045.83	    35.426
   1.640        956.67	    33.882
   1.660        850.00	    31.937
   1.680        833.33	    31.623
   1.700        750.00	    30.000
   1.720        740.83	    29.816
   1.740        637.50	    27.659
   1.760        640.00	    27.713
   1.780        616.67	    27.203
   1.800        600.00	    26.833
   1.820        505.00	    24.617
   1.840        553.33	    25.768
   1.860        495.00	    24.372
   1.880        530.83	    25.239
   1.900        518.33	    24.940
   1.920        465.00	    23.622
   1.940        444.17	    23.087
   1.960        461.67	    23.537
   1.980        465.83	    23.643
   2.000        455.83	    23.388
   2.020        460.00	    23.495
   2.040        434.17	    22.825
   2.060        420.83	    22.472
   2.080        402.50	    21.977
   2.100        410.00	    22.181
   2.120        393.33	    21.726
   2.140        401.67	    21.954
   2.160        375.00	    21.213
   2.180        385.83	    21.517
   2.200        369.17	    21.048
   2.220        372.50	    21.142
   2.240        350.83	    20.518
   2.260        360.83	    20.809
   2.280        350.00	    20.494
   2.300        357.50	    20.712
   2.320        335.83	    20.075
   2.340        317.50	    19.519
   2.360        343.33	    20.298
   2.380        341.67	    20.248
   2.400        324.17	    19.723
   2.420        349.17	    20.469
   2.440        327.50	    19.824
   2.460        328.33	    19.849
   2.480        322.50	    19.672
   2.500        321.67	    19.647
   2.520        324.17	    19.723
   2.540        320.83	    19.621
   2.560        293.33	    18.762
   2.580        316.67	    19.494
   2.600        313.33	    19.391
   2.620        310.00	    19.287
   2.640        315.00	    19.442
   2.660        298.33	    18.921
   2.680        304.17	    19.105
   2.700        271.67	    18.055
   2.720        291.67	    18.708
   2.740        276.67	    18.221
   2.760        270.00	    18.000
   2.780        268.33	    17.944
   2.800        247.50	    17.234
   2.820        274.17	    18.138
   2.840        265.00	    17.833
   2.860        271.67	    18.055
   2.880        244.17	    17.117
   2.900        255.00	    17.493
   2.920        254.17	    17.464
   2.940        265.00	    17.833
   2.960        274.17	    18.138
   2.980        275.00	    18.166
   3.000        255.83	    17.521
   3.020        261.67	    17.720
   3.040        251.67	    17.378
   3.060        220.00	    16.248
   3.080        249.17	    17.292
   3.100        228.33	    16.553
   3.120        247.50	    17.234
   3.140        289.17	    18.628
   3.160        241.67	    17.029
   3.180        232.50	    16.703
   3.200        248.33	    17.263
   3.220        223.33	    16.371
   3.240        235.00	    16.793
   3.260        238.33	    16.912
   3.280        219.17	    16.217
   3.300        230.83	    16.643
   3.320        220.83	    16.279
   3.340        227.50	    16.523
   3.360        236.67	    16.852
   3.380        219.17	    16.217
   3.400        218.33	    16.186
   3.420        230.83	    16.643
   3.440        198.33	    15.427
   3.460        220.83	    16.279
   3.480        195.00	    15.297
   3.500        225.83	    16.462
   3.520        204.17	    15.652
   3.540        214.17	    16.031
   3.560        180.00	    14.697
   3.580        205.00	    15.684
   3.600        196.67	    15.362
   3.620        217.50	    16.155
   3.640        205.83	    15.716
   3.660        213.33	    16.000
   3.680        218.33	    16.186
   3.700        192.50	    15.199
   3.720        185.00	    14.900
   3.740        185.83	    14.933
   3.760        216.67	    16.125
   3.780        165.00	    14.071
   3.800        183.33	    14.832
   3.820        183.33	    14.832
   3.840        194.17	    15.264
   3.860        189.17	    15.067
   3.880        165.83	    14.107
   3.900        201.67	    15.556
   3.920        198.33	    15.427
   3.940        190.00	    15.100
   3.960        182.50	    14.799
   3.980        176.67	    14.560
   4.000        180.83	    14.731
   4.020        187.50	    15.000
   4.040        195.00	    15.297
   4.060        190.83	    15.133
   4.080        190.00	    15.100
   4.100        170.83	    14.318
   4.120        161.67	    13.928
   4.140        182.50	    14.799
   4.160        180.83	    14.731
   4.180        164.17	    14.036
   4.200        168.33	    14.213
   4.220        170.00	    14.283
   4.240        162.50	    13.964
   4.260        169.17	    14.248
   4.280        173.33	    14.422
   4.300        178.33	    14.629
   4.320        176.67	    14.560
   4.340        165.00	    14.071
   4.360        179.17	    14.663
   4.380        176.67	    14.560
   4.400        146.67	    13.266
   4.420        146.67	    13.266
   4.440        166.67	    14.142
   4.460        166.67	    14.142
   4.480        160.83	    13.892
   4.500        142.50	    13.077
   4.520        171.67	    14.353
   4.540        152.50	    13.528
   4.560        175.83	    14.526
   4.580        147.50	    13.304
   4.600        154.17	    13.601
   4.620        166.67	    14.142
   4.640        173.33	    14.422
   4.660        149.17	    13.379
   4.680        149.17	    13.379
   4.700        157.50	    13.748
   4.720        153.33	    13.565
   4.740        132.50	    12.610
   4.760        150.83	    13.454
   4.780        127.50	    12.369
   4.800        150.83	    13.454
   4.820        136.67	    12.806
   4.840        145.00	    13.191
   4.860        145.83	    13.229
   4.880        123.33	    12.166
   4.900        169.17	    14.248
   4.920        151.67	    13.491
   4.940        134.17	    12.689
   4.960        149.17	    13.379
   4.980        132.50	    12.610
   5.000        138.33	    12.884
   5.020        130.83	    12.530
   5.040        131.67	    12.570
   5.060        138.33	    12.884
   5.080        145.83	    13.229
   5.100        133.33	    12.649
   5.120        137.50	    12.845
   5.140        139.17	    12.923
   5.160        134.17	    12.689
   5.180        125.00	    12.247
   5.200        122.50	    12.124
   5.220        145.00	    13.191
   5.240        152.50	    13.528
   5.260        117.50	    11.874
   5.280        117.50	    11.874
   5.300        117.50	    11.874
   5.320        130.83	    12.530
   5.340        129.17	    12.450
   5.360        120.83	    12.042
   5.380        110.00	    11.489
   5.400        135.83	    12.767
   5.420        131.67	    12.570
   5.440        134.17	    12.689
   5.460        160.00	    13.856
   5.480        129.17	    12.450
   5.500        136.67	    12.806
   5.520        123.33	    12.166
   5.540        131.67	    12.570
   5.560        123.33	    12.166
   5.580        134.17	    12.689
   5.600        125.00	    12.247
   5.620        130.00	    12.490
   5.640        132.50	    12.610
   5.660        126.67	    12.329
   5.680        122.50	    12.124
   5.700        119.17	    11.958
   5.720        115.83	    11.790
   5.740        116.67	    11.832
   5.760        132.50	    12.610
   5.780        143.33	    13.115
   5.800        140.83	    13.000
   5.820        135.00	    12.728
   5.840        125.83	    12.288
   5.860        136.67	    12.806
   5.880        130.83	    12.530
   5.900        141.67	    13.038
   5.920        120.83	    12.042
   5.940        142.50	    13.077
   5.960        130.83	    12.530
   5.980        139.17	    12.923
   6.000        140.00	    12.961
   6.020        117.50	    11.874
   6.040        157.50	    13.748
   6.060        145.00	    13.191
   6.080        180.00	    14.697
   6.100        162.50	    13.964
   6.120        161.67	    13.928
   6.140        200.83	    15.524
   6.160        244.17	    17.117
   6.180        230.83	    16.643
   6.200        231.67	    16.673
   6.220        234.17	    16.763
   6.240        246.67	    17.205
   6.260        240.83	    17.000
   6.280        180.00	    14.697
   6.300        135.00	    12.728
   6.320        130.00	    12.490
   6.340        130.83	    12.530
   6.360        130.00	    12.490
   6.380        143.33	    13.115
   6.400        129.17	    12.450
   6.420        139.17	    12.923
   6.440        108.33	    11.402
   6.460         95.00	    10.677
   6.480        102.50	    11.091
   6.500        104.17	    11.180
   6.520         99.17	    10.909
   6.540        101.67	    11.045
   6.560        106.67	    11.314
   6.580        124.17	    12.207
   6.600        111.67	    11.576
   6.620        117.50	    11.874
   6.640        114.17	    11.705
   6.660         91.67	    10.488
   6.680        111.67	    11.576
   6.700        124.17	    12.207
   6.720         93.33	    10.583
   6.740        109.17	    11.446
   6.760        115.83	    11.790
   6.780        123.33	    12.166
   6.800        130.00	    12.490
   6.820        113.33	    11.662
   6.840        110.00	    11.489
   6.860        101.67	    11.045
   6.880         95.00	    10.677
   6.900        125.83	    12.288
   6.920        104.17	    11.180
   6.940        100.00	    10.954
   6.960         95.00	    10.677
   6.980        114.17	    11.705
   7.000         93.33	    10.583
   7.020        126.67	    12.329
   7.040        112.50	    11.619
   7.060        105.83	    11.269
   7.080        115.83	    11.790
   7.100        110.00	    11.489
   7.120        100.00	    10.954
   7.140        103.33	    11.136
   7.160         93.33	    10.583
   7.180        100.00	    10.954
   7.200        105.83	    11.269
   7.220        101.67	    11.045
   7.240        109.17	    11.446
   7.260        100.00	    10.954
   7.280        102.50	    11.091
   7.300         98.33	    10.863
   7.320         83.33	    10.000
   7.340         92.50	    10.536
   7.360         90.00	    10.392
   7.380         93.33	    10.583
   7.400         95.00	    10.677
   7.420         90.83	    10.440
   7.440         84.17	    10.050
   7.460        111.67	    11.576
   7.480         85.83	    10.149
   7.500         97.50	    10.817
   7.520         86.67	    10.198
   7.540         98.33	    10.863
   7.560         86.67	    10.198
   7.580         75.00	     9.487
   7.600         97.50	    10.817
   7.620         86.67	    10.198
   7.640         98.33	    10.863
   7.660        100.83	    11.000
   7.680        116.67	    11.832
   7.700        104.17	    11.180
   7.720        106.67	    11.314
   7.740         90.00	    10.392
   7.760         97.50	    10.817
   7.780         83.33	    10.000
   7.800         76.67	     9.592
   7.820         90.83	    10.440
   7.840         79.17	     9.747
   7.860         92.50	    10.536
   7.880        107.50	    11.358
   7.900        112.50	    11.619
   7.920         91.67	    10.488
   7.940         78.33	     9.695
   7.960         95.83	    10.724
   7.980         90.83	    10.440
   8.000         95.00	    10.677
   8.020         93.33	    10.583
   8.040         90.83	    10.440
   8.060        106.67	    11.314
   8.080         99.17	    10.909
   8.100         85.83	    10.149
   8.120         86.67	    10.198
   8.140         88.33	    10.296
   8.160         82.50	     9.950
   8.180         88.33	    10.296
   8.200         85.83	    10.149
   8.220         87.50	    10.247
   8.240         81.67	     9.899
   8.260        102.50	    11.091
   8.280         85.00	    10.100
   8.300        108.33	    11.402
   8.320         99.17	    10.909
   8.340         81.67	     9.899
   8.360         94.17	    10.630
   8.380         90.00	    10.392
   8.400         95.00	    10.677
   8.420         88.33	    10.296
   8.440         99.17	    10.909
   8.460        112.50	    11.619
   8.480         87.50	    10.247
   8.500         97.50	    10.817
   8.520         95.83	    10.724
   8.540        116.67	    11.832
   8.560        105.83	    11.269
   8.580         97.50	    10.817
   8.600        101.67	    11.045
   8.620        130.00	    12.490
   8.640        122.50	    12.124
   8.660        126.67	    12.329
   8.680        152.50	    13.528
   8.700        129.17	    12.450
   8.720        160.83	    13.892
   8.740        189.17	    15.067
   8.760        205.00	    15.684
   8.780        246.67	    17.205
   8.800        230.00	    16.613
   8.820        340.83	    20.224
   8.840        457.50	    23.431
   8.860        605.83	    26.963
   8.880        757.50	    30.150
   8.900        735.83	    29.715
   8.920        578.33	    26.344
   8.940        375.00	    21.213
   8.960        220.00	    16.248
   8.980        130.83	    12.530
   9.000        103.33	    11.136
   9.020        115.83	    11.790
   9.040         89.17	    10.344
   9.060        102.50	    11.091
   9.080         90.83	    10.440
   9.100         99.17	    10.909
   9.120        139.17	    12.923
   9.140         95.83	    10.724
   9.160         97.50	    10.817
   9.180         94.17	    10.630
   9.200         83.33	    10.000
   9.220        106.67	    11.314
   9.240        100.83	    11.000
   9.260         72.50	     9.327
   9.280         73.33	     9.381
   9.300         71.67	     9.274
   9.320         95.83	    10.724
   9.340         80.83	     9.849
   9.360         90.00	    10.392
   9.380         94.17	    10.630
   9.400         93.33	    10.583
   9.420         87.50	    10.247
   9.440         96.67	    10.770
   9.460         89.17	    10.344
   9.480         83.33	    10.000
   9.500         64.17	     8.775
   9.520         69.17	     9.110
   9.540         80.00	     9.798
   9.560         85.83	    10.149
   9.580         91.67	    10.488
   9.600         94.17	    10.630
   9.620         78.33	     9.695
   9.640         72.50	     9.327
   9.660         79.17	     9.747
   9.680         74.17	     9.434
   9.700         62.50	     8.660
   9.720         89.17	    10.344
   9.740         74.17	     9.434
   9.760         79.17	     9.747
   9.780         82.50	     9.950
   9.800         85.83	    10.149
   9.820         89.17	    10.344
   9.840         98.33	    10.863
   9.860         70.83	     9.220
   9.880         70.83	     9.220
   9.900         87.50	    10.247
   9.920         75.83	     9.539
   9.940         70.00	     9.165
   9.960         68.33	     9.055
   9.980         76.67	     9.592
  10.000         82.50	     9.950
  10.020         74.17	     9.434
  10.040         80.00	     9.798
  10.060         74.17	     9.434
  10.080         83.33	    10.000
  10.100         85.83	    10.149
  10.120         72.50	     9.327
  10.140         77.50	     9.644
  10.160         79.17	     9.747
  10.180         70.00	     9.165
  10.200         75.00	     9.487
  10.220         83.33	    10.000
  10.240         61.67	     8.602
  10.260         68.33	     9.055
  10.280         58.33	     8.367
  10.300         54.17	     8.062
  10.320         76.67	     9.592
  10.340         61.67	     8.602
  10.360         76.67	     9.592
  10.380         80.83	     9.849
  10.400         79.17	     9.747
  10.420         75.83	     9.539
  10.440         75.00	     9.487
  10.460         85.83	    10.149
  10.480         89.17	    10.344
  10.500         95.83	    10.724
  10.520         90.00	    10.392
  10.540         76.67	     9.592
  10.560         82.50	     9.950
  10.580        100.83	    11.000
  10.600         77.50	     9.644
  10.620         75.83	     9.539
  10.640         70.00	     9.165
  10.660         67.50	     9.000
  10.680         73.33	     9.381
  10.700         75.00	     9.487
  10.720         72.50	     9.327
  10.740         82.50	     9.950
  10.760         66.67	     8.944
  10.780         75.83	     9.539
  10.800         70.83	     9.220
  10.820         78.33	     9.695
  10.840         75.00	     9.487
  10.860         64.17	     8.775
  10.880         69.17	     9.110
  10.900         66.67	     8.944
  10.920         69.17	     9.110
  10.940         67.50	     9.000
  10.960         69.17	     9.110
  10.980         73.33	     9.381
  11.000         73.33	     9.381
  11.020         84.17	    10.050
  11.040         76.67	     9.592
  11.060         80.83	     9.849
  11.080         70.83	     9.220
  11.100         65.83	     8.888
  11.120         55.83	     8.185
  11.140         70.83	     9.220
  11.160         77.50	     9.644
  11.180         71.67	     9.274
  11.200         61.67	     8.602
  11.220         60.83	     8.544
  11.240         70.00	     9.165
  11.260         81.67	     9.899
  11.280         75.00	     9.487
  11.300         65.00	     8.832
  11.320         75.00	     9.487
  11.340         68.33	     9.055
  11.360         67.50	     9.000
  11.380         75.83	     9.539
  11.400         61.67	     8.602
  11.420         71.67	     9.274
  11.440         69.17	     9.110
  11.460         75.83	     9.539
  11.480         68.33	     9.055
  11.500         73.33	     9.381
  11.520         75.00	     9.487
  11.540         71.67	     9.274
  11.560         66.67	     8.944
  11.580         73.33	     9.381
  11.600         75.83	     9.539
  11.620         95.83	    10.724
  11.640         63.33	     8.718
  11.660         70.83	     9.220
  11.680         86.67	    10.198
  11.700         72.50	     9.327
  11.720         65.83	     8.888
  11.740         62.50	     8.660
  11.760         65.00	     8.832
  11.780         75.83	     9.539
  11.800         69.17	     9.110
  11.820         72.50	     9.327
  11.840         73.33	     9.381
  11.860         77.50	     9.644
  11.880         68.33	     9.055
  11.900         79.17	     9.747
  11.920         83.33	    10.000
  11.940         80.83	     9.849
  11.960         88.33	    10.296
  11.980         93.33	    10.583
  12.000        101.67	    11.045
  12.020         87.50	    10.247
  12.040         97.50	    10.817
  12.060         96.67	    10.770
  12.080        119.17	    11.958
  12.100        160.83	    13.892
  12.120        170.83	    14.318
  12.140        278.33	    18.276
  12.160        423.33	    22.539
  12.180        613.33	    27.129
  12.200        684.17	    28.653
  12.220        561.67	    25.962
  12.240        371.67	    21.119
  12.260        202.50	    15.588
  12.280        175.83	    14.526
  12.300        165.83	    14.107
  12.320        172.50	    14.387
  12.340        217.50	    16.155
  12.360        225.83	    16.462
  12.380        198.33	    15.427
  12.400        190.83	    15.133
  12.420        197.50	    15.395
  12.440        272.50	    18.083
  12.460        372.50	    21.142
  12.480        418.33	    22.405
  12.500        503.33	    24.576
  12.520        467.50	    23.685
  12.540        334.17	    20.025
  12.560        253.33	    17.436
  12.580        148.33	    13.342
  12.600         82.50	     9.950
  12.620        100.00	    10.954
  12.640         95.83	    10.724
  12.660         92.50	    10.536
  12.680         89.17	    10.344
  12.700         78.33	     9.695
  12.720         77.50	     9.644
  12.740         75.83	     9.539
  12.760         77.50	     9.644
  12.780         66.67	     8.944
  12.800         64.17	     8.775
  12.820         75.00	     9.487
  12.840         70.00	     9.165
  12.860         76.67	     9.592
  12.880         70.83	     9.220
  12.900         74.17	     9.434
  12.920         75.83	     9.539
  12.940         71.67	     9.274
  12.960         70.00	     9.165
  12.980         70.00	     9.165
  13.000         65.83	     8.888
  13.020         75.00	     9.487
  13.040         60.83	     8.544
  13.060         59.17	     8.426
  13.080         80.83	     9.849
  13.100         65.00	     8.832
  13.120         68.33	     9.055
  13.140         65.83	     8.888
  13.160         68.33	     9.055
  13.180         73.33	     9.381
  13.200         76.67	     9.592
  13.220         57.50	     8.307
  13.240         76.67	     9.592
  13.260         71.67	     9.274
  13.280         57.50	     8.307
  13.300         80.00	     9.798
  13.320         64.17	     8.775
  13.340         71.67	     9.274
  13.360         67.50	     9.000
  13.380         63.33	     8.718
  13.400         66.67	     8.944
  13.420         66.67	     8.944
  13.440         69.17	     9.110
  13.460         54.17	     8.062
  13.480         74.17	     9.434
  13.500         60.83	     8.544
  13.520         73.33	     9.381
  13.540         86.67	    10.198
  13.560         60.00	     8.485
  13.580         70.00	     9.165
  13.600         70.00	     9.165
  13.620         80.83	     9.849
  13.640         83.33	    10.000
  13.660         73.33	     9.381
  13.680         77.50	     9.644
  13.700         83.33	    10.000
  13.720         63.33	     8.718
  13.740         76.67	     9.592
  13.760         87.50	    10.247
  13.780         78.33	     9.695
  13.800         80.83	     9.849
  13.820         80.83	     9.849
  13.840         77.50	     9.644
  13.860         81.67	     9.899
  13.880         88.33	    10.296
  13.900         61.67	     8.602
  13.920         73.33	     9.381
  13.940         70.83	     9.220
  13.960         65.00	     8.832
  13.980         80.83	     9.849
  14.000         72.50	     9.327
  14.020         65.83	     8.888
  14.040         60.83	     8.544
  14.060         60.83	     8.544
  14.080         70.00	     9.165
  14.100         67.50	     9.000
  14.120         60.83	     8.544
  14.140         69.17	     9.110
  14.160         49.17	     7.681
  14.180         71.67	     9.274
  14.200         51.67	     7.874
  14.220         61.67	     8.602
  14.240         61.67	     8.602
  14.260         56.67	     8.246
  14.280         67.50	     9.000
  14.300         62.50	     8.660
  14.320         54.17	     8.062
  14.340         80.00	     9.798
  14.360         53.33	     8.000
  14.380         59.17	     8.426
  14.400         70.00	     9.165
  14.420         55.83	     8.185
  14.440         67.50	     9.000
  14.460         71.67	     9.274
  14.480         70.83	     9.220
  14.500         54.17	     8.062
  14.520         50.00	     7.746
  14.540         62.50	     8.660
  14.560         61.67	     8.602
  14.580         53.33	     8.000
  14.600         61.67	     8.602
  14.620         58.33	     8.367
  14.640         70.83	     9.220
  14.660         55.00	     8.124
  14.680         47.50	     7.550
  14.700         66.67	     8.944
  14.720         75.83	     9.539
  14.740         48.33	     7.616
  14.760         55.83	     8.185
  14.780         62.50	     8.660
  14.800         58.33	     8.367
  14.820         55.83	     8.185
  14.840         58.33	     8.367
  14.860         66.67	     8.944
  14.880         60.83	     8.544
  14.900         55.00	     8.124
  14.920         54.17	     8.062
  14.940         71.67	     9.274
  14.960         73.33	     9.381
  14.980         62.50	     8.660
  15.000         60.00	     8.485
  15.020         50.83	     7.810
  15.040         71.67	     9.274
  15.060         65.83	     8.888
  15.080         56.67	     8.246
  15.100         55.83	     8.185
  15.120         64.17	     8.775
  15.140         67.50	     9.000
  15.160         66.67	     8.944
  15.180         54.17	     8.062
  15.200         62.50	     8.660
  15.220         63.33	     8.718
  15.240         70.00	     9.165
  15.260         59.17	     8.426
  15.280         60.00	     8.485
  15.300         50.00	     7.746
  15.320         57.50	     8.307
  15.340         48.33	     7.616
  15.360         45.83	     7.416
  15.380         47.50	     7.550
  15.400         71.67	     9.274
  15.420         52.50	     7.937
  15.440         55.83	     8.185
  15.460         51.67	     7.874
  15.480         64.17	     8.775
  15.500         57.50	     8.307
  15.520         60.00	     8.485
  15.540         62.50	     8.660
  15.560         69.17	     9.110
  15.580         44.17	     7.280
  15.600         56.67	     8.246
  15.620         61.67	     8.602
  15.640         56.67	     8.246
  15.660         63.33	     8.718
  15.680         65.83	     8.888
  15.700         57.50	     8.307
  15.720         55.83	     8.185
  15.740         75.83	     9.539
  15.760         55.83	     8.185
  15.780         50.00	     7.746
  15.800         64.17	     8.775
  15.820         70.83	     9.220
  15.840         59.17	     8.426
  15.860         50.00	     7.746
  15.880         65.00	     8.832
  15.900         65.83	     8.888
  15.920         55.00	     8.124
  15.940         61.67	     8.602
  15.960         63.33	     8.718
  15.980         67.50	     9.000
  16.000         61.67	     8.602
  16.020         52.50	     7.937
  16.040         71.67	     9.274
  16.060         52.50	     7.937
  16.080         70.00	     9.165
  16.100         65.83	     8.888
  16.120         57.50	     8.307
  16.140         59.17	     8.426
  16.160         67.50	     9.000
  16.180         52.50	     7.937
  16.200         58.33	     8.367
  16.220         51.67	     7.874
  16.240         50.83	     7.810
  16.260         62.50	     8.660
  16.280         66.67	     8.944
  16.300         70.83	     9.220
  16.320         52.50	     7.937
  16.340         55.00	     8.124
  16.360         50.00	     7.746
  16.380         55.83	     8.185
  16.400         64.17	     8.775
  16.420         47.50	     7.550
  16.440         54.17	     8.062
  16.460         50.83	     7.810
  16.480         60.00	     8.485
  16.500         52.50	     7.937
  16.520         46.67	     7.483
  16.540         48.33	     7.616
  16.560         50.00	     7.746
  16.580         74.17	     9.434
  16.600         64.17	     8.775
  16.620         59.17	     8.426
  16.640         67.50	     9.000
  16.660         56.67	     8.246
  16.680         51.67	     7.874
  16.700         56.67	     8.246
  16.720         63.33	     8.718
  16.740         55.00	     8.124
  16.760         58.33	     8.367
  16.780         58.33	     8.367
  16.800         55.83	     8.185
  16.820         56.67	     8.246
  16.840         58.33	     8.367
  16.860         48.33	     7.616
  16.880         55.00	     8.124
  16.900         51.67	     7.874
  16.920         62.50	     8.660
  16.940         50.83	     7.810
  16.960         55.00	     8.124
  16.980         70.00	     9.165
  17.000         64.17	     8.775
  17.020         59.17	     8.426
  17.040         54.17	     8.062
  17.060         71.67	     9.274
  17.080         57.50	     8.307
  17.100         65.00	     8.832
  17.120         54.17	     8.062
  17.140         66.67	     8.944
  17.160         54.17	     8.062
  17.180         60.00	     8.485
  17.200         60.83	     8.544
  17.220         45.00	     7.348
  17.240         50.00	     7.746
  17.260         58.33	     8.367
  17.280         52.50	     7.937
  17.300         70.83	     9.220
  17.320         61.67	     8.602
  17.340         47.50	     7.550
  17.360         62.50	     8.660
  17.380         61.67	     8.602
  17.400         55.83	     8.185
  17.420         64.17	     8.775
  17.440         42.50	     7.141
  17.460         65.00	     8.832
  17.480         69.17	     9.110
  17.500         70.00	     9.165
  17.520         62.50	     8.660
  17.540         56.67	     8.246
  17.560         70.00	     9.165
  17.580         57.50	     8.307
  17.600         60.83	     8.544
  17.620         70.00	     9.165
  17.640         65.00	     8.832
  17.660         74.17	     9.434
  17.680         73.33	     9.381
  17.700         94.17	    10.630
  17.720        107.50	    11.358
  17.740        127.50	    12.369
  17.760        159.17	    13.820
  17.780        234.17	    16.763
  17.800        324.17	    19.723
  17.820        452.50	    23.302
  17.840        503.33	    24.576
  17.860        424.17	    22.561
  17.880        364.17	    20.905
  17.900        238.33	    16.912
  17.920        163.33	    14.000
  17.940        100.00	    10.954
  17.960         78.33	     9.695
  17.980         64.17	     8.775
  18.000         68.33	     9.055
  18.020         64.17	     8.775
  18.040         60.83	     8.544
  18.060         65.00	     8.832
  18.080         64.17	     8.775
  18.100         69.17	     9.110
  18.120         53.33	     8.000
  18.140         61.67	     8.602
  18.160         65.00	     8.832
  18.180         60.00	     8.485
  18.200         56.67	     8.246
  18.220         57.50	     8.307
  18.240         55.00	     8.124
  18.260         60.83	     8.544
  18.280         75.83	     9.539
  18.300         50.83	     7.810
  18.320         62.50	     8.660
  18.340         60.00	     8.485
  18.360         76.67	     9.592
  18.380         72.50	     9.327
  18.400         75.83	     9.539
  18.420         67.50	     9.000
  18.440         65.00	     8.832
  18.460         68.33	     9.055
  18.480         73.33	     9.381
  18.500         76.67	     9.592
  18.520         78.33	     9.695
  18.540         90.83	    10.440
  18.560        106.67	    11.314
  18.580         96.67	    10.770
  18.600        100.83	    11.000
  18.620         83.33	    10.000
  18.640         87.50	    10.247
  18.660         69.17	     9.110
  18.680        108.33	    11.402
  18.700         98.33	    10.863
  18.720        125.83	    12.288
  18.740        153.33	    13.565
  18.760        201.67	    15.556
  18.780        219.17	    16.217
  18.800        230.00	    16.613
  18.820        211.67	    15.937
  18.840        180.83	    14.731
  18.860        140.00	    12.961
  18.880         93.33	    10.583
  18.900         85.83	    10.149
  18.920         70.83	     9.220
  18.940         56.67	     8.246
  18.960         60.00	     8.485
  18.980         74.17	     9.434
  19.000         63.33	     8.718
  19.020         65.00	     8.832
  19.040         63.33	     8.718
  19.060         57.50	     8.307
  19.080         55.00	     8.124
  19.100         65.00	     8.832
  19.120         70.83	     9.220
  19.140         53.33	     8.000
  19.160         55.00	     8.124
  19.180         63.33	     8.718
  19.200         61.67	     8.602
  19.220         66.67	     8.944
  19.240         63.33	     8.718
  19.260         62.50	     8.660
  19.280         65.83	     8.888
  19.300         75.83	     9.539
  19.320         73.33	     9.381
  19.340         65.83	     8.888
  19.360         73.33	     9.381
  19.380         69.17	     9.110
  19.400         73.33	     9.381
  19.420         70.83	     9.220
  19.440         55.00	     8.124
  19.460         66.67	     8.944
  19.480         67.50	     9.000
  19.500         70.83	     9.220
  19.520         69.17	     9.110
  19.540         60.00	     8.485
  19.560         63.33	     8.718
  19.580         65.83	     8.888
  19.600         61.67	     8.602
  19.620         76.67	     9.592
  19.640         71.67	     9.274
  19.660         66.67	     8.944
  19.680         85.00	    10.100
  19.700         75.00	     9.487
  19.720         69.17	     9.110
  19.740         68.33	     9.055
  19.760         81.67	     9.899
  19.780         95.00	    10.677
  19.800         99.17	    10.909
  19.820        149.17	    13.379
  19.840        120.00	    12.000
  19.860         98.33	    10.863
  19.880        108.33	    11.402
  19.900         72.50	     9.327
  19.920         79.17	     9.747
  19.940         65.00	     8.832
  19.960         71.67	     9.274
  19.980         77.50	     9.644
  20.000         70.00	     9.165
  20.020         75.83	     9.539
  20.040         64.17	     8.775
  20.060         48.33	     7.616
  20.080         52.50	     7.937
  20.100         65.83	     8.888
  20.120         55.00	     8.124
  20.140         48.33	     7.616
  20.160         56.67	     8.246
  20.180         54.17	     8.062
  20.200         50.83	     7.810
  20.220         56.67	     8.246
  20.240         51.67	     7.874
  20.260         50.00	     7.746
  20.280         47.50	     7.550
  20.300         63.33	     8.718
  20.320         54.17	     8.062
  20.340         57.50	     8.307
  20.360         52.50	     7.937
  20.380         65.00	     8.832
  20.400         55.00	     8.124
  20.420         47.50	     7.550
  20.440         49.17	     7.681
  20.460         50.83	     7.810
  20.480         75.00	     9.487
  20.500         53.33	     8.000
  20.520         66.67	     8.944
  20.540         60.00	     8.485
  20.560         61.67	     8.602
  20.580         62.50	     8.660
  20.600         60.83	     8.544
  20.620         70.00	     9.165
  20.640         66.67	     8.944
  20.660         59.17	     8.426
  20.680         66.67	     8.944
  20.700         60.83	     8.544
  20.720         62.50	     8.660
  20.740         79.17	     9.747
  20.760         83.33	    10.000
  20.780        110.00	    11.489
  20.800        143.33	    13.115
  20.820        180.83	    14.731
  20.840        205.83	    15.716
  20.860        205.83	    15.716
  20.880        241.67	    17.029
  20.900        209.17	    15.843
  20.920        150.83	    13.454
  20.940        125.83	    12.288
  20.960        116.67	    11.832
  20.980        101.67	    11.045
  21.000         65.00	     8.832
  21.020         71.67	     9.274
  21.040         70.83	     9.220
  21.060         62.50	     8.660
  21.080         72.50	     9.327
  21.100         70.83	     9.220
  21.120         56.67	     8.246
  21.140         57.50	     8.307
  21.160         70.83	     9.220
  21.180         56.67	     8.246
  21.200         50.83	     7.810
  21.220         60.00	     8.485
  21.240         67.50	     9.000
  21.260         48.33	     7.616
  21.280         68.33	     9.055
  21.300         55.83	     8.185
  21.320         65.83	     8.888
  21.340         69.17	     9.110
  21.360         55.00	     8.124
  21.380         67.50	     9.000
  21.400         60.00	     8.485
  21.420         52.50	     7.937
  21.440         71.67	     9.274
  21.460         55.00	     8.124
  21.480         56.67	     8.246
  21.500         51.67	     7.874
  21.520         58.33	     8.367
  21.540         39.17	     6.856
  21.560         50.00	     7.746
  21.580         59.17	     8.426
  21.600         56.67	     8.246
  21.620         60.83	     8.544
  21.640         54.17	     8.062
  21.660         50.83	     7.810
  21.680         62.50	     8.660
  21.700         70.83	     9.220
  21.720         55.00	     8.124
  21.740         55.83	     8.185
  21.760         56.67	     8.246
  21.780         55.83	     8.185
  21.800         54.17	     8.062
  21.820         40.00	     6.928
  21.840         62.50	     8.660
  21.860         48.33	     7.616
  21.880         45.83	     7.416
  21.900         50.00	     7.746
  21.920         56.67	     8.246
  21.940         65.83	     8.888
  21.960         57.50	     8.307
  21.980         75.00	     9.487
  22.000         82.50	     9.950
  22.020        100.00	    10.954
  22.040        105.83	    11.269
  22.060        111.67	    11.576
  22.080         87.50	    10.247
  22.100         90.00	    10.392
  22.120         66.67	     8.944
  22.140         90.00	    10.392
  22.160         98.33	    10.863
  22.180        109.17	    11.446
  22.200         91.67	    10.488
  22.220         78.33	     9.695
  22.240        102.50	    11.091
  22.260         60.83	     8.544
  22.280         57.50	     8.307
  22.300         70.83	     9.220
  22.320         58.33	     8.367
  22.340         63.33	     8.718
  22.360         52.50	     7.937
  22.380         52.50	     7.937
  22.400         71.67	     9.274
  22.420         61.67	     8.602
  22.440         71.67	     9.274
  22.460         66.67	     8.944
  22.480         58.33	     8.367
  22.500         57.50	     8.307
  22.520         61.67	     8.602
  22.540         63.33	     8.718
  22.560         76.67	     9.592
  22.580         65.00	     8.832
  22.600         62.50	     8.660
  22.620         43.33	     7.211
  22.640         51.67	     7.874
  22.660         55.83	     8.185
  22.680         50.00	     7.746
  22.700         65.00	     8.832
  22.720         62.50	     8.660
  22.740         59.17	     8.426
  22.760         66.67	     8.944
  22.780         52.50	     7.937
  22.800         52.50	     7.937
  22.820         59.17	     8.426
  22.840         54.17	     8.062
  22.860         69.17	     9.110
  22.880         89.17	    10.344
  22.900         75.83	     9.539
  22.920         70.83	     9.220
  22.940         70.00	     9.165
  22.960         77.50	     9.644
  22.980         75.00	     9.487
  23.000         89.17	    10.344
  23.020         85.83	    10.149
  23.040         73.33	     9.381
  23.060         93.33	    10.583
  23.080         81.67	     9.899
  23.100         59.17	     8.426
  23.120         66.67	     8.944
  23.140         61.67	     8.602
  23.160         55.00	     8.124
  23.180         50.00	     7.746
  23.200         63.33	     8.718
  23.220         47.50	     7.550
  23.240         47.50	     7.550
  23.260         66.67	     8.944
  23.280         60.00	     8.485
  23.300         37.50	     6.708
  23.320         61.67	     8.602
  23.340         48.33	     7.616
  23.360         70.00	     9.165
  23.380         62.50	     8.660
  23.400         75.83	     9.539
  23.420         68.33	     9.055
  23.440         70.83	     9.220
  23.460         86.67	    10.198
  23.480        124.17	    12.207
  23.500        145.00	    13.191
  23.520        162.50	    13.964
  23.540        165.83	    14.107
  23.560        150.00	    13.416
  23.580        140.83	    13.000
  23.600        119.17	    11.958
  23.620        105.00	    11.225
  23.640         70.00	     9.165
  23.660         73.33	     9.381
  23.680         65.83	     8.888
  23.700         62.50	     8.660
  23.720         75.00	     9.487
  23.740         70.00	     9.165
  23.760         64.17	     8.775
  23.780         60.83	     8.544
  23.800         64.17	     8.775
  23.820         61.67	     8.602
  23.840         55.83	     8.185
  23.860         61.67	     8.602
  23.880         50.00	     7.746
  23.900         66.67	     8.944
  23.920         62.50	     8.660
  23.940         72.50	     9.327
  23.960         62.50	     8.660
  23.980         78.33	     9.695
  24.000         72.50	     9.327
  24.020         82.50	     9.950
  24.040         85.00	    10.100
  24.060         74.17	     9.434
  24.080         79.17	     9.747
  24.100         63.33	     8.718
  24.120         65.00	     8.832
  24.140         83.33	    10.000
  24.160         97.50	    10.817
  24.180         95.83	    10.724
  24.200         83.33	    10.000
  24.220         90.00	    10.392
  24.240        115.83	    11.790
  24.260        125.00	    12.247
  24.280        149.17	    13.379
  24.300        133.33	    12.649
  24.320        114.17	    11.705
  24.340         85.83	    10.149
  24.360        105.83	    11.269
  24.380         75.00	     9.487
  24.400         77.50	     9.644
  24.420         64.17	     8.775
  24.440         87.50	    10.247
  24.460         82.50	     9.950
  24.480         85.83	    10.149
  24.500        115.00	    11.747
  24.520        136.67	    12.806
  24.540        175.83	    14.526
  24.560        184.17	    14.866
  24.580        230.83	    16.643
  24.600        245.83	    17.176
  24.620        241.67	    17.029
  24.640        245.83	    17.176
  24.660        207.50	    15.780
  24.680        191.67	    15.166
  24.700        175.00	    14.491
  24.720        157.50	    13.748
  24.740        149.17	    13.379
  24.760        113.33	    11.662
  24.780        124.17	    12.207
  24.800        114.17	    11.705
  24.820        123.33	    12.166
  24.840        130.83	    12.530
  24.860        117.50	    11.874
  24.880        118.33	    11.916
  24.900        115.00	    11.747
  24.920         97.50	    10.817
  24.940         92.50	    10.536
  24.960         98.33	    10.863
  24.980         99.17	    10.909
  25.000        102.50	    11.091
  25.020        120.83	    12.042
  25.040        127.50	    12.369
  25.060        145.83	    13.229
  25.080        208.33	    15.811
  25.100        224.17	    16.401
  25.120        299.17	    18.947
  25.140        374.17	    21.190
  25.160        455.83	    23.388
  25.180        444.17	    23.087
  25.200        345.83	    20.372
  25.220        299.17	    18.947
  25.240        215.00	    16.062
  25.260        169.17	    14.248
  25.280        115.83	    11.790
  25.300        100.83	    11.000
  25.320         96.67	    10.770
  25.340         98.33	    10.863
  25.360        106.67	    11.314
  25.380        115.83	    11.790
  25.400        135.83	    12.767
  25.420        115.83	    11.790
  25.440        126.67	    12.329
  25.460        135.83	    12.767
  25.480        153.33	    13.565
  25.500        178.33	    14.629
  25.520        151.67	    13.491
  25.540        124.17	    12.207
  25.560        122.50	    12.124
  25.580         91.67	    10.488
  25.600         87.50	    10.247
  25.620         95.83	    10.724
  25.640         82.50	     9.950
  25.660         85.83	    10.149
  25.680         94.17	    10.630
  25.700         85.83	    10.149
  25.720         85.00	    10.100
  25.740         99.17	    10.909
  25.760         80.83	     9.849
  25.780         80.00	     9.798
  25.800         58.33	     8.367
  25.820         70.83	     9.220
  25.840         86.67	    10.198
  25.860         70.00	     9.165
  25.880         70.00	     9.165
  25.900         68.33	     9.055
  25.920         58.33	     8.367
  25.940         60.00	     8.485
  25.960         76.67	     9.592
  25.980         58.33	     8.367
  26.000         60.00	     8.485
  26.020         50.83	     7.810
  26.040         75.83	     9.539
  26.060         65.00	     8.832
  26.080         55.00	     8.124
  26.100         58.33	     8.367
  26.120         83.33	    10.000
  26.140         69.17	     9.110
  26.160         67.50	     9.000
  26.180         76.67	     9.592
  26.200         57.50	     8.307
  26.220         66.67	     8.944
  26.240         60.83	     8.544
  26.260         81.67	     9.899
  26.280         80.83	     9.849
  26.300        100.83	    11.000
  26.320         90.00	    10.392
  26.340         99.17	    10.909
  26.360        104.17	    11.180
  26.380        133.33	    12.649
  26.400        140.00	    12.961
  26.420        145.00	    13.191
  26.440        172.50	    14.387
  26.460        184.17	    14.866
  26.480        229.17	    16.583
  26.500        229.17	    16.583
  26.520        267.50	    17.916
  26.540        311.67	    19.339
  26.560        461.67	    23.537
  26.580        758.33	    30.166
  26.600       1288.33	    39.319
  26.620       1859.17	    47.233
  26.640       1910.00	    47.875
  26.660       1555.83	    43.209
  26.680       1380.83	    40.706
  26.700       1186.67	    37.736
  26.720        966.67	    34.059
  26.740        597.50	    26.777
  26.760        402.50	    21.977
  26.780        354.17	    20.616
  26.800        411.67	    22.226
  26.820        520.00	    24.980
  26.840        844.17	    31.828
  26.860       1430.83	    41.437
  26.880       1884.17	    47.550
  26.900       1773.33	    46.130
  26.920       1434.17	    41.485
  26.940       1427.50	    41.388
  26.960       1200.00	    37.947
  26.980        793.33	    30.854
  27.000        531.67	    25.259
  27.020        350.00	    20.494
  27.040        181.67	    14.765
  27.060        158.33	    13.784
  27.080        150.83	    13.454
  27.100        121.67	    12.083
  27.120        125.83	    12.288
  27.140         97.50	    10.817
  27.160         98.33	    10.863
  27.180         94.17	    10.630
  27.200         95.83	    10.724
  27.220         93.33	    10.583
  27.240         74.17	     9.434
  27.260         98.33	    10.863
  27.280         88.33	    10.296
  27.300         82.50	     9.950
  27.320         77.50	     9.644
  27.340         84.17	    10.050
  27.360         75.00	     9.487
  27.380         84.17	    10.050
  27.400         79.17	     9.747
  27.420         73.33	     9.381
  27.440         77.50	     9.644
  27.460        110.00	    11.489
  27.480        120.00	    12.000
  27.500        133.33	    12.649
  27.520        102.50	    11.091
  27.540         94.17	    10.630
  27.560         85.00	    10.100
  27.580         83.33	    10.000
  27.600         78.33	     9.695
  27.620         86.67	    10.198
  27.640         88.33	    10.296
  27.660         85.00	    10.100
  27.680        119.17	    11.958
  27.700        159.17	    13.820
  27.720        143.33	    13.115
  27.740        155.83	    13.675
  27.760        172.50	    14.387
  27.780        160.00	    13.856
  27.800        164.17	    14.036
  27.820        192.50	    15.199
  27.840        200.00	    15.492
  27.860        244.17	    17.117
  27.880        289.17	    18.628
  27.900        305.83	    19.157
  27.920        311.67	    19.339
  27.940        308.33	    19.235
  27.960        270.83	    18.028
  27.980        244.17	    17.117
  28.000        207.50	    15.780
  28.020        157.50	    13.748
  28.040        135.83	    12.767
  28.060        123.33	    12.166
  28.080        117.50	    11.874
  28.100        111.67	    11.576
  28.120        118.33	    11.916
  28.140        121.67	    12.083
  28.160        111.67	    11.576
  28.180        112.50	    11.619
  28.200        115.00	    11.747
  28.220         75.83	     9.539
  28.240         91.67	    10.488
  28.260         83.33	    10.000
  28.280         97.50	    10.817
  28.300         82.50	     9.950
  28.320         97.50	    10.817
  28.340         88.33	    10.296
  28.360         75.83	     9.539
  28.380         74.17	     9.434
  28.400         70.00	     9.165
  28.420         74.17	     9.434
  28.440         60.83	     8.544
  28.460         56.67	     8.246
  28.480         70.83	     9.220
  28.500         80.00	     9.798
  28.520         85.83	    10.149
  28.540         82.50	     9.950
  28.560         89.17	    10.344
  28.580         85.00	    10.100
  28.600         75.83	     9.539
  28.620         82.50	     9.950
  28.640        103.33	    11.136
  28.660        117.50	    11.874
  28.680        130.83	    12.530
  28.700        100.83	    11.000
  28.720         72.50	     9.327
  28.740         96.67	    10.770
  28.760        100.83	    11.000
  28.780         65.83	     8.888
  28.800         80.00	     9.798
  28.820         59.17	     8.426
  28.840         48.33	     7.616
  28.860         49.17	     7.681
  28.880         45.83	     7.416
  28.900         53.33	     8.000
  28.920         59.17	     8.426
  28.940         67.50	     9.000
  28.960         56.67	     8.246
  28.980         52.50	     7.937
  29.000         65.83	     8.888
  29.020         41.67	     7.071
  29.040         49.17	     7.681
  29.060         55.00	     8.124
  29.080         55.83	     8.185
  29.100         51.67	     7.874
  29.120         49.17	     7.681
  29.140         67.50	     9.000
  29.160         53.33	     8.000
  29.180         64.17	     8.775
  29.200         51.67	     7.874
  29.220         46.67	     7.483
  29.240         52.50	     7.937
  29.260         52.50	     7.937
  29.280         54.17	     8.062
  29.300         53.33	     8.000
  29.320         50.83	     7.810
  29.340         53.33	     8.000
  29.360         45.83	     7.416
  29.380         40.83	     7.000
  29.400         52.50	     7.937
  29.420         45.00	     7.348
  29.440         60.00	     8.485
  29.460         45.00	     7.348
  29.480         50.83	     7.810
  29.500         68.33	     9.055
  29.520         45.00	     7.348
  29.540         57.50	     8.307
  29.560         57.50	     8.307
  29.580         52.50	     7.937
  29.600         50.83	     7.810
  29.620         40.00	     6.928
  29.640         51.67	     7.874
  29.660         50.83	     7.810
  29.680         57.50	     8.307
  29.700         64.17	     8.775
  29.720         65.83	     8.888
  29.740         61.67	     8.602
  29.760         72.50	     9.327
  29.780         55.00	     8.124
  29.800         73.33	     9.381
  29.820         59.17	     8.426
  29.840         81.67	     9.899
  29.860        100.83	    11.000
  29.880        101.67	    11.045
  29.900         84.17	    10.050
  29.920         97.50	    10.817
  29.940         90.83	    10.440
  29.960         66.67	     8.944
  29.980         77.50	     9.644
  30.000         66.67	     8.944
  30.020         75.00	     9.487
  30.040         54.17	     8.062
  30.060         66.67	     8.944
  30.080         67.50	     9.000
  30.100         70.00	     9.165
  30.120         71.67	     9.274
  30.140         70.83	     9.220
  30.160         66.67	     8.944
  30.180         70.83	     9.220
  30.200         72.50	     9.327
  30.220         60.00	     8.485
  30.240         50.00	     7.746
  30.260         63.33	     8.718
  30.280         50.00	     7.746
  30.300         54.17	     8.062
  30.320         53.33	     8.000
  30.340         68.33	     9.055
  30.360         76.67	     9.592
  30.380         56.67	     8.246
  30.400         75.83	     9.539
  30.420         64.17	     8.775
  30.440         67.50	     9.000
  30.460         98.33	    10.863
  30.480         76.67	     9.592
  30.500         84.17	    10.050
  30.520         83.33	    10.000
  30.540         69.17	     9.110
  30.560         91.67	    10.488
  30.580         67.50	     9.000
  30.600         55.00	     8.124
  30.620         55.00	     8.124
  30.640         49.17	     7.681
  30.660         60.00	     8.485
  30.680         56.67	     8.246
  30.700         39.17	     6.856
  30.720         56.67	     8.246
  30.740         54.17	     8.062
  30.760         50.83	     7.810
  30.780         64.17	     8.775
  30.800         64.17	     8.775
  30.820         59.17	     8.426
  30.840         71.67	     9.274
  30.860         69.17	     9.110
  30.880         69.17	     9.110
  30.900         70.00	     9.165
  30.920         64.17	     8.775
  30.940         67.50	     9.000
  30.960         62.50	     8.660
  30.980         58.33	     8.367
  31.000         62.50	     8.660
  31.020         70.83	     9.220
  31.040         65.00	     8.832
  31.060         46.67	     7.483
  31.080         64.17	     8.775
  31.100         50.00	     7.746
  31.120         51.67	     7.874
  31.140         84.17	    10.050
  31.160         87.50	    10.247
  31.180        139.17	    12.923
  31.200        145.00	    13.191
  31.220        118.33	    11.916
  31.240        115.83	    11.790
  31.260        123.33	    12.166
  31.280        125.00	    12.247
  31.300         85.83	    10.149
  31.320         80.83	     9.849
  31.340         80.83	     9.849
  31.360         75.00	     9.487
  31.380         56.67	     8.246
  31.400         55.00	     8.124
  31.420         55.83	     8.185
  31.440         59.17	     8.426
  31.460         61.67	     8.602
  31.480         55.83	     8.185
  31.500         67.50	     9.000
  31.520         79.17	     9.747
  31.540        102.50	    11.091
  31.560         90.00	    10.392
  31.580         93.33	    10.583
  31.600         99.17	    10.909
  31.620         98.33	    10.863
  31.640        103.33	    11.136
  31.660         85.83	    10.149
  31.680         70.00	     9.165
  31.700         72.50	     9.327
  31.720         65.83	     8.888
  31.740         52.50	     7.937
  31.760         40.00	     6.928
  31.780         47.50	     7.550
  31.800         65.00	     8.832
  31.820         45.00	     7.348
  31.840         48.33	     7.616
  31.860         45.83	     7.416
  31.880         64.17	     8.775
  31.900         64.17	     8.775
  31.920         56.67	     8.246
  31.940         60.00	     8.485
  31.960         60.83	     8.544
  31.980         50.00	     7.746
  32.000         57.50	     8.307
  32.020         56.67	     8.246
  32.040         62.50	     8.660
  32.060         52.50	     7.937
  32.080         68.33	     9.055
  32.100         58.33	     8.367
  32.120         59.17	     8.426
  32.140         50.83	     7.810
  32.160         48.33	     7.616
  32.180         49.17	     7.681
  32.200         53.33	     8.000
  32.220         49.17	     7.681
  32.240         57.50	     8.307
  32.260         44.17	     7.280
  32.280         45.83	     7.416
  32.300         60.00	     8.485
  32.320         45.83	     7.416
  32.340         36.67	     6.633
  32.360         37.50	     6.708
  32.380         34.17	     6.403
  32.400         33.33	     6.325
  32.420         39.17	     6.856
  32.440         43.33	     7.211
  32.460         49.17	     7.681
  32.480         39.17	     6.856
  32.500         38.33	     6.782
  32.520         40.83	     7.000
  32.540         44.17	     7.280
  32.560         29.17	     5.916
  32.580         36.67	     6.633
  32.600         47.50	     7.550
  32.620         41.67	     7.071
  32.640         39.17	     6.856
  32.660         33.33	     6.325
  32.680         55.83	     8.185
  32.700         42.50	     7.141
  32.720         39.17	     6.856
  32.740         40.83	     7.000
  32.760         45.00	     7.348
  32.780         48.33	     7.616
  32.800         40.83	     7.000
  32.820         39.17	     6.856
  32.840         53.33	     8.000
  32.860         39.17	     6.856
  32.880         41.67	     7.071
  32.900         40.83	     7.000
  32.920         41.67	     7.071
  32.940         45.83	     7.416
  32.960         45.83	     7.416
  32.980         46.67	     7.483
  33.000         55.83	     8.185
  33.020         57.50	     8.307
  33.040         50.00	     7.746
  33.060         64.17	     8.775
  33.080         61.67	     8.602
  33.100         54.17	     8.062
  33.120         54.17	     8.062
  33.140         40.83	     7.000
  33.160         53.33	     8.000
  33.180         39.17	     6.856
  33.200         45.00	     7.348
  33.220         43.33	     7.211
  33.240         46.67	     7.483
  33.260         53.33	     8.000
  33.280         42.50	     7.141
  33.300         39.17	     6.856
  33.320         42.50	     7.141
  33.340         49.17	     7.681
  33.360         41.67	     7.071
  33.380         41.67	     7.071
  33.400         45.00	     7.348
  33.420         45.00	     7.348
  33.440         42.50	     7.141
  33.460         52.50	     7.937
  33.480         44.17	     7.280
  33.500         53.33	     8.000
  33.520         37.50	     6.708
  33.540         40.83	     7.000
  33.560         51.67	     7.874
  33.580         40.83	     7.000
  33.600         35.83	     6.557
  33.620         47.50	     7.550
  33.640         45.00	     7.348
  33.660         38.33	     6.782
  33.680         41.67	     7.071
  33.700         40.83	     7.000
  33.720         31.67	     6.164
  33.740         41.67	     7.071
  33.760         43.33	     7.211
  33.780         51.67	     7.874
  33.800         56.67	     8.246
  33.820         74.17	     9.434
  33.840         99.17	    10.909
  33.860         71.67	     9.274
  33.880         65.83	     8.888
  33.900         59.17	     8.426
  33.920         75.83	     9.539
  33.940         68.33	     9.055
  33.960         70.00	     9.165
  33.980         42.50	     7.141
  34.000         45.00	     7.348
  34.020         49.17	     7.681
  34.040         50.00	     7.746
  34.060         44.17	     7.280
  34.080         52.50	     7.937
  34.100         41.67	     7.071
  34.120         50.00	     7.746
  34.140         47.50	     7.550
  34.160         50.83	     7.810
  34.180         50.83	     7.810
  34.200         62.50	     8.660
  34.220         54.17	     8.062
  34.240         49.17	     7.681
  34.260         47.50	     7.550
  34.280         54.17	     8.062
  34.300         90.00	    10.392
  34.320        140.00	    12.961
  34.340        167.50	    14.177
  34.360        155.00	    13.638
  34.380        102.50	    11.091
  34.400         98.33	    10.863
  34.420        130.00	    12.490
  34.440        133.33	    12.649
  34.460         97.50	    10.817
  34.480         89.17	    10.344
  34.500         97.50	    10.817
  34.520         95.83	    10.724
  34.540         97.50	    10.817
  34.560        101.67	    11.045
  34.580        118.33	    11.916
  34.600         92.50	    10.536
  34.620         90.83	    10.440
  34.640         74.17	     9.434
  34.660         86.67	    10.198
  34.680         75.83	     9.539
  34.700         79.17	     9.747
  34.720         70.83	     9.220
  34.740         70.00	     9.165
  34.760         74.17	     9.434
  34.780         66.67	     8.944
  34.800         87.50	    10.247
  34.820         82.50	     9.950
  34.840         74.17	     9.434
  34.860         72.50	     9.327
  34.880         80.83	     9.849
  34.900        106.67	    11.314
  34.920        113.33	    11.662
  34.940        120.00	    12.000
  34.960        117.50	    11.874
  34.980        116.67	    11.832
  35.000        125.83	    12.288
  35.020        100.83	    11.000
  35.040        106.67	    11.314
  35.060         99.17	    10.909
  35.080         98.33	    10.863
  35.100         98.33	    10.863
  35.120         95.83	    10.724
  35.140         69.17	     9.110
  35.160         81.67	     9.899
  35.180         75.00	     9.487
  35.200         71.67	     9.274
  35.220         74.17	     9.434
  35.240         71.67	     9.274
  35.260         80.00	     9.798
  35.280         71.67	     9.274
  35.300         74.17	     9.434
  35.320         96.67	    10.770
  35.340        115.00	    11.747
  35.360        173.33	    14.422
  35.380        164.17	    14.036
  35.400        160.83	    13.892
  35.420        120.83	    12.042
  35.440        120.00	    12.000
  35.460        148.33	    13.342
  35.480        148.33	    13.342
  35.500        140.83	    13.000
  35.520        126.67	    12.329
  35.540        129.17	    12.450
  35.560        117.50	    11.874
  35.580        127.50	    12.369
  35.600        117.50	    11.874
  35.620        120.83	    12.042
  35.640        134.17	    12.689
  35.660         82.50	     9.950
  35.680        102.50	    11.091
  35.700         83.33	    10.000
  35.720         91.67	    10.488
  35.740         72.50	     9.327
  35.760         73.33	     9.381
  35.780         64.17	     8.775
  35.800         50.00	     7.746
  35.820         49.17	     7.681
  35.840         50.83	     7.810
  35.860         55.83	     8.185
  35.880         61.67	     8.602
  35.900         45.83	     7.416
  35.920         72.50	     9.327
  35.940         55.00	     8.124
  35.960         74.17	     9.434
  35.980         63.33	     8.718
  36.000         75.00	     9.487
  36.020         81.67	     9.899
  36.040        104.17	    11.180
  36.060        145.00	    13.191
  36.080        135.83	    12.767
  36.100        210.00	    15.875
  36.120        239.17	    16.941
  36.140        172.50	    14.387
  36.160        172.50	    14.387
  36.180        149.17	    13.379
  36.200        160.00	    13.856
  36.220        149.17	    13.379
  36.240        115.83	    11.790
  36.260         75.83	     9.539
  36.280         65.83	     8.888
  36.300         55.83	     8.185
  36.320         60.83	     8.544
  36.340         64.17	     8.775
  36.360         59.17	     8.426
  36.380         51.67	     7.874
  36.400         65.83	     8.888
  36.420         62.50	     8.660
  36.440         63.33	     8.718
  36.460         77.50	     9.644
  36.480        104.17	    11.180
  36.500        161.67	    13.928
  36.520        188.33	    15.033
  36.540        215.00	    16.062
  36.560        170.83	    14.318
  36.580        137.50	    12.845
  36.600        132.50	    12.610
  36.620        122.50	    12.124
  36.640        130.00	    12.490
  36.660         96.67	    10.770
  36.680         85.83	    10.149
  36.700         91.67	    10.488
  36.720         80.00	     9.798
  36.740         71.67	     9.274
  36.760         85.00	    10.100
  36.780         67.50	     9.000
  36.800         62.50	     8.660
  36.820         55.83	     8.185
  36.840         68.33	     9.055
  36.860         65.83	     8.888
  36.880         50.00	     7.746
  36.900         53.33	     8.000
  36.920         52.50	     7.937
  36.940         47.50	     7.550
  36.960         54.17	     8.062
  36.980         43.33	     7.211
  37.000         55.83	     8.185
  37.020         46.67	     7.483
  37.040         38.33	     6.782
  37.060         46.67	     7.483
  37.080         40.83	     7.000
  37.100         49.17	     7.681
  37.120         45.83	     7.416
  37.140         61.67	     8.602
  37.160         47.50	     7.550
  37.180         39.17	     6.856
  37.200         38.33	     6.782
  37.220         55.00	     8.124
  37.240         45.83	     7.416
  37.260         60.00	     8.485
  37.280         45.00	     7.348
  37.300         45.83	     7.416
  37.320         60.00	     8.485
  37.340         62.50	     8.660
  37.360         53.33	     8.000
  37.380         51.67	     7.874
  37.400         75.00	     9.487
  37.420         47.50	     7.550
  37.440         70.83	     9.220
  37.460         79.17	     9.747
  37.480         61.67	     8.602
  37.500         62.50	     8.660
  37.520         74.17	     9.434
  37.540         75.00	     9.487
  37.560         72.50	     9.327
  37.580         65.83	     8.888
  37.600         58.33	     8.367
  37.620         79.17	     9.747
  37.640         85.00	    10.100
  37.660         90.83	    10.440
  37.680         85.00	    10.100
  37.700         86.67	    10.198
  37.720         70.00	     9.165
  37.740         67.50	     9.000
  37.760         93.33	    10.583
  37.780         66.67	     8.944
  37.800         52.50	     7.937
  37.820         65.00	     8.832
  37.840         54.17	     8.062
  37.860         55.00	     8.124
  37.880         44.17	     7.280
  37.900         52.50	     7.937
  37.920         49.17	     7.681
  37.940         40.00	     6.928
  37.960         45.83	     7.416
  37.980         44.17	     7.280
  38.000         47.50	     7.550
  38.020         51.67	     7.874
  38.040         60.83	     8.544
  38.060         45.00	     7.348
  38.080         40.83	     7.000
  38.100         45.00	     7.348
  38.120         41.67	     7.071
  38.140         52.50	     7.937
  38.160         64.17	     8.775
  38.180         66.67	     8.944
  38.200         65.00	     8.832
  38.220         90.00	    10.392
  38.240         85.00	    10.100
  38.260         60.83	     8.544
  38.280         39.17	     6.856
  38.300         40.83	     7.000
  38.320         72.50	     9.327
  38.340         50.00	     7.746
  38.360         45.83	     7.416
  38.380         34.17	     6.403
  38.400         36.67	     6.633
  38.420         45.00	     7.348
  38.440         46.67	     7.483
  38.460         41.67	     7.071
  38.480         32.50	     6.245
  38.500         46.67	     7.483
  38.520         41.67	     7.071
  38.540         43.33	     7.211
  38.560         36.67	     6.633
  38.580         37.50	     6.708
  38.600         40.00	     6.928
  38.620         60.00	     8.485
  38.640         36.67	     6.633
  38.660         54.17	     8.062
  38.680         47.50	     7.550
  38.700         49.17	     7.681
  38.720         45.83	     7.416
  38.740         40.00	     6.928
  38.760         50.00	     7.746
  38.780         48.33	     7.616
  38.800         69.17	     9.110
  38.820         57.50	     8.307
  38.840         50.83	     7.810
  38.860         40.83	     7.000
  38.880         43.33	     7.211
  38.900         50.83	     7.810
  38.920         55.83	     8.185
  38.940         58.33	     8.367
  38.960         57.50	     8.307
  38.980         54.17	     8.062
  39.000         44.17	     7.280
  39.020         37.50	     6.708
  39.040         42.50	     7.141
  39.060         35.00	     6.481
  39.080         41.67	     7.071
  39.100         28.33	     5.831
  39.120         41.67	     7.071
  39.140         47.50	     7.550
  39.160         43.33	     7.211
  39.180         37.50	     6.708
  39.200         35.00	     6.481
  39.220         44.17	     7.280
  39.240         41.67	     7.071
  39.260         47.50	     7.550
  39.280         45.00	     7.348
  39.300         43.33	     7.211
  39.320         45.00	     7.348
  39.340         44.17	     7.280
  39.360         46.67	     7.483
  39.380         64.17	     8.775
  39.400         99.17	    10.909
  39.420        130.00	    12.490
  39.440        138.33	    12.884
  39.460        114.17	    11.705
  39.480        111.67	    11.576
  39.500         98.33	    10.863
  39.520         98.33	    10.863
  39.540        112.50	    11.619
  39.560        114.17	    11.705
  39.580         90.00	    10.392
  39.600         57.50	     8.307
  39.620         58.33	     8.367
  39.640         51.67	     7.874
  39.660         60.00	     8.485
  39.680         68.33	     9.055
  39.700         51.67	     7.874
  39.720         51.67	     7.874
  39.740         55.00	     8.124
  39.760         45.00	     7.348
  39.780         48.33	     7.616
  39.800         52.50	     7.937
  39.820         59.17	     8.426
  39.840         44.17	     7.280
  39.860         35.83	     6.557
  39.880         55.83	     8.185
  39.900         52.50	     7.937
  39.920         52.50	     7.937
  39.940         45.00	     7.348
  39.960         40.83	     7.000
  39.980         34.17	     6.403
  40.000         35.00	     6.481
  40.020         45.00	     7.348
  40.040         37.50	     6.708
  40.060         41.67	     7.071
  40.080         40.83	     7.000
  40.100         33.33	     6.325
  40.120         50.00	     7.746
  40.140         43.33	     7.211
  40.160         32.50	     6.245
  40.180         33.33	     6.325
  40.200         44.17	     7.280
  40.220         60.00	     8.485
  40.240         54.17	     8.062
  40.260         57.50	     8.307
  40.280         85.00	    10.100
  40.300         92.50	    10.536
  40.320         90.00	    10.392
  40.340         73.33	     9.381
  40.360         60.83	     8.544
  40.380         55.83	     8.185
  40.400         56.67	     8.246
  40.420         58.33	     8.367
  40.440         63.33	     8.718
  40.460         40.83	     7.000
  40.480         45.00	     7.348
  40.500         41.67	     7.071
  40.520         37.50	     6.708
  40.540         33.33	     6.325
  40.560         36.67	     6.633
  40.580         38.33	     6.782
  40.600         25.00	     5.477
  40.620         49.17	     7.681
  40.640         39.17	     6.856
  40.660         50.83	     7.810
  40.680         53.33	     8.000
  40.700         33.33	     6.325
  40.720         45.83	     7.416
  40.740         44.17	     7.280
  40.760         48.33	     7.616
  40.780         42.50	     7.141
  40.800         42.50	     7.141
  40.820         50.00	     7.746
  40.840         41.67	     7.071
  40.860         55.00	     8.124
  40.880         39.17	     6.856
  40.900         55.83	     8.185
  40.920         50.00	     7.746
  40.940         55.00	     8.124
  40.960         53.33	     8.000
  40.980         65.83	     8.888
  41.000         53.33	     8.000
  41.020         52.50	     7.937
  41.040         45.00	     7.348
  41.060         45.83	     7.416
  41.080         40.83	     7.000
  41.100         37.50	     6.708
  41.120         43.33	     7.211
  41.140         34.17	     6.403
  41.160         42.50	     7.141
  41.180         57.50	     8.307
  41.200         56.67	     8.246
  41.220         45.83	     7.416
  41.240         42.50	     7.141
  41.260         56.67	     8.246
  41.280         50.00	     7.746
  41.300         45.00	     7.348
  41.320         37.50	     6.708
  41.340         47.50	     7.550
  41.360         51.67	     7.874
  41.380         51.67	     7.874
  41.400         42.50	     7.141
  41.420         63.33	     8.718
  41.440         52.50	     7.937
  41.460         45.83	     7.416
  41.480         50.00	     7.746
  41.500         48.33	     7.616
  41.520         37.50	     6.708
  41.540         59.17	     8.426
  41.560         58.33	     8.367
  41.580         55.83	     8.185
  41.600         52.50	     7.937
  41.620         52.50	     7.937
  41.640         63.33	     8.718
  41.660         61.67	     8.602
  41.680         70.00	     9.165
  41.700         70.83	     9.220
  41.720         74.17	     9.434
  41.740         74.17	     9.434
  41.760         69.17	     9.110
  41.780         65.00	     8.832
  41.800         65.00	     8.832
  41.820         62.50	     8.660
  41.840         75.83	     9.539
  41.860         60.00	     8.485
  41.880         61.67	     8.602
  41.900         56.67	     8.246
  41.920         63.33	     8.718
  41.940         60.83	     8.544
  41.960         63.33	     8.718
  41.980         70.00	     9.165
  42.000         60.00	     8.485
  42.020         46.67	     7.483
  42.040         60.00	     8.485
  42.060         46.67	     7.483
  42.080         62.50	     8.660
  42.100         48.33	     7.616
  42.120         51.67	     7.874
  42.140         61.67	     8.602
  42.160         42.50	     7.141
  42.180         60.00	     8.485
  42.200         46.67	     7.483
  42.220         46.67	     7.483
  42.240         55.83	     8.185
  42.260         45.00	     7.348
  42.280         53.33	     8.000
  42.300         64.17	     8.775
  42.320         67.50	     9.000
  42.340         80.00	     9.798
  42.360         91.67	    10.488
  42.380         66.67	     8.944
  42.400         92.50	    10.536
  42.420        107.50	    11.358
  42.440        120.83	    12.042
  42.460        109.17	    11.446
  42.480        120.83	    12.042
  42.500         98.33	    10.863
  42.520         95.00	    10.677
  42.540         84.17	    10.050
  42.560         89.17	    10.344
  42.580         73.33	     9.381
  42.600         83.33	    10.000
  42.620         66.67	     8.944
  42.640         72.50	     9.327
  42.660         61.67	     8.602
  42.680         51.67	     7.874
  42.700         55.00	     8.124
  42.720         50.83	     7.810
  42.740         52.50	     7.937
  42.760         55.00	     8.124
  42.780         54.17	     8.062
  42.800         56.67	     8.246
  42.820         50.83	     7.810
  42.840         50.00	     7.746
  42.860         52.50	     7.937
  42.880         56.67	     8.246
  42.900         52.50	     7.937
  42.920         46.67	     7.483
  42.940         50.83	     7.810
  42.960         54.17	     8.062
  42.980         55.83	     8.185
  43.000         54.17	     8.062
  43.020         55.00	     8.124
  43.040         41.67	     7.071
  43.060         46.67	     7.483
  43.080         42.50	     7.141
  43.100         43.33	     7.211
  43.120         36.67	     6.633
  43.140         52.50	     7.937
  43.160         45.83	     7.416
  43.180         46.67	     7.483
  43.200         45.00	     7.348
  43.220         57.50	     8.307
  43.240         52.50	     7.937
  43.260         55.00	     8.124
  43.280         46.67	     7.483
  43.300         53.33	     8.000
  43.320         54.17	     8.062
  43.340         64.17	     8.775
  43.360         58.33	     8.367
  43.380         63.33	     8.718
  43.400         56.67	     8.246
  43.420         56.67	     8.246
  43.440         64.17	     8.775
  43.460         66.67	     8.944
  43.480         79.17	     9.747
  43.500         73.33	     9.381
  43.520         85.83	    10.149
  43.540         74.17	     9.434
  43.560         94.17	    10.630
  43.580         90.83	    10.440
  43.600         90.00	    10.392
  43.620        101.67	    11.045
  43.640         85.83	    10.149
  43.660         99.17	    10.909
  43.680         86.67	    10.198
  43.700         83.33	    10.000
  43.720         81.67	     9.899
  43.740         76.67	     9.592
  43.760         84.17	    10.050
  43.780         91.67	    10.488
  43.800         85.83	    10.149
  43.820         87.50	    10.247
  43.840         66.67	     8.944
  43.860         70.83	     9.220
  43.880         76.67	     9.592
  43.900         49.17	     7.681
  43.920         76.67	     9.592
  43.940         72.50	     9.327
  43.960         65.00	     8.832
  43.980         75.00	     9.487
  44.000         64.17	     8.775
  44.020         76.67	     9.592
  44.040         73.33	     9.381
  44.060         71.67	     9.274
  44.080         65.83	     8.888
  44.100         75.00	     9.487
  44.120         83.33	    10.000
  44.140         63.33	     8.718
  44.160         72.50	     9.327
  44.180         85.83	    10.149
  44.200         97.50	    10.817
  44.220         97.50	    10.817
  44.240         95.00	    10.677
  44.260         97.50	    10.817
  44.280         92.50	    10.536
  44.300        110.00	    11.489
  44.320         87.50	    10.247
  44.340        120.83	    12.042
  44.360        116.67	    11.832
  44.380        111.67	    11.576
  44.400        130.00	    12.490
  44.420        109.17	    11.446
  44.440        140.00	    12.961
  44.460        134.17	    12.689
  44.480        126.67	    12.329
  44.500        120.83	    12.042
  44.520        152.50	    13.528
  44.540        140.00	    12.961
  44.560        119.17	    11.958
  44.580        106.67	    11.314
  44.600        120.83	    12.042
  44.620        119.17	    11.958
  44.640         99.17	    10.909
  44.660        113.33	    11.662
  44.680         95.00	    10.677
  44.700        101.67	    11.045
  44.720         95.83	    10.724
  44.740         78.33	     9.695
  44.760        110.83	    11.533
  44.780         90.83	    10.440
  44.800        111.67	    11.576
  44.820        104.17	    11.180
  44.840        100.00	    10.954
  44.860         91.67	    10.488
  44.880         85.00	    10.100
  44.900         99.17	    10.909
  44.920         90.83	    10.440
  44.940         96.67	    10.770
  44.960         91.67	    10.488
  44.980         72.50	     9.327
  45.000         83.33	    10.000
  45.020         87.50	    10.247
  45.040         77.50	     9.644
  45.060         80.83	     9.849
  45.080         74.17	     9.434
  45.100         66.67	     8.944
  45.120         75.00	     9.487
  45.140         74.17	     9.434
  45.160         75.83	     9.539
  45.180         71.67	     9.274
  45.200         62.50	     8.660
  45.220         75.00	     9.487
  45.240         74.17	     9.434
  45.260         65.83	     8.888
  45.280         71.67	     9.274
  45.300         80.00	     9.798
  45.320         83.33	    10.000
  45.340         89.17	    10.344
  45.360        101.67	    11.045
  45.380        117.50	    11.874
  45.400        130.00	    12.490
  45.420        123.33	    12.166
  45.440        149.17	    13.379
  45.460        208.33	    15.811
  45.480        227.50	    16.523
  45.500        324.17	    19.723
  45.520        444.17	    23.087
  45.540        570.83	    26.173
  45.560        803.33	    31.048
  45.580       1415.00	    41.207
  45.600       1530.00	    42.849
  45.620       1118.33	    36.633
  45.640        800.83	    31.000
  45.660        700.00	    28.983
  45.680        661.67	    28.178
  45.700        830.83	    31.575
  45.720        878.33	    32.465
  45.740        655.83	    28.054
  45.760        449.17	    23.216
  45.780        364.17	    20.905
  45.800        310.00	    19.287
  45.820        205.00	    15.684
  45.840        135.83	    12.767
  45.860        101.67	    11.045
  45.880        125.00	    12.247
  45.900        130.00	    12.490
  45.920        132.50	    12.610
  45.940         98.33	    10.863
  45.960         98.33	    10.863
  45.980         89.17	    10.344
  46.000         53.33	     8.000
  46.020         66.67	     8.944
  46.040         60.00	     8.485
  46.060         52.50	     7.937
  46.080         60.00	     8.485
  46.100         39.17	     6.856
  46.120         55.00	     8.124
  46.140         45.00	     7.348
  46.160         45.83	     7.416
  46.180         42.50	     7.141
  46.200         50.83	     7.810
  46.220         53.33	     8.000
  46.240         42.50	     7.141
  46.260         35.83	     6.557
  46.280         41.67	     7.071
  46.300         42.50	     7.141
  46.320         32.50	     6.245
  46.340         36.67	     6.633
  46.360         43.33	     7.211
  46.380         38.33	     6.782
  46.400         36.67	     6.633
  46.420         39.17	     6.856
  46.440         29.17	     5.916
  46.460         58.33	     8.367
  46.480         44.17	     7.280
  46.500         45.83	     7.416
  46.520         40.83	     7.000
  46.540         48.33	     7.616
  46.560         38.33	     6.782
  46.580         46.67	     7.483
  46.600         40.83	     7.000
  46.620         35.00	     6.481
  46.640         32.50	     6.245
  46.660         48.33	     7.616
  46.680         36.67	     6.633
  46.700         42.50	     7.141
  46.720         36.67	     6.633
  46.740         35.00	     6.481
  46.760         26.67	     5.657
  46.780         50.00	     7.746
  46.800         43.33	     7.211
  46.820         21.67	     5.099
  46.840         40.83	     7.000
  46.860         31.67	     6.164
  46.880         45.83	     7.416
  46.900         34.17	     6.403
  46.920         39.17	     6.856
  46.940         44.17	     7.280
  46.960         47.50	     7.550
  46.980         38.33	     6.782
  47.000         40.00	     6.928
  47.020         50.83	     7.810
  47.040         54.17	     8.062
  47.060         55.83	     8.185
  47.080         47.50	     7.550
  47.100         51.67	     7.874
  47.120         44.17	     7.280
  47.140         57.50	     8.307
  47.160         40.00	     6.928
  47.180         55.83	     8.185
  47.200         42.50	     7.141
  47.220         54.17	     8.062
  47.240         41.67	     7.071
  47.260         55.00	     8.124
  47.280         45.83	     7.416
  47.300         35.83	     6.557
  47.320         35.83	     6.557
  47.340         41.67	     7.071
  47.360         32.50	     6.245
  47.380         34.17	     6.403
  47.400         31.67	     6.164
  47.420         30.83	     6.083
  47.440         31.67	     6.164
  47.460         25.83	     5.568
  47.480         32.50	     6.245
  47.500         35.83	     6.557
  47.520         47.50	     7.550
  47.540         28.33	     5.831
  47.560         40.00	     6.928
  47.580         36.67	     6.633
  47.600         47.50	     7.550
  47.620         48.33	     7.616
  47.640         30.83	     6.083
  47.660         34.17	     6.403
  47.680         37.50	     6.708
  47.700         31.67	     6.164
  47.720         37.50	     6.708
  47.740         37.50	     6.708
  47.760         36.67	     6.633
  47.780         38.33	     6.782
  47.800         40.83	     7.000
  47.820         41.67	     7.071
  47.840         45.00	     7.348
  47.860         40.00	     6.928
  47.880         33.33	     6.325
  47.900         47.50	     7.550
  47.920         41.67	     7.071
  47.940         46.67	     7.483
  47.960         41.67	     7.071
  47.980         53.33	     8.000
  48.000         45.83	     7.416
  48.020         53.33	     8.000
  48.040         40.00	     6.928
  48.060         49.17	     7.681
  48.080         54.17	     8.062
  48.100         64.17	     8.775
  48.120         61.67	     8.602
  48.140         63.33	     8.718
  48.160         84.17	    10.050
  48.180         80.83	     9.849
  48.200         65.00	     8.832
  48.220         52.50	     7.937
  48.240         70.00	     9.165
  48.260         63.33	     8.718
  48.280         54.17	     8.062
  48.300         55.83	     8.185
  48.320         64.17	     8.775
  48.340         59.17	     8.426
  48.360         37.50	     6.708
  48.380         48.33	     7.616
  48.400         48.33	     7.616
  48.420         43.33	     7.211
  48.440         40.00	     6.928
  48.460         42.50	     7.141
  48.480         51.67	     7.874
  48.500         35.83	     6.557
  48.520         38.33	     6.782
  48.540         43.33	     7.211
  48.560         37.50	     6.708
  48.580         43.33	     7.211
  48.600         35.00	     6.481
  48.620         44.17	     7.280
  48.640         35.00	     6.481
  48.660         48.33	     7.616
  48.680         54.17	     8.062
  48.700         45.00	     7.348
  48.720         40.83	     7.000
  48.740         39.17	     6.856
  48.760         32.50	     6.245
  48.780         35.00	     6.481
  48.800         45.83	     7.416
  48.820         31.67	     6.164
  48.840         39.17	     6.856
  48.860         36.67	     6.633
  48.880         39.17	     6.856
  48.900         38.33	     6.782
  48.920         29.17	     5.916
  48.940         34.17	     6.403
  48.960         30.83	     6.083
  48.980         37.50	     6.708
  49.000         33.33	     6.325
  49.020         40.00	     6.928
  49.040         35.83	     6.557
  49.060         41.67	     7.071
  49.080         43.33	     7.211
  49.100         41.67	     7.071
  49.120         36.67	     6.633
  49.140         34.17	     6.403
  49.160         39.17	     6.856
  49.180         45.00	     7.348
  49.200         50.83	     7.810
  49.220         55.00	     8.124
  49.240         55.00	     8.124
  49.260         44.17	     7.280
  49.280         48.33	     7.616
  49.300         33.33	     6.325
  49.320         33.33	     6.325
  49.340         47.50	     7.550
  49.360         51.67	     7.874
  49.380         50.00	     7.746
  49.400         42.50	     7.141
  49.420         30.83	     6.083
  49.440         40.00	     6.928
  49.460         48.33	     7.616
  49.480         37.50	     6.708
  49.500         44.17	     7.280
  49.520         40.00	     6.928
  49.540         42.50	     7.141
  49.560         28.33	     5.831
  49.580         52.50	     7.937
  49.600         42.50	     7.141
  49.620         46.67	     7.483
  49.640         39.17	     6.856
  49.660         45.83	     7.416
  49.680         54.17	     8.062
  49.700         45.00	     7.348
  49.720         50.00	     7.746
  49.740         46.67	     7.483
  49.760         65.00	     8.832
  49.780         57.50	     8.307
  49.800         70.83	     9.220
  49.820         62.50	     8.660
  49.840         65.83	     8.888
  49.860         67.50	     9.000
  49.880         65.83	     8.888
  49.900         62.50	     8.660
  49.920         66.67	     8.944
  49.940         68.33	     9.055
  49.960         66.67	     8.944
  49.980         69.17	     9.110
  50.000         76.67	     9.592
  50.020         77.50	     9.644
  50.040         90.00	    10.392
  50.060        113.33	    11.662
  50.080        148.33	    13.342
  50.100        220.83	    16.279
  50.120        289.17	    18.628
  50.140        295.00	    18.815
  50.160        261.67	    17.720
  50.180        187.50	    15.000
  50.200        131.67	    12.570
  50.220        114.17	    11.705
  50.240        151.67	    13.491
  50.260        167.50	    14.177
  50.280        174.17	    14.457
  50.300        140.83	    13.000
  50.320         64.17	     8.775
  50.340         68.33	     9.055
  50.360         63.33	     8.718
  50.380         51.67	     7.874
  50.400         50.00	     7.746
  50.420         50.83	     7.810
  50.440         50.00	     7.746
  50.460         56.67	     8.246
  50.480         45.00	     7.348
  50.500         50.00	     7.746
  50.520         60.83	     8.544
  50.540         52.50	     7.937
  50.560         55.83	     8.185
  50.580         49.17	     7.681
  50.600         60.83	     8.544
  50.620         53.33	     8.000
  50.640         68.33	     9.055
  50.660         55.00	     8.124
  50.680         46.67	     7.483
  50.700         57.50	     8.307
  50.720         58.33	     8.367
  50.740         52.50	     7.937
  50.760         53.33	     8.000
  50.780         42.50	     7.141
  50.800         45.83	     7.416
  50.820         55.00	     8.124
  50.840         43.33	     7.211
  50.860         38.33	     6.782
  50.880         38.33	     6.782
  50.900         38.33	     6.782
  50.920         42.50	     7.141
  50.940         41.67	     7.071
  50.960         30.00	     6.000
  50.980         37.50	     6.708
  51.000         38.33	     6.782
  51.020         32.50	     6.245
  51.040         35.00	     6.481
  51.060         35.00	     6.481
  51.080         45.00	     7.348
  51.100         59.17	     8.426
  51.120         57.50	     8.307
  51.140         49.17	     7.681
  51.160         45.83	     7.416
  51.180         50.83	     7.810
  51.200         52.50	     7.937
  51.220         45.83	     7.416
  51.240         40.83	     7.000
  51.260         51.67	     7.874
  51.280         54.17	     8.062
  51.300         47.50	     7.550
  51.320         50.00	     7.746
  51.340         40.83	     7.000
  51.360         41.67	     7.071
  51.380         45.00	     7.348
  51.400         48.33	     7.616
  51.420         35.00	     6.481
  51.440         39.17	     6.856
  51.460         45.83	     7.416
  51.480         40.83	     7.000
  51.500         46.67	     7.483
  51.520         59.17	     8.426
  51.540         50.83	     7.810
  51.560         31.67	     6.164
  51.580         29.17	     5.916
  51.600         44.17	     7.280
  51.620         40.83	     7.000
  51.640         52.50	     7.937
  51.660         68.33	     9.055
  51.680         42.50	     7.141
  51.700         29.17	     5.916
  51.720         35.83	     6.557
  51.740         33.33	     6.325
  51.760         32.50	     6.245
  51.780         36.67	     6.633
  51.800         29.17	     5.916
  51.820         32.50	     6.245
  51.840         45.00	     7.348
  51.860         35.00	     6.481
  51.880         32.50	     6.245
  51.900         29.17	     5.916
  51.920         33.33	     6.325
  51.940         30.00	     6.000
  51.960         41.67	     7.071
  51.980         36.67	     6.633
  52.000         42.50	     7.141
  52.020         49.17	     7.681
  52.040         40.83	     7.000
  52.060         38.33	     6.782
  52.080         48.33	     7.616
  52.100         54.17	     8.062
  52.120         71.67	     9.274
  52.140         55.00	     8.124
  52.160         55.83	     8.185
  52.180         55.83	     8.185
  52.200         46.67	     7.483
  52.220         65.00	     8.832
  52.240         50.83	     7.810
  52.260         52.50	     7.937
  52.280         55.83	     8.185
  52.300         50.00	     7.746
  52.320         55.83	     8.185
  52.340         56.67	     8.246
  52.360         45.83	     7.416
  52.380         39.17	     6.856
  52.400         32.50	     6.245
  52.420         46.67	     7.483
  52.440         49.17	     7.681
  52.460         43.33	     7.211
  52.480         45.83	     7.416
  52.500         40.00	     6.928
  52.520         51.67	     7.874
  52.540         47.50	     7.550
  52.560         45.00	     7.348
  52.580         40.83	     7.000
  52.600         34.17	     6.403
  52.620         35.83	     6.557
  52.640         50.83	     7.810
  52.660         36.67	     6.633
  52.680         30.83	     6.083
  52.700         39.17	     6.856
  52.720         41.67	     7.071
  52.740         36.67	     6.633
  52.760         34.17	     6.403
  52.780         45.00	     7.348
  52.800         39.17	     6.856
  52.820         49.17	     7.681
  52.840         44.17	     7.280
  52.860         35.00	     6.481
  52.880         41.67	     7.071
  52.900         37.50	     6.708
  52.920         47.50	     7.550
  52.940         38.33	     6.782
  52.960         39.17	     6.856
  52.980         47.50	     7.550
  53.000         53.33	     8.000
  53.020         47.50	     7.550
  53.040         30.00	     6.000
  53.060         41.67	     7.071
  53.080         40.83	     7.000
  53.100         50.83	     7.810
  53.120         38.33	     6.782
  53.140         39.17	     6.856
  53.160         41.67	     7.071
  53.180         48.33	     7.616
  53.200         49.17	     7.681
  53.220         61.67	     8.602
  53.240         62.50	     8.660
  53.260         47.50	     7.550
  53.280         33.33	     6.325
  53.300         39.17	     6.856
  53.320         50.83	     7.810
  53.340         60.83	     8.544
  53.360         48.33	     7.616
  53.380         56.67	     8.246
  53.400         40.00	     6.928
  53.420         29.17	     5.916
  53.440         41.67	     7.071
  53.460         40.83	     7.000
  53.480         46.67	     7.483
  53.500         41.67	     7.071
  53.520         43.33	     7.211
  53.540         46.67	     7.483
  53.560         41.67	     7.071
  53.580         38.33	     6.782
  53.600         36.67	     6.633
  53.620         40.83	     7.000
  53.640         29.17	     5.916
  53.660         59.17	     8.426
  53.680         62.50	     8.660
  53.700         53.33	     8.000
  53.720         45.00	     7.348
  53.740         38.33	     6.782
  53.760         30.00	     6.000
  53.780         37.50	     6.708
  53.800         40.83	     7.000
  53.820         38.33	     6.782
  53.840         44.17	     7.280
  53.860         35.00	     6.481
  53.880         30.83	     6.083
  53.900         43.33	     7.211
  53.920         40.00	     6.928
  53.940         32.50	     6.245
  53.960         30.00	     6.000
  53.980         34.17	     6.403
  54.000         31.67	     6.164
  54.020         31.67	     6.164
  54.040         32.50	     6.245
  54.060         40.00	     6.928
  54.080         37.50	     6.708
  54.100         35.00	     6.481
  54.120         32.50	     6.245
  54.140         37.50	     6.708
  54.160         34.17	     6.403
  54.180         34.17	     6.403
  54.200         35.83	     6.557
  54.220         36.67	     6.633
  54.240         50.83	     7.810
  54.260         41.67	     7.071
  54.280         44.17	     7.280
  54.300         44.17	     7.280
  54.320         44.17	     7.280
  54.340         73.33	     9.381
  54.360         65.00	     8.832
  54.380         41.67	     7.071
  54.400         44.17	     7.280
  54.420         41.67	     7.071
  54.440         41.67	     7.071
  54.460         42.50	     7.141
  54.480         60.00	     8.485
  54.500         60.83	     8.544
  54.520         41.67	     7.071
  54.540         34.17	     6.403
  54.560         40.00	     6.928
  54.580         38.33	     6.782
  54.600         29.17	     5.916
  54.620         37.50	     6.708
  54.640         45.00	     7.348
  54.660         38.33	     6.782
  54.680         40.83	     7.000
  54.700         45.83	     7.416
  54.720         56.67	     8.246
  54.740         35.00	     6.481
  54.760         53.33	     8.000
  54.780         60.00	     8.485
  54.800         64.17	     8.775
  54.820         70.00	     9.165
  54.840         86.67	    10.198
  54.860        108.33	    11.402
  54.880         85.83	    10.149
  54.900         75.00	     9.487
  54.920         52.50	     7.937
  54.940         62.50	     8.660
  54.960         63.33	     8.718
  54.980         57.50	     8.307
  55.000         60.00	     8.485
  55.020         68.33	     9.055
  55.040         50.00	     7.746
  55.060         47.50	     7.550
  55.080         48.33	     7.616
  55.100         50.00	     7.746
  55.120         55.00	     8.124
  55.140         61.67	     8.602
  55.160         66.67	     8.944
  55.180         65.83	     8.888
  55.200         45.83	     7.416
  55.220         60.83	     8.544
  55.240         46.67	     7.483
  55.260         55.00	     8.124
  55.280         71.67	     9.274
  55.300         56.67	     8.246
  55.320         67.50	     9.000
  55.340         70.83	     9.220
  55.360         75.00	     9.487
  55.380         61.67	     8.602
  55.400         60.00	     8.485
  55.420         65.00	     8.832
  55.440         75.00	     9.487
  55.460         67.50	     9.000
  55.480         64.17	     8.775
  55.500         65.83	     8.888
  55.520         47.50	     7.550
  55.540         55.00	     8.124
  55.560         62.50	     8.660
  55.580         75.83	     9.539
  55.600         63.33	     8.718
  55.620         40.83	     7.000
  55.640         50.00	     7.746
  55.660         54.17	     8.062
  55.680         74.17	     9.434
  55.700         70.83	     9.220
  55.720         91.67	    10.488
  55.740         90.00	    10.392
  55.760         87.50	    10.247
  55.780         85.83	    10.149
  55.800         85.00	    10.100
  55.820         92.50	    10.536
  55.840         69.17	     9.110
  55.860         82.50	     9.950
  55.880         80.83	     9.849
  55.900         60.00	     8.485
  55.920         73.33	     9.381
  55.940         81.67	     9.899
  55.960         57.50	     8.307
  55.980         55.00	     8.124
  56.000         51.67	     7.874
  56.020         46.67	     7.483
  56.040         42.50	     7.141
  56.060         49.17	     7.681
  56.080         44.17	     7.280
  56.100         38.33	     6.782
  56.120         35.83	     6.557
  56.140         35.83	     6.557
  56.160         48.33	     7.616
  56.180         45.83	     7.416
  56.200         39.17	     6.856
  56.220         43.33	     7.211
  56.240         36.67	     6.633
  56.260         60.00	     8.485
  56.280         33.33	     6.325
  56.300         49.17	     7.681
  56.320         55.83	     8.185
  56.340         50.83	     7.810
  56.360         43.33	     7.211
  56.380         40.00	     6.928
  56.400         40.00	     6.928
  56.420         46.67	     7.483
  56.440         35.00	     6.481
  56.460         42.50	     7.141
  56.480         31.67	     6.164
  56.500         35.00	     6.481
  56.520         40.00	     6.928
  56.540         42.50	     7.141
  56.560         46.67	     7.483
  56.580         45.83	     7.416
  56.600         40.83	     7.000
  56.620         44.17	     7.280
  56.640         39.17	     6.856
  56.660         28.33	     5.831
  56.680         46.67	     7.483
  56.700         38.33	     6.782
  56.720         35.00	     6.481
  56.740         45.00	     7.348
  56.760         37.50	     6.708
  56.780         46.67	     7.483
  56.800         37.50	     6.708
  56.820         25.83	     5.568
  56.840         50.00	     7.746
  56.860         30.00	     6.000
  56.880         28.33	     5.831
  56.900         25.00	     5.477
  56.920         31.67	     6.164
  56.940         36.67	     6.633
  56.960         38.33	     6.782
  56.980         40.00	     6.928
  57.000         40.83	     7.000
  57.020         36.67	     6.633
  57.040         33.33	     6.325
  57.060         28.33	     5.831
  57.080         35.00	     6.481
  57.100         34.17	     6.403
  57.120         34.17	     6.403
  57.140         40.00	     6.928
  57.160         34.17	     6.403
  57.180         30.83	     6.083
  57.200         39.17	     6.856
  57.220         55.00	     8.124
  57.240         37.50	     6.708
  57.260         45.00	     7.348
  57.280         30.83	     6.083
  57.300         35.00	     6.481
  57.320         36.67	     6.633
  57.340         43.33	     7.211
  57.360         37.50	     6.708
  57.380         33.33	     6.325
  57.400         37.50	     6.708
  57.420         35.00	     6.481
  57.440         35.00	     6.481
  57.460         37.50	     6.708
  57.480         31.67	     6.164
  57.500         35.83	     6.557
  57.520         34.17	     6.403
  57.540         31.67	     6.164
  57.560         30.83	     6.083
  57.580         36.67	     6.633
  57.600         41.67	     7.071
  57.620         30.00	     6.000
  57.640         39.17	     6.856
  57.660         36.67	     6.633
  57.680         38.33	     6.782
  57.700         43.33	     7.211
  57.720         30.83	     6.083
  57.740         48.33	     7.616
  57.760         30.83	     6.083
  57.780         30.83	     6.083
  57.800         40.00	     6.928
  57.820         36.67	     6.633
  57.840         34.17	     6.403
  57.860         41.67	     7.071
  57.880         35.83	     6.557
  57.900         27.50	     5.745
  57.920         28.33	     5.831
  57.940         25.83	     5.568
  57.960         33.33	     6.325
  57.980         39.17	     6.856
  58.000         33.33	     6.325
  58.020         35.83	     6.557
  58.040         40.00	     6.928
  58.060         39.17	     6.856
  58.080         45.00	     7.348
  58.100         38.33	     6.782
  58.120         43.33	     7.211
  58.140         49.17	     7.681
  58.160         42.50	     7.141
  58.180         41.67	     7.071
  58.200         39.17	     6.856
  58.220         41.67	     7.071
  58.240         45.00	     7.348
  58.260         53.33	     8.000
  58.280         57.50	     8.307
  58.300         34.17	     6.403
  58.320         38.33	     6.782
  58.340         43.33	     7.211
  58.360         42.50	     7.141
  58.380         50.00	     7.746
  58.400         46.67	     7.483
  58.420         34.17	     6.403
  58.440         45.00	     7.348
  58.460         45.00	     7.348
  58.480         48.33	     7.616
  58.500         52.50	     7.937
  58.520         69.17	     9.110
  58.540         52.50	     7.937
  58.560         45.00	     7.348
  58.580         51.67	     7.874
  58.600         48.33	     7.616
  58.620         43.33	     7.211
  58.640         46.67	     7.483
  58.660         40.83	     7.000
  58.680         54.17	     8.062
  58.700         47.50	     7.550
  58.720         65.00	     8.832
  58.740         39.17	     6.856
  58.760         50.00	     7.746
  58.780         48.33	     7.616
  58.800         45.00	     7.348
  58.820         48.33	     7.616
  58.840         47.50	     7.550
  58.860         48.33	     7.616
  58.880         45.00	     7.348
  58.900         49.17	     7.681
  58.920         46.67	     7.483
  58.940         43.33	     7.211
  58.960         40.00	     6.928
  58.980         52.50	     7.937
  59.000         50.00	     7.746
  59.020         50.00	     7.746
  59.040         50.83	     7.810
  59.060         63.33	     8.718
  59.080         60.83	     8.544
  59.100         50.00	     7.746
  59.120         51.67	     7.874
  59.140         42.50	     7.141
  59.160         60.00	     8.485
  59.180         50.83	     7.810
  59.200         51.67	     7.874
  59.220         76.67	     9.592
  59.240         45.83	     7.416
  59.260         57.50	     8.307
  59.280         49.17	     7.681
  59.300         46.67	     7.483
  59.320         54.17	     8.062
  59.340         46.67	     7.483
  59.360         51.67	     7.874
  59.380         49.17	     7.681
  59.400         56.67	     8.246
  59.420         46.67	     7.483
  59.440         35.83	     6.557
  59.460         46.67	     7.483
  59.480         45.83	     7.416
  59.500         42.50	     7.141
  59.520         48.33	     7.616
  59.540         47.50	     7.550
  59.560         45.00	     7.348
  59.580         38.33	     6.782
  59.600         51.67	     7.874
  59.620         40.00	     6.928
  59.640         40.00	     6.928
  59.660         41.67	     7.071
  59.680         46.67	     7.483
  59.700         53.33	     8.000
  59.720         56.67	     8.246
  59.740         49.17	     7.681
  59.760         56.67	     8.246
  59.780         80.83	     9.849
  59.800         85.83	    10.149
  59.820         80.00	     9.798
  59.840         96.67	    10.770
  59.860        112.50	    11.619
  59.880        110.83	    11.533
  59.900        180.00	    14.697
  59.920        310.00	    19.287
  59.940        395.83	    21.794
  59.960        375.00	    21.213
  59.980        267.50	    17.916
  60.000        186.67	    14.967
  60.020        128.33	    12.410
  60.040        120.83	    12.042
  60.060        138.33	    12.884
  60.080        150.00	    13.416
  60.100        241.67	    17.029
  60.120        236.67	    16.852
  60.140        176.67	    14.560
  60.160        125.83	    12.288
  60.180         86.67	    10.198
  60.200         66.67	     8.944
  60.220         66.67	     8.944
  60.240         45.00	     7.348
  60.260         64.17	     8.775
  60.280         45.00	     7.348
  60.300         43.33	     7.211
  60.320         42.50	     7.141
  60.340         45.00	     7.348
  60.360         38.33	     6.782
  60.380         40.83	     7.000
  60.400         44.17	     7.280
  60.420         47.50	     7.550
  60.440         48.33	     7.616
  60.460         37.50	     6.708
  60.480         49.17	     7.681
  60.500         55.00	     8.124
  60.520         56.67	     8.246
  60.540         43.33	     7.211
  60.560         38.33	     6.782
  60.580         55.00	     8.124
  60.600         44.17	     7.280
  60.620         50.83	     7.810
  60.640         48.33	     7.616
  60.660         40.00	     6.928
  60.680         50.83	     7.810
  60.700         49.17	     7.681
  60.720         55.83	     8.185
  60.740         36.67	     6.633
  60.760         64.17	     8.775
  60.780         50.00	     7.746
  60.800         50.83	     7.810
  60.820         52.50	     7.937
  60.840         69.17	     9.110
  60.860         45.00	     7.348
  60.880         44.17	     7.280
  60.900         55.83	     8.185
  60.920         53.33	     8.000
  60.940         35.83	     6.557
  60.960         47.50	     7.550
  60.980         56.67	     8.246
  61.000         48.33	     7.616
  61.020         60.83	     8.544
  61.040         45.83	     7.416
  61.060         46.67	     7.483
  61.080         58.33	     8.367
  61.100         53.33	     8.000
  61.120         45.00	     7.348
  61.140         40.00	     6.928
  61.160         40.83	     7.000
  61.180         60.00	     8.485
  61.200         54.17	     8.062
  61.220         42.50	     7.141
  61.240         47.50	     7.550
  61.260         40.83	     7.000
  61.280         50.00	     7.746
  61.300         46.67	     7.483
  61.320         59.17	     8.426
  61.340         51.67	     7.874
  61.360         50.00	     7.746
  61.380         45.83	     7.416
  61.400         60.00	     8.485
  61.420         51.67	     7.874
  61.440         60.00	     8.485
  61.460         70.00	     9.165
  61.480         67.50	     9.000
  61.500         76.67	     9.592
  61.520         73.33	     9.381
  61.540         62.50	     8.660
  61.560         61.67	     8.602
  61.580         63.33	     8.718
  61.600         62.50	     8.660
  61.620         56.67	     8.246
  61.640         66.67	     8.944
  61.660         67.50	     9.000
  61.680         64.17	     8.775
  61.700         61.67	     8.602
  61.720         55.00	     8.124
  61.740         61.67	     8.602
  61.760         54.17	     8.062
  61.780         40.00	     6.928
  61.800         40.83	     7.000
  61.820         43.33	     7.211
  61.840         49.17	     7.681
  61.860         42.50	     7.141
  61.880         44.17	     7.280
  61.900         50.83	     7.810
  61.920         48.33	     7.616
  61.940         52.50	     7.937
  61.960         55.83	     8.185
  61.980         44.17	     7.280
  62.000         46.67	     7.483
  62.020         50.00	     7.746
  62.040         42.50	     7.141
  62.060         53.33	     8.000
  62.080         38.33	     6.782
  62.100         56.67	     8.246
  62.120         35.00	     6.481
  62.140         58.33	     8.367
  62.160         42.50	     7.141
  62.180         45.00	     7.348
  62.200         45.00	     7.348
  62.220         41.67	     7.071
  62.240         37.50	     6.708
  62.260         33.33	     6.325
  62.280         38.33	     6.782
  62.300         37.50	     6.708
  62.320         32.50	     6.245
  62.340         41.67	     7.071
  62.360         39.17	     6.856
  62.380         52.50	     7.937
  62.400         38.33	     6.782
  62.420         42.50	     7.141
  62.440         41.67	     7.071
  62.460         39.17	     6.856
  62.480         40.00	     6.928
  62.500         36.67	     6.633
  62.520         40.00	     6.928
  62.540         37.50	     6.708
  62.560         36.67	     6.633
  62.580         31.67	     6.164
  62.600         34.17	     6.403
  62.620         33.33	     6.325
  62.640         35.00	     6.481
  62.660         35.00	     6.481
  62.680         47.50	     7.550
  62.700         35.83	     6.557
  62.720         40.83	     7.000
  62.740         35.00	     6.481
  62.760         41.67	     7.071
  62.780         32.50	     6.245
  62.800         39.17	     6.856
  62.820         42.50	     7.141
  62.840         45.83	     7.416
  62.860         46.67	     7.483
  62.880         39.17	     6.856
  62.900         38.33	     6.782
  62.920         32.50	     6.245
  62.940         36.67	     6.633
  62.960         36.67	     6.633
  62.980         22.50	     5.196
  63.000         31.67	     6.164
  63.020         34.17	     6.403
  63.040         40.83	     7.000
  63.060         41.67	     7.071
  63.080         41.67	     7.071
  63.100         26.67	     5.657
  63.120         39.17	     6.856
  63.140         44.17	     7.280
  63.160         37.50	     6.708
  63.180         36.67	     6.633
  63.200         45.83	     7.416
  63.220         38.33	     6.782
  63.240         46.67	     7.483
  63.260         45.00	     7.348
  63.280         52.50	     7.937
  63.300         28.33	     5.831
  63.320         40.00	     6.928
  63.340         50.83	     7.810
  63.360         45.00	     7.348
  63.380         29.17	     5.916
  63.400         30.00	     6.000
  63.420         48.33	     7.616
  63.440         39.17	     6.856
  63.460         48.33	     7.616
  63.480         44.17	     7.280
  63.500         48.33	     7.616
  63.520         43.33	     7.211
  63.540         44.17	     7.280
  63.560         39.17	     6.856
  63.580         47.50	     7.550
  63.600         41.67	     7.071
  63.620         45.00	     7.348
  63.640         42.50	     7.141
  63.660         37.50	     6.708
  63.680         38.33	     6.782
  63.700         50.83	     7.810
  63.720         42.50	     7.141
  63.740         39.17	     6.856
  63.760         45.83	     7.416
  63.780         35.83	     6.557
  63.800         40.83	     7.000
  63.820         35.83	     6.557
  63.840         49.17	     7.681
  63.860         43.33	     7.211
  63.880         47.50	     7.550
  63.900         55.00	     8.124
  63.920         47.50	     7.550
  63.940         47.50	     7.550
  63.960         39.17	     6.856
  63.980         55.00	     8.124
  64.000         67.50	     9.000
  64.020         72.50	     9.327
  64.040         66.67	     8.944
  64.060         63.33	     8.718
  64.080         57.50	     8.307
  64.100         59.17	     8.426
  64.120         55.83	     8.185
  64.140         51.67	     7.874
  64.160         57.50	     8.307
  64.180         56.67	     8.246
  64.200         52.50	     7.937
  64.220         65.83	     8.888
  64.240         65.00	     8.832
  64.260         45.00	     7.348
  64.280         42.50	     7.141
  64.300         35.00	     6.481
  64.320         41.67	     7.071
  64.340         37.50	     6.708
  64.360         41.67	     7.071
  64.380         40.83	     7.000
  64.400         41.67	     7.071
  64.420         47.50	     7.550
  64.440         39.17	     6.856
  64.460         35.00	     6.481
  64.480         40.83	     7.000
  64.500         35.83	     6.557
  64.520         35.00	     6.481
  64.540         43.33	     7.211
  64.560         45.00	     7.348
  64.580         40.00	     6.928
  64.600         33.33	     6.325
  64.620         47.50	     7.550
  64.640         37.50	     6.708
  64.660         34.17	     6.403
  64.680         39.17	     6.856
  64.700         31.67	     6.164
  64.720         43.33	     7.211
  64.740         39.17	     6.856
  64.760         40.00	     6.928
  64.780         49.17	     7.681
  64.800         47.50	     7.550
  64.820         59.17	     8.426
  64.840         41.67	     7.071
  64.860         52.50	     7.937
  64.880         55.00	     8.124
  64.900         35.83	     6.557
  64.920         37.50	     6.708
  64.940         39.17	     6.856
  64.960         44.17	     7.280
  64.980         46.67	     7.483
  65.000         40.83	     7.000
