
Filename:
	C:\Program Files\Thermo Electron\WinXRD\Datafiles\F_HERMAN\FIEN\2_2_SEPT_FILTER.raw

File Created:
	February 22, 2019 - 01:41 PM

Specimen Id:
	2.2 SEPT FILTER

Specimen Name:
	

Specimen Description:
	

Comment:
Scan Type: 2Theta Scan
Start Angle: 1 deg.
Stop Angle: 65 deg.
Num Points: 3201
Step Size: 0.02 deg.
Scan Rate: 1.000000
Scan Mode: Continuous
Wavelength: 1.540562
\Kalpha1: 1.540562	\Kalpha2: 1.544390	\Kbeta: 1.392218

Optics:
		Detector:
			 Type: Fixed Slits
		Tube: 
			 Type: Fixed Slits


Datas:
 Pos [deg]       Rate [CPS]      ESD [-]

Range 1 ---> Iteration 1
   1.000        725.83	    29.513
   1.020        602.50	    26.889
   1.040        660.00	    28.142
   1.060        555.00	    25.807
   1.080        496.67	    24.413
   1.100        444.17	    23.087
   1.120        523.33	    25.060
   1.140        496.67	    24.413
   1.160        490.00	    24.249
   1.180        382.50	    21.424
   1.200        375.00	    21.213
   1.220        375.00	    21.213
   1.240        411.67	    22.226
   1.260        467.50	    23.685
   1.280        475.00	    23.875
   1.300        541.67	    25.495
   1.320        592.50	    26.665
   1.340        767.50	    30.348
   1.360       1055.00	    35.581
   1.380       1115.83	    36.592
   1.400       1260.00	    38.884
   1.420       1215.83	    38.197
   1.440       1271.67	    39.064
   1.460       1138.33	    36.959
   1.480       1150.00	    37.148
   1.500       1148.33	    37.121
   1.520       1060.83	    35.679
   1.540       1025.00	    35.071
   1.560       1052.50	    35.539
   1.580        912.50	    33.091
   1.600        945.00	    33.675
   1.620        928.33	    33.377
   1.640        830.83	    31.575
   1.660        813.33	    31.241
   1.680        765.00	    30.299
   1.700        710.83	    29.206
   1.720        677.50	    28.513
   1.740        665.00	    28.249
   1.760        594.17	    26.702
   1.780        587.50	    26.552
   1.800        500.83	    24.515
   1.820        539.17	    25.436
   1.840        456.67	    23.409
   1.860        463.33	    23.580
   1.880        432.50	    22.782
   1.900        451.67	    23.281
   1.920        440.83	    23.000
   1.940        425.00	    22.583
   1.960        385.00	    21.494
   1.980        381.67	    21.401
   2.000        345.83	    20.372
   2.020        396.67	    21.817
   2.040        379.17	    21.331
   2.060        367.50	    21.000
   2.080        356.67	    20.688
   2.100        357.50	    20.712
   2.120        354.17	    20.616
   2.140        345.83	    20.372
   2.160        354.17	    20.616
   2.180        330.00	    19.900
   2.200        285.83	    18.520
   2.220        311.67	    19.339
   2.240        300.83	    19.000
   2.260        315.00	    19.442
   2.280        290.00	    18.655
   2.300        295.83	    18.841
   2.320        277.50	    18.248
   2.340        285.00	    18.493
   2.360        297.50	    18.894
   2.380        287.50	    18.574
   2.400        291.67	    18.708
   2.420        251.67	    17.378
   2.440        286.67	    18.547
   2.460        284.17	    18.466
   2.480        282.50	    18.412
   2.500        237.50	    16.882
   2.520        255.00	    17.493
   2.540        275.00	    18.166
   2.560        259.17	    17.635
   2.580        243.33	    17.088
   2.600        265.83	    17.861
   2.620        234.17	    16.763
   2.640        284.17	    18.466
   2.660        235.00	    16.793
   2.680        239.17	    16.941
   2.700        239.17	    16.941
   2.720        249.17	    17.292
   2.740        230.83	    16.643
   2.760        215.83	    16.093
   2.780        258.33	    17.607
   2.800        235.00	    16.793
   2.820        209.17	    15.843
   2.840        238.33	    16.912
   2.860        215.00	    16.062
   2.880        207.50	    15.780
   2.900        215.00	    16.062
   2.920        206.67	    15.748
   2.940        201.67	    15.556
   2.960        227.50	    16.523
   2.980        250.83	    17.349
   3.000        221.67	    16.310
   3.020        188.33	    15.033
   3.040        218.33	    16.186
   3.060        219.17	    16.217
   3.080        205.83	    15.716
   3.100        221.67	    16.310
   3.120        195.83	    15.330
   3.140        210.83	    15.906
   3.160        198.33	    15.427
   3.180        191.67	    15.166
   3.200        209.17	    15.843
   3.220        168.33	    14.213
   3.240        198.33	    15.427
   3.260        192.50	    15.199
   3.280        190.83	    15.133
   3.300        184.17	    14.866
   3.320        200.00	    15.492
   3.340        189.17	    15.067
   3.360        169.17	    14.248
   3.380        192.50	    15.199
   3.400        185.83	    14.933
   3.420        163.33	    14.000
   3.440        170.83	    14.318
   3.460        179.17	    14.663
   3.480        215.83	    16.093
   3.500        170.00	    14.283
   3.520        167.50	    14.177
   3.540        163.33	    14.000
   3.560        192.50	    15.199
   3.580        184.17	    14.866
   3.600        177.50	    14.595
   3.620        176.67	    14.560
   3.640        155.00	    13.638
   3.660        160.00	    13.856
   3.680        148.33	    13.342
   3.700        163.33	    14.000
   3.720        141.67	    13.038
   3.740        170.83	    14.318
   3.760        152.50	    13.528
   3.780        164.17	    14.036
   3.800        165.83	    14.107
   3.820        157.50	    13.748
   3.840        167.50	    14.177
   3.860        143.33	    13.115
   3.880        178.33	    14.629
   3.900        144.17	    13.153
   3.920        118.33	    11.916
   3.940        157.50	    13.748
   3.960        143.33	    13.115
   3.980        136.67	    12.806
   4.000        160.83	    13.892
   4.020        156.67	    13.711
   4.040        150.00	    13.416
   4.060        154.17	    13.601
   4.080        145.83	    13.229
   4.100        150.83	    13.454
   4.120        131.67	    12.570
   4.140        122.50	    12.124
   4.160        136.67	    12.806
   4.180        162.50	    13.964
   4.200        144.17	    13.153
   4.220        141.67	    13.038
   4.240        144.17	    13.153
   4.260        119.17	    11.958
   4.280        146.67	    13.266
   4.300        135.00	    12.728
   4.320        134.17	    12.689
   4.340        130.00	    12.490
   4.360        141.67	    13.038
   4.380        139.17	    12.923
   4.400        135.83	    12.767
   4.420        114.17	    11.705
   4.440        125.00	    12.247
   4.460        127.50	    12.369
   4.480        141.67	    13.038
   4.500        120.83	    12.042
   4.520        122.50	    12.124
   4.540        113.33	    11.662
   4.560        124.17	    12.207
   4.580        131.67	    12.570
   4.600        135.00	    12.728
   4.620        125.83	    12.288
   4.640        125.00	    12.247
   4.660        137.50	    12.845
   4.680        129.17	    12.450
   4.700        122.50	    12.124
   4.720        128.33	    12.410
   4.740        123.33	    12.166
   4.760        127.50	    12.369
   4.780        121.67	    12.083
   4.800        111.67	    11.576
   4.820        107.50	    11.358
   4.840        125.00	    12.247
   4.860        115.00	    11.747
   4.880        115.00	    11.747
   4.900        106.67	    11.314
   4.920        125.00	    12.247
   4.940        118.33	    11.916
   4.960        115.00	    11.747
   4.980        105.00	    11.225
   5.000        115.83	    11.790
   5.020         99.17	    10.909
   5.040        114.17	    11.705
   5.060         90.83	    10.440
   5.080        106.67	    11.314
   5.100        118.33	    11.916
   5.120        125.83	    12.288
   5.140        107.50	    11.358
   5.160        105.83	    11.269
   5.180        114.17	    11.705
   5.200        104.17	    11.180
   5.220        121.67	    12.083
   5.240         86.67	    10.198
   5.260         96.67	    10.770
   5.280        100.83	    11.000
   5.300        100.00	    10.954
   5.320        116.67	    11.832
   5.340        112.50	    11.619
   5.360        116.67	    11.832
   5.380         92.50	    10.536
   5.400        105.83	    11.269
   5.420        107.50	    11.358
   5.440        111.67	    11.576
   5.460        110.00	    11.489
   5.480         95.00	    10.677
   5.500        111.67	    11.576
   5.520        101.67	    11.045
   5.540        102.50	    11.091
   5.560        102.50	    11.091
   5.580         92.50	    10.536
   5.600        108.33	    11.402
   5.620        115.83	    11.790
   5.640        120.00	    12.000
   5.660        100.83	    11.000
   5.680        102.50	    11.091
   5.700        123.33	    12.166
   5.720        100.83	    11.000
   5.740        102.50	    11.091
   5.760         96.67	    10.770
   5.780         85.00	    10.100
   5.800        111.67	    11.576
   5.820        104.17	    11.180
   5.840        119.17	    11.958
   5.860        100.83	    11.000
   5.880        100.00	    10.954
   5.900        113.33	    11.662
   5.920         94.17	    10.630
   5.940        103.33	    11.136
   5.960        110.83	    11.533
   5.980        115.83	    11.790
   6.000        105.83	    11.269
   6.020        114.17	    11.705
   6.040        147.50	    13.304
   6.060        120.83	    12.042
   6.080        123.33	    12.166
   6.100        117.50	    11.874
   6.120        135.83	    12.767
   6.140        140.00	    12.961
   6.160        121.67	    12.083
   6.180        140.00	    12.961
   6.200        129.17	    12.450
   6.220        119.17	    11.958
   6.240        142.50	    13.077
   6.260        135.83	    12.767
   6.280        166.67	    14.142
   6.300        138.33	    12.884
   6.320        155.00	    13.638
   6.340        172.50	    14.387
   6.360        160.83	    13.892
   6.380        165.00	    14.071
   6.400        190.83	    15.133
   6.420        160.83	    13.892
   6.440        150.00	    13.416
   6.460        136.67	    12.806
   6.480        111.67	    11.576
   6.500        127.50	    12.369
   6.520        107.50	    11.358
   6.540        113.33	    11.662
   6.560        112.50	    11.619
   6.580         92.50	    10.536
   6.600        107.50	    11.358
   6.620        114.17	    11.705
   6.640        103.33	    11.136
   6.660         81.67	     9.899
   6.680         88.33	    10.296
   6.700         91.67	    10.488
   6.720        101.67	    11.045
   6.740         89.17	    10.344
   6.760         98.33	    10.863
   6.780         92.50	    10.536
   6.800         90.83	    10.440
   6.820         90.83	    10.440
   6.840         93.33	    10.583
   6.860        101.67	    11.045
   6.880         77.50	     9.644
   6.900         95.00	    10.677
   6.920         92.50	    10.536
   6.940        100.00	    10.954
   6.960        104.17	    11.180
   6.980         80.00	     9.798
   7.000         90.83	    10.440
   7.020         87.50	    10.247
   7.040         92.50	    10.536
   7.060         71.67	     9.274
   7.080         95.83	    10.724
   7.100         96.67	    10.770
   7.120         81.67	     9.899
   7.140         93.33	    10.583
   7.160         68.33	     9.055
   7.180        102.50	    11.091
   7.200         69.17	     9.110
   7.220         92.50	    10.536
   7.240         91.67	    10.488
   7.260         65.83	     8.888
   7.280         85.83	    10.149
   7.300         92.50	    10.536
   7.320         82.50	     9.950
   7.340         81.67	     9.899
   7.360         74.17	     9.434
   7.380         93.33	    10.583
   7.400         75.83	     9.539
   7.420         80.83	     9.849
   7.440         69.17	     9.110
   7.460         71.67	     9.274
   7.480         72.50	     9.327
   7.500         80.00	     9.798
   7.520         90.83	    10.440
   7.540         77.50	     9.644
   7.560         63.33	     8.718
   7.580         75.00	     9.487
   7.600         83.33	    10.000
   7.620         78.33	     9.695
   7.640         81.67	     9.899
   7.660         68.33	     9.055
   7.680         79.17	     9.747
   7.700         74.17	     9.434
   7.720         76.67	     9.592
   7.740         65.83	     8.888
   7.760         66.67	     8.944
   7.780         68.33	     9.055
   7.800         83.33	    10.000
   7.820         80.83	     9.849
   7.840         68.33	     9.055
   7.860         77.50	     9.644
   7.880         81.67	     9.899
   7.900         61.67	     8.602
   7.920         76.67	     9.592
   7.940         67.50	     9.000
   7.960         70.00	     9.165
   7.980         64.17	     8.775
   8.000         80.00	     9.798
   8.020         61.67	     8.602
   8.040         71.67	     9.274
   8.060         60.00	     8.485
   8.080         68.33	     9.055
   8.100         70.00	     9.165
   8.120         75.83	     9.539
   8.140         68.33	     9.055
   8.160         71.67	     9.274
   8.180         74.17	     9.434
   8.200         76.67	     9.592
   8.220         80.00	     9.798
   8.240         81.67	     9.899
   8.260         75.83	     9.539
   8.280         67.50	     9.000
   8.300         79.17	     9.747
   8.320         79.17	     9.747
   8.340         50.83	     7.810
   8.360         70.83	     9.220
   8.380         62.50	     8.660
   8.400         65.83	     8.888
   8.420         70.83	     9.220
   8.440         65.83	     8.888
   8.460         67.50	     9.000
   8.480         78.33	     9.695
   8.500         83.33	    10.000
   8.520         72.50	     9.327
   8.540         80.00	     9.798
   8.560         69.17	     9.110
   8.580         77.50	     9.644
   8.600         84.17	    10.050
   8.620         91.67	    10.488
   8.640         98.33	    10.863
   8.660         88.33	    10.296
   8.680         85.83	    10.149
   8.700        108.33	    11.402
   8.720         85.83	    10.149
   8.740        100.83	    11.000
   8.760        118.33	    11.916
   8.780        136.67	    12.806
   8.800        133.33	    12.649
   8.820        125.00	    12.247
   8.840        123.33	    12.166
   8.860        154.17	    13.601
   8.880        155.00	    13.638
   8.900        171.67	    14.353
   8.920        202.50	    15.588
   8.940        216.67	    16.125
   8.960        270.83	    18.028
   8.980        327.50	    19.824
   9.000        375.00	    21.213
   9.020        347.50	    20.421
   9.040        333.33	    20.000
   9.060        369.17	    21.048
   9.080        313.33	    19.391
   9.100        283.33	    18.439
   9.120        196.67	    15.362
   9.140        142.50	    13.077
   9.160        106.67	    11.314
   9.180         90.83	    10.440
   9.200         77.50	     9.644
   9.220         90.83	    10.440
   9.240         83.33	    10.000
   9.260         80.83	     9.849
   9.280         82.50	     9.950
   9.300         83.33	    10.000
   9.320         77.50	     9.644
   9.340         71.67	     9.274
   9.360         80.83	     9.849
   9.380         82.50	     9.950
   9.400        107.50	    11.358
   9.420        101.67	    11.045
   9.440         88.33	    10.296
   9.460         76.67	     9.592
   9.480         63.33	     8.718
   9.500         70.83	     9.220
   9.520         74.17	     9.434
   9.540         59.17	     8.426
   9.560         72.50	     9.327
   9.580         70.00	     9.165
   9.600         91.67	    10.488
   9.620         65.00	     8.832
   9.640         63.33	     8.718
   9.660         60.00	     8.485
   9.680         60.83	     8.544
   9.700         52.50	     7.937
   9.720         49.17	     7.681
   9.740         52.50	     7.937
   9.760         40.00	     6.928
   9.780         54.17	     8.062
   9.800         54.17	     8.062
   9.820         65.00	     8.832
   9.840         53.33	     8.000
   9.860         50.00	     7.746
   9.880         58.33	     8.367
   9.900         50.83	     7.810
   9.920         51.67	     7.874
   9.940         71.67	     9.274
   9.960         63.33	     8.718
   9.980         66.67	     8.944
  10.000         45.83	     7.416
  10.020         68.33	     9.055
  10.040         45.00	     7.348
  10.060         59.17	     8.426
  10.080         45.83	     7.416
  10.100         47.50	     7.550
  10.120         49.17	     7.681
  10.140         52.50	     7.937
  10.160         48.33	     7.616
  10.180         58.33	     8.367
  10.200         44.17	     7.280
  10.220         37.50	     6.708
  10.240         40.00	     6.928
  10.260         43.33	     7.211
  10.280         44.17	     7.280
  10.300         46.67	     7.483
  10.320         44.17	     7.280
  10.340         45.83	     7.416
  10.360         44.17	     7.280
  10.380         42.50	     7.141
  10.400         36.67	     6.633
  10.420         49.17	     7.681
  10.440         57.50	     8.307
  10.460         49.17	     7.681
  10.480         52.50	     7.937
  10.500         55.00	     8.124
  10.520         47.50	     7.550
  10.540         48.33	     7.616
  10.560         58.33	     8.367
  10.580         53.33	     8.000
  10.600         57.50	     8.307
  10.620         63.33	     8.718
  10.640         68.33	     9.055
  10.660         50.83	     7.810
  10.680         72.50	     9.327
  10.700         85.83	    10.149
  10.720         68.33	     9.055
  10.740         67.50	     9.000
  10.760         55.83	     8.185
  10.780         48.33	     7.616
  10.800         51.67	     7.874
  10.820         45.00	     7.348
  10.840         41.67	     7.071
  10.860         42.50	     7.141
  10.880         39.17	     6.856
  10.900         39.17	     6.856
  10.920         45.83	     7.416
  10.940         46.67	     7.483
  10.960         48.33	     7.616
  10.980         52.50	     7.937
  11.000         45.83	     7.416
  11.020         47.50	     7.550
  11.040         44.17	     7.280
  11.060         43.33	     7.211
  11.080         56.67	     8.246
  11.100         45.00	     7.348
  11.120         40.00	     6.928
  11.140         49.17	     7.681
  11.160         50.00	     7.746
  11.180         47.50	     7.550
  11.200         42.50	     7.141
  11.220         44.17	     7.280
  11.240         45.00	     7.348
  11.260         43.33	     7.211
  11.280         55.00	     8.124
  11.300         54.17	     8.062
  11.320         36.67	     6.633
  11.340         34.17	     6.403
  11.360         51.67	     7.874
  11.380         45.83	     7.416
  11.400         50.00	     7.746
  11.420         49.17	     7.681
  11.440         45.00	     7.348
  11.460         52.50	     7.937
  11.480         53.33	     8.000
  11.500         42.50	     7.141
  11.520         51.67	     7.874
  11.540         51.67	     7.874
  11.560         49.17	     7.681
  11.580         47.50	     7.550
  11.600         38.33	     6.782
  11.620         40.83	     7.000
  11.640         35.00	     6.481
  11.660         45.83	     7.416
  11.680         41.67	     7.071
  11.700         48.33	     7.616
  11.720         29.17	     5.916
  11.740         55.83	     8.185
  11.760         39.17	     6.856
  11.780         38.33	     6.782
  11.800         45.00	     7.348
  11.820         41.67	     7.071
  11.840         48.33	     7.616
  11.860         49.17	     7.681
  11.880         54.17	     8.062
  11.900         35.00	     6.481
  11.920         40.00	     6.928
  11.940         47.50	     7.550
  11.960         45.83	     7.416
  11.980         55.83	     8.185
  12.000         50.83	     7.810
  12.020         52.50	     7.937
  12.040         55.83	     8.185
  12.060         53.33	     8.000
  12.080         56.67	     8.246
  12.100         44.17	     7.280
  12.120         54.17	     8.062
  12.140         81.67	     9.899
  12.160         59.17	     8.426
  12.180         78.33	     9.695
  12.200        100.83	    11.000
  12.220         93.33	    10.583
  12.240        105.00	    11.225
  12.260        131.67	    12.570
  12.280        169.17	    14.248
  12.300        200.00	    15.492
  12.320        199.17	    15.460
  12.340        209.17	    15.843
  12.360        205.00	    15.684
  12.380        221.67	    16.310
  12.400        174.17	    14.457
  12.420        161.67	    13.928
  12.440        140.83	    13.000
  12.460        112.50	    11.619
  12.480        115.00	    11.747
  12.500        132.50	    12.610
  12.520        144.17	    13.153
  12.540        142.50	    13.077
  12.560        166.67	    14.142
  12.580        194.17	    15.264
  12.600        192.50	    15.199
  12.620        231.67	    16.673
  12.640        216.67	    16.125
  12.660        267.50	    17.916
  12.680        225.83	    16.462
  12.700        204.17	    15.652
  12.720        176.67	    14.560
  12.740        101.67	    11.045
  12.760         82.50	     9.950
  12.780         60.00	     8.485
  12.800         43.33	     7.211
  12.820         54.17	     8.062
  12.840         45.83	     7.416
  12.860         50.83	     7.810
  12.880         49.17	     7.681
  12.900         47.50	     7.550
  12.920         47.50	     7.550
  12.940         51.67	     7.874
  12.960         40.83	     7.000
  12.980         40.00	     6.928
  13.000         48.33	     7.616
  13.020         45.00	     7.348
  13.040         39.17	     6.856
  13.060         40.83	     7.000
  13.080         35.83	     6.557
  13.100         45.00	     7.348
  13.120         40.00	     6.928
  13.140         35.83	     6.557
  13.160         34.17	     6.403
  13.180         43.33	     7.211
  13.200         33.33	     6.325
  13.220         42.50	     7.141
  13.240         44.17	     7.280
  13.260         54.17	     8.062
  13.280         38.33	     6.782
  13.300         29.17	     5.916
  13.320         45.00	     7.348
  13.340         30.83	     6.083
  13.360         30.00	     6.000
  13.380         42.50	     7.141
  13.400         45.00	     7.348
  13.420         38.33	     6.782
  13.440         34.17	     6.403
  13.460         41.67	     7.071
  13.480         40.83	     7.000
  13.500         38.33	     6.782
  13.520         44.17	     7.280
  13.540         42.50	     7.141
  13.560         45.83	     7.416
  13.580         57.50	     8.307
  13.600         41.67	     7.071
  13.620         40.83	     7.000
  13.640         37.50	     6.708
  13.660         30.00	     6.000
  13.680         30.00	     6.000
  13.700         32.50	     6.245
  13.720         44.17	     7.280
  13.740         29.17	     5.916
  13.760         35.83	     6.557
  13.780         46.67	     7.483
  13.800         50.00	     7.746
  13.820         50.83	     7.810
  13.840         43.33	     7.211
  13.860         35.83	     6.557
  13.880         50.00	     7.746
  13.900         52.50	     7.937
  13.920         50.00	     7.746
  13.940         51.67	     7.874
  13.960         43.33	     7.211
  13.980         42.50	     7.141
  14.000         53.33	     8.000
  14.020         44.17	     7.280
  14.040         59.17	     8.426
  14.060         62.50	     8.660
  14.080         35.00	     6.481
  14.100         44.17	     7.280
  14.120         41.67	     7.071
  14.140         38.33	     6.782
  14.160         29.17	     5.916
  14.180         49.17	     7.681
  14.200         31.67	     6.164
  14.220         46.67	     7.483
  14.240         37.50	     6.708
  14.260         40.00	     6.928
  14.280         30.83	     6.083
  14.300         46.67	     7.483
  14.320         30.00	     6.000
  14.340         30.83	     6.083
  14.360         40.83	     7.000
  14.380         36.67	     6.633
  14.400         29.17	     5.916
  14.420         35.83	     6.557
  14.440         35.00	     6.481
  14.460         30.83	     6.083
  14.480         33.33	     6.325
  14.500         39.17	     6.856
  14.520         38.33	     6.782
  14.540         27.50	     5.745
  14.560         33.33	     6.325
  14.580         29.17	     5.916
  14.600         26.67	     5.657
  14.620         30.83	     6.083
  14.640         40.00	     6.928
  14.660         29.17	     5.916
  14.680         34.17	     6.403
  14.700         28.33	     5.831
  14.720         29.17	     5.916
  14.740         42.50	     7.141
  14.760         32.50	     6.245
  14.780         35.83	     6.557
  14.800         32.50	     6.245
  14.820         25.00	     5.477
  14.840         27.50	     5.745
  14.860         36.67	     6.633
  14.880         32.50	     6.245
  14.900         29.17	     5.916
  14.920         31.67	     6.164
  14.940         35.83	     6.557
  14.960         27.50	     5.745
  14.980         30.83	     6.083
  15.000         30.83	     6.083
  15.020         25.00	     5.477
  15.040         29.17	     5.916
  15.060         40.00	     6.928
  15.080         35.83	     6.557
  15.100         36.67	     6.633
  15.120         41.67	     7.071
  15.140         39.17	     6.856
  15.160         30.83	     6.083
  15.180         45.83	     7.416
  15.200         33.33	     6.325
  15.220         30.83	     6.083
  15.240         35.00	     6.481
  15.260         30.00	     6.000
  15.280         36.67	     6.633
  15.300         24.17	     5.385
  15.320         25.00	     5.477
  15.340         15.83	     4.359
  15.360         21.67	     5.099
  15.380         25.83	     5.568
  15.400         35.83	     6.557
  15.420         41.67	     7.071
  15.440         31.67	     6.164
  15.460         28.33	     5.831
  15.480         22.50	     5.196
  15.500         37.50	     6.708
  15.520         29.17	     5.916
  15.540         27.50	     5.745
  15.560         36.67	     6.633
  15.580         23.33	     5.292
  15.600         25.83	     5.568
  15.620         25.00	     5.477
  15.640         30.00	     6.000
  15.660         35.83	     6.557
  15.680         30.83	     6.083
  15.700         41.67	     7.071
  15.720         34.17	     6.403
  15.740         31.67	     6.164
  15.760         33.33	     6.325
  15.780         26.67	     5.657
  15.800         29.17	     5.916
  15.820         27.50	     5.745
  15.840         27.50	     5.745
  15.860         38.33	     6.782
  15.880         32.50	     6.245
  15.900         45.83	     7.416
  15.920         34.17	     6.403
  15.940         34.17	     6.403
  15.960         41.67	     7.071
  15.980         31.67	     6.164
  16.000         35.83	     6.557
  16.020         36.67	     6.633
  16.040         34.17	     6.403
  16.060         31.67	     6.164
  16.080         44.17	     7.280
  16.100         35.00	     6.481
  16.120         35.00	     6.481
  16.140         35.00	     6.481
  16.160         25.83	     5.568
  16.180         36.67	     6.633
  16.200         30.00	     6.000
  16.220         44.17	     7.280
  16.240         30.00	     6.000
  16.260         20.00	     4.899
  16.280         30.00	     6.000
  16.300         22.50	     5.196
  16.320         29.17	     5.916
  16.340         25.00	     5.477
  16.360         33.33	     6.325
  16.380         26.67	     5.657
  16.400         26.67	     5.657
  16.420         32.50	     6.245
  16.440         25.83	     5.568
  16.460         26.67	     5.657
  16.480         25.00	     5.477
  16.500         24.17	     5.385
  16.520         34.17	     6.403
  16.540         25.83	     5.568
  16.560         25.83	     5.568
  16.580         25.83	     5.568
  16.600         19.17	     4.796
  16.620         26.67	     5.657
  16.640         32.50	     6.245
  16.660         38.33	     6.782
  16.680         22.50	     5.196
  16.700         38.33	     6.782
  16.720         21.67	     5.099
  16.740         32.50	     6.245
  16.760         27.50	     5.745
  16.780         27.50	     5.745
  16.800         35.83	     6.557
  16.820         33.33	     6.325
  16.840         25.83	     5.568
  16.860         30.00	     6.000
  16.880         31.67	     6.164
  16.900         25.00	     5.477
  16.920         29.17	     5.916
  16.940         33.33	     6.325
  16.960         29.17	     5.916
  16.980         20.83	     5.000
  17.000         26.67	     5.657
  17.020         31.67	     6.164
  17.040         33.33	     6.325
  17.060         35.00	     6.481
  17.080         25.83	     5.568
  17.100         28.33	     5.831
  17.120         31.67	     6.164
  17.140         38.33	     6.782
  17.160         33.33	     6.325
  17.180         26.67	     5.657
  17.200         19.17	     4.796
  17.220         30.83	     6.083
  17.240         40.00	     6.928
  17.260         29.17	     5.916
  17.280         40.83	     7.000
  17.300         35.00	     6.481
  17.320         39.17	     6.856
  17.340         20.83	     5.000
  17.360         27.50	     5.745
  17.380         29.17	     5.916
  17.400         32.50	     6.245
  17.420         25.83	     5.568
  17.440         35.83	     6.557
  17.460         61.67	     8.602
  17.480        103.33	    11.136
  17.500         83.33	    10.000
  17.520         90.00	    10.392
  17.540         60.83	     8.544
  17.560         30.83	     6.083
  17.580         31.67	     6.164
  17.600         30.83	     6.083
  17.620         27.50	     5.745
  17.640         22.50	     5.196
  17.660         34.17	     6.403
  17.680         30.83	     6.083
  17.700         40.00	     6.928
  17.720         32.50	     6.245
  17.740         31.67	     6.164
  17.760         47.50	     7.550
  17.780         38.33	     6.782
  17.800         59.17	     8.426
  17.820         57.50	     8.307
  17.840         68.33	     9.055
  17.860         85.83	    10.149
  17.880        100.00	    10.954
  17.900        144.17	    13.153
  17.920        161.67	    13.928
  17.940        175.00	    14.491
  17.960        202.50	    15.588
  17.980        196.67	    15.362
  18.000        190.83	    15.133
  18.020        156.67	    13.711
  18.040        126.67	    12.329
  18.060         95.83	    10.724
  18.080         59.17	     8.426
  18.100         53.33	     8.000
  18.120         46.67	     7.483
  18.140         32.50	     6.245
  18.160         32.50	     6.245
  18.180         37.50	     6.708
  18.200         37.50	     6.708
  18.220         41.67	     7.071
  18.240         26.67	     5.657
  18.260         35.83	     6.557
  18.280         30.00	     6.000
  18.300         36.67	     6.633
  18.320         34.17	     6.403
  18.340         35.83	     6.557
  18.360         36.67	     6.633
  18.380         24.17	     5.385
  18.400         33.33	     6.325
  18.420         35.83	     6.557
  18.440         40.00	     6.928
  18.460         35.00	     6.481
  18.480         37.50	     6.708
  18.500         48.33	     7.616
  18.520         47.50	     7.550
  18.540         48.33	     7.616
  18.560         54.17	     8.062
  18.580         61.67	     8.602
  18.600         36.67	     6.633
  18.620         86.67	    10.198
  18.640         72.50	     9.327
  18.660         76.67	     9.592
  18.680         83.33	    10.000
  18.700         80.83	     9.849
  18.720         73.33	     9.381
  18.740         62.50	     8.660
  18.760         56.67	     8.246
  18.780         52.50	     7.937
  18.800         62.50	     8.660
  18.820         76.67	     9.592
  18.840         75.00	     9.487
  18.860         93.33	    10.583
  18.880        100.00	    10.954
  18.900         99.17	    10.909
  18.920        100.00	    10.954
  18.940        102.50	    11.091
  18.960        135.00	    12.728
  18.980        110.83	    11.533
  19.000         93.33	    10.583
  19.020         77.50	     9.644
  19.040         55.00	     8.124
  19.060         55.83	     8.185
  19.080         48.33	     7.616
  19.100         32.50	     6.245
  19.120         37.50	     6.708
  19.140         41.67	     7.071
  19.160         40.83	     7.000
  19.180         36.67	     6.633
  19.200         32.50	     6.245
  19.220         28.33	     5.831
  19.240         27.50	     5.745
  19.260         28.33	     5.831
  19.280         36.67	     6.633
  19.300         36.67	     6.633
  19.320         40.00	     6.928
  19.340         37.50	     6.708
  19.360         29.17	     5.916
  19.380         47.50	     7.550
  19.400         48.33	     7.616
  19.420         33.33	     6.325
  19.440         35.00	     6.481
  19.460         35.83	     6.557
  19.480         37.50	     6.708
  19.500         37.50	     6.708
  19.520         43.33	     7.211
  19.540         35.83	     6.557
  19.560         35.83	     6.557
  19.580         35.83	     6.557
  19.600         41.67	     7.071
  19.620         35.00	     6.481
  19.640         38.33	     6.782
  19.660         40.83	     7.000
  19.680         31.67	     6.164
  19.700         32.50	     6.245
  19.720         38.33	     6.782
  19.740         37.50	     6.708
  19.760         35.83	     6.557
  19.780         33.33	     6.325
  19.800         41.67	     7.071
  19.820         45.00	     7.348
  19.840         47.50	     7.550
  19.860         51.67	     7.874
  19.880         55.00	     8.124
  19.900         53.33	     8.000
  19.920         64.17	     8.775
  19.940         46.67	     7.483
  19.960         68.33	     9.055
  19.980         64.17	     8.775
  20.000         54.17	     8.062
  20.020         72.50	     9.327
  20.040         59.17	     8.426
  20.060         49.17	     7.681
  20.080         57.50	     8.307
  20.100         57.50	     8.307
  20.120         40.00	     6.928
  20.140         37.50	     6.708
  20.160         42.50	     7.141
  20.180         35.00	     6.481
  20.200         45.00	     7.348
  20.220         38.33	     6.782
  20.240         28.33	     5.831
  20.260         40.00	     6.928
  20.280         30.00	     6.000
  20.300         37.50	     6.708
  20.320         42.50	     7.141
  20.340         33.33	     6.325
  20.360         35.00	     6.481
  20.380         29.17	     5.916
  20.400         45.83	     7.416
  20.420         42.50	     7.141
  20.440         29.17	     5.916
  20.460         33.33	     6.325
  20.480         25.83	     5.568
  20.500         39.17	     6.856
  20.520         35.00	     6.481
  20.540         43.33	     7.211
  20.560         34.17	     6.403
  20.580         40.00	     6.928
  20.600         26.67	     5.657
  20.620         28.33	     5.831
  20.640         44.17	     7.280
  20.660         30.00	     6.000
  20.680         39.17	     6.856
  20.700         39.17	     6.856
  20.720         36.67	     6.633
  20.740         43.33	     7.211
  20.760         45.00	     7.348
  20.780         40.83	     7.000
  20.800         48.33	     7.616
  20.820         48.33	     7.616
  20.840         53.33	     8.000
  20.860         66.67	     8.944
  20.880         97.50	    10.817
  20.900        103.33	    11.136
  20.920        125.00	    12.247
  20.940        153.33	    13.565
  20.960        176.67	    14.560
  20.980        231.67	    16.673
  21.000        267.50	    17.916
  21.020        281.67	    18.385
  21.040        260.00	    17.664
  21.060        205.83	    15.716
  21.080        167.50	    14.177
  21.100        120.83	    12.042
  21.120         85.00	    10.100
  21.140         78.33	     9.695
  21.160         61.67	     8.602
  21.180         74.17	     9.434
  21.200         64.17	     8.775
  21.220         56.67	     8.246
  21.240         63.33	     8.718
  21.260         45.00	     7.348
  21.280         55.83	     8.185
  21.300         47.50	     7.550
  21.320         45.00	     7.348
  21.340         41.67	     7.071
  21.360         27.50	     5.745
  21.380         33.33	     6.325
  21.400         40.83	     7.000
  21.420         30.00	     6.000
  21.440         40.00	     6.928
  21.460         33.33	     6.325
  21.480         35.00	     6.481
  21.500         33.33	     6.325
  21.520         27.50	     5.745
  21.540         38.33	     6.782
  21.560         30.83	     6.083
  21.580         35.00	     6.481
  21.600         40.83	     7.000
  21.620         40.83	     7.000
  21.640         32.50	     6.245
  21.660         41.67	     7.071
  21.680         26.67	     5.657
  21.700         34.17	     6.403
  21.720         41.67	     7.071
  21.740         32.50	     6.245
  21.760         35.00	     6.481
  21.780         45.83	     7.416
  21.800         30.00	     6.000
  21.820         35.00	     6.481
  21.840         35.83	     6.557
  21.860         37.50	     6.708
  21.880         37.50	     6.708
  21.900         37.50	     6.708
  21.920         30.00	     6.000
  21.940         31.67	     6.164
  21.960         41.67	     7.071
  21.980         33.33	     6.325
  22.000         37.50	     6.708
  22.020         55.83	     8.185
  22.040         44.17	     7.280
  22.060         60.00	     8.485
  22.080        105.00	    11.225
  22.100        109.17	    11.446
  22.120        118.33	    11.916
  22.140        135.83	    12.767
  22.160        194.17	    15.264
  22.180        185.83	    14.933
  22.200        165.83	    14.107
  22.220        127.50	    12.369
  22.240        125.00	    12.247
  22.260         89.17	    10.344
  22.280         67.50	     9.000
  22.300         58.33	     8.367
  22.320         40.83	     7.000
  22.340         50.00	     7.746
  22.360         34.17	     6.403
  22.380         49.17	     7.681
  22.400         40.83	     7.000
  22.420         39.17	     6.856
  22.440         40.83	     7.000
  22.460         36.67	     6.633
  22.480         42.50	     7.141
  22.500         45.00	     7.348
  22.520         43.33	     7.211
  22.540         40.83	     7.000
  22.560         50.00	     7.746
  22.580         46.67	     7.483
  22.600         46.67	     7.483
  22.620         44.17	     7.280
  22.640         38.33	     6.782
  22.660         33.33	     6.325
  22.680         27.50	     5.745
  22.700         38.33	     6.782
  22.720         53.33	     8.000
  22.740         30.00	     6.000
  22.760         46.67	     7.483
  22.780         30.83	     6.083
  22.800         38.33	     6.782
  22.820         38.33	     6.782
  22.840         45.83	     7.416
  22.860         42.50	     7.141
  22.880         40.00	     6.928
  22.900         38.33	     6.782
  22.920         30.00	     6.000
  22.940         37.50	     6.708
  22.960         51.67	     7.874
  22.980         48.33	     7.616
  23.000         52.50	     7.937
  23.020         46.67	     7.483
  23.040         54.17	     8.062
  23.060         54.17	     8.062
  23.080         54.17	     8.062
  23.100         61.67	     8.602
  23.120         62.50	     8.660
  23.140         73.33	     9.381
  23.160         60.83	     8.544
  23.180         62.50	     8.660
  23.200         75.00	     9.487
  23.220         61.67	     8.602
  23.240         83.33	    10.000
  23.260         61.67	     8.602
  23.280         63.33	     8.718
  23.300         55.00	     8.124
  23.320         53.33	     8.000
  23.340         35.00	     6.481
  23.360         39.17	     6.856
  23.380         45.83	     7.416
  23.400         30.83	     6.083
  23.420         34.17	     6.403
  23.440         33.33	     6.325
  23.460         31.67	     6.164
  23.480         45.00	     7.348
  23.500         50.83	     7.810
  23.520         48.33	     7.616
  23.540         40.00	     6.928
  23.560         55.00	     8.124
  23.580         60.00	     8.485
  23.600         55.83	     8.185
  23.620         80.83	     9.849
  23.640        121.67	    12.083
  23.660        127.50	    12.369
  23.680        121.67	    12.083
  23.700        104.17	    11.180
  23.720        103.33	    11.136
  23.740         99.17	    10.909
  23.760         81.67	     9.899
  23.780         72.50	     9.327
  23.800         60.00	     8.485
  23.820         53.33	     8.000
  23.840         60.00	     8.485
  23.860         53.33	     8.000
  23.880         57.50	     8.307
  23.900         74.17	     9.434
  23.920         71.67	     9.274
  23.940         67.50	     9.000
  23.960         60.83	     8.544
  23.980         65.83	     8.888
  24.000         55.83	     8.185
  24.020         55.00	     8.124
  24.040         73.33	     9.381
  24.060         63.33	     8.718
  24.080         61.67	     8.602
  24.100         65.00	     8.832
  24.120         78.33	     9.695
  24.140         68.33	     9.055
  24.160         75.83	     9.539
  24.180         74.17	     9.434
  24.200         67.50	     9.000
  24.220         79.17	     9.747
  24.240         85.83	    10.149
  24.260         89.17	    10.344
  24.280         80.83	     9.849
  24.300         77.50	     9.644
  24.320         84.17	    10.050
  24.340         84.17	    10.050
  24.360        135.00	    12.728
  24.380        173.33	    14.422
  24.400        170.83	    14.318
  24.420        128.33	    12.410
  24.440        150.83	    13.454
  24.460        156.67	    13.711
  24.480        132.50	    12.610
  24.500         84.17	    10.050
  24.520         95.83	    10.724
  24.540         93.33	    10.583
  24.560         89.17	    10.344
  24.580         88.33	    10.296
  24.600         72.50	     9.327
  24.620        104.17	    11.180
  24.640        104.17	    11.180
  24.660        122.50	    12.124
  24.680        133.33	    12.649
  24.700        170.83	    14.318
  24.720        182.50	    14.799
  24.740        180.83	    14.731
  24.760        184.17	    14.866
  24.780        180.83	    14.731
  24.800        179.17	    14.663
  24.820        175.83	    14.526
  24.840        145.00	    13.191
  24.860        137.50	    12.845
  24.880        125.83	    12.288
  24.900        118.33	    11.916
  24.920        110.00	    11.489
  24.940        105.00	    11.225
  24.960        116.67	    11.832
  24.980         89.17	    10.344
  25.000        109.17	    11.446
  25.020        103.33	    11.136
  25.040         83.33	    10.000
  25.060         86.67	    10.198
  25.080         85.00	    10.100
  25.100         84.17	    10.050
  25.120         90.83	    10.440
  25.140         80.83	     9.849
  25.160        102.50	    11.091
  25.180        120.00	    12.000
  25.200        141.67	    13.038
  25.220        139.17	    12.923
  25.240        175.00	    14.491
  25.260        219.17	    16.217
  25.280        217.50	    16.155
  25.300        251.67	    17.378
  25.320        221.67	    16.310
  25.340        240.83	    17.000
  25.360        197.50	    15.395
  25.380        148.33	    13.342
  25.400        138.33	    12.884
  25.420        106.67	    11.314
  25.440         73.33	     9.381
  25.460         93.33	    10.583
  25.480         80.83	     9.849
  25.500         91.67	    10.488
  25.520        101.67	    11.045
  25.540        106.67	    11.314
  25.560        103.33	    11.136
  25.580        140.83	    13.000
  25.600        146.67	    13.266
  25.620        125.00	    12.247
  25.640        140.00	    12.961
  25.660        116.67	    11.832
  25.680        110.00	    11.489
  25.700        130.00	    12.490
  25.720        139.17	    12.923
  25.740        170.00	    14.283
  25.760        153.33	    13.565
  25.780        149.17	    13.379
  25.800        110.00	    11.489
  25.820         94.17	    10.630
  25.840        102.50	    11.091
  25.860         59.17	     8.426
  25.880         59.17	     8.426
  25.900         70.83	     9.220
  25.920         45.00	     7.348
  25.940         55.00	     8.124
  25.960         45.83	     7.416
  25.980         48.33	     7.616
  26.000         47.50	     7.550
  26.020         45.00	     7.348
  26.040         51.67	     7.874
  26.060         49.17	     7.681
  26.080         49.17	     7.681
  26.100         44.17	     7.280
  26.120         49.17	     7.681
  26.140         40.83	     7.000
  26.160         46.67	     7.483
  26.180         36.67	     6.633
  26.200         47.50	     7.550
  26.220         37.50	     6.708
  26.240         59.17	     8.426
  26.260         45.00	     7.348
  26.280         44.17	     7.280
  26.300         45.00	     7.348
  26.320         50.00	     7.746
  26.340         51.67	     7.874
  26.360         46.67	     7.483
  26.380         58.33	     8.367
  26.400         50.83	     7.810
  26.420         56.67	     8.246
  26.440         63.33	     8.718
  26.460         90.83	    10.440
  26.480        100.83	    11.000
  26.500         80.00	     9.798
  26.520        120.83	    12.042
  26.540        109.17	    11.446
  26.560        124.17	    12.207
  26.580        111.67	    11.576
  26.600        121.67	    12.083
  26.620        158.33	    13.784
  26.640        173.33	    14.422
  26.660        264.17	    17.804
  26.680        334.17	    20.025
  26.700        557.50	    25.865
  26.720        754.17	    30.083
  26.740        840.00	    31.749
  26.760       1010.83	    34.828
  26.780       1129.17	    36.810
  26.800       1017.50	    34.943
  26.820        907.50	    33.000
  26.840        845.83	    31.859
  26.860        702.50	    29.034
  26.880        580.83	    26.401
  26.900        451.67	    23.281
  26.920        400.00	    21.909
  26.940        410.83	    22.204
  26.960        501.67	    24.536
  26.980        532.50	    25.278
  27.000        521.67	    25.020
  27.020        574.17	    26.249
  27.040        551.67	    25.729
  27.060        535.83	    25.357
  27.080        484.17	    24.104
  27.100        419.17	    22.428
  27.120        332.50	    19.975
  27.140        280.00	    18.330
  27.160        191.67	    15.166
  27.180        149.17	    13.379
  27.200        130.00	    12.490
  27.220        108.33	    11.402
  27.240         84.17	    10.050
  27.260         84.17	    10.050
  27.280         68.33	     9.055
  27.300         78.33	     9.695
  27.320         60.83	     8.544
  27.340         44.17	     7.280
  27.360         66.67	     8.944
  27.380         56.67	     8.246
  27.400         65.83	     8.888
  27.420         58.33	     8.367
  27.440         60.00	     8.485
  27.460         56.67	     8.246
  27.480         55.00	     8.124
  27.500         76.67	     9.592
  27.520         82.50	     9.950
  27.540         81.67	     9.899
  27.560         79.17	     9.747
  27.580         85.00	    10.100
  27.600        104.17	    11.180
  27.620        155.83	    13.675
  27.640        279.17	    18.303
  27.660        358.33	    20.736
  27.680        240.00	    16.971
  27.700        202.50	    15.588
  27.720        225.00	    16.432
  27.740        205.83	    15.716
  27.760        136.67	    12.806
  27.780        138.33	    12.884
  27.800        129.17	    12.450
  27.820        196.67	    15.362
  27.840        405.00	    22.045
  27.860        485.83	    24.145
  27.880        348.33	    20.445
  27.900        363.33	    20.881
  27.920        405.00	    22.045
  27.940        318.33	    19.545
  27.960        280.00	    18.330
  27.980        332.50	    19.975
  28.000        366.67	    20.976
  28.020        444.17	    23.087
  28.040        379.17	    21.331
  28.060        388.33	    21.587
  28.080        383.33	    21.448
  28.100        375.83	    21.237
  28.120        353.33	    20.591
  28.140        254.17	    17.464
  28.160        202.50	    15.588
  28.180        153.33	    13.565
  28.200        139.17	    12.923
  28.220        138.33	    12.884
  28.240        110.00	    11.489
  28.260        103.33	    11.136
  28.280        103.33	    11.136
  28.300         99.17	    10.909
  28.320        112.50	    11.619
  28.340         79.17	     9.747
  28.360         82.50	     9.950
  28.380         97.50	    10.817
  28.400         89.17	    10.344
  28.420         80.83	     9.849
  28.440         97.50	    10.817
  28.460         90.83	    10.440
  28.480         69.17	     9.110
  28.500         85.83	    10.149
  28.520         77.50	     9.644
  28.540         68.33	     9.055
  28.560         59.17	     8.426
  28.580         65.00	     8.832
  28.600         58.33	     8.367
  28.620         55.00	     8.124
  28.640         59.17	     8.426
  28.660         78.33	     9.695
  28.680         77.50	     9.644
  28.700         61.67	     8.602
  28.720         74.17	     9.434
  28.740         85.83	    10.149
  28.760        100.83	    11.000
  28.780        115.00	    11.747
  28.800        135.00	    12.728
  28.820        128.33	    12.410
  28.840         99.17	    10.909
  28.860         80.00	     9.798
  28.880        103.33	    11.136
  28.900         80.83	     9.849
  28.920         62.50	     8.660
  28.940         56.67	     8.246
  28.960         60.00	     8.485
  28.980         48.33	     7.616
  29.000         47.50	     7.550
  29.020         51.67	     7.874
  29.040         52.50	     7.937
  29.060         42.50	     7.141
  29.080         57.50	     8.307
  29.100         37.50	     6.708
  29.120         21.67	     5.099
  29.140         40.00	     6.928
  29.160         35.00	     6.481
  29.180         26.67	     5.657
  29.200         40.00	     6.928
  29.220         28.33	     5.831
  29.240         45.00	     7.348
  29.260         42.50	     7.141
  29.280         36.67	     6.633
  29.300         37.50	     6.708
  29.320         29.17	     5.916
  29.340         35.83	     6.557
  29.360         35.00	     6.481
  29.380         27.50	     5.745
  29.400         27.50	     5.745
  29.420         40.00	     6.928
  29.440         30.83	     6.083
  29.460         30.83	     6.083
  29.480         35.00	     6.481
  29.500         32.50	     6.245
  29.520         31.67	     6.164
  29.540         41.67	     7.071
  29.560         30.00	     6.000
  29.580         28.33	     5.831
  29.600         36.67	     6.633
  29.620         40.83	     7.000
  29.640         42.50	     7.141
  29.660         44.17	     7.280
  29.680         40.83	     7.000
  29.700         39.17	     6.856
  29.720         39.17	     6.856
  29.740         43.33	     7.211
  29.760         38.33	     6.782
  29.780         60.00	     8.485
  29.800         52.50	     7.937
  29.820         47.50	     7.550
  29.840         51.67	     7.874
  29.860         36.67	     6.633
  29.880         53.33	     8.000
  29.900         67.50	     9.000
  29.920         80.00	     9.798
  29.940        105.00	    11.225
  29.960         82.50	     9.950
  29.980        115.83	    11.790
  30.000        129.17	    12.450
  30.020        125.00	    12.247
  30.040        129.17	    12.450
  30.060        124.17	    12.207
  30.080        123.33	    12.166
  30.100        103.33	    11.136
  30.120         75.83	     9.539
  30.140         81.67	     9.899
  30.160         83.33	    10.000
  30.180         71.67	     9.274
  30.200         81.67	     9.899
  30.220         65.83	     8.888
  30.240         89.17	    10.344
  30.260         90.00	    10.392
  30.280         90.83	    10.440
  30.300         88.33	    10.296
  30.320         85.00	    10.100
  30.340         77.50	     9.644
  30.360         78.33	     9.695
  30.380         66.67	     8.944
  30.400         76.67	     9.592
  30.420         74.17	     9.434
  30.440         51.67	     7.874
  30.460         68.33	     9.055
  30.480         55.00	     8.124
  30.500         74.17	     9.434
  30.520         78.33	     9.695
  30.540        100.00	    10.954
  30.560         92.50	    10.536
  30.580         75.83	     9.539
  30.600         91.67	    10.488
  30.620        102.50	    11.091
  30.640         89.17	    10.344
  30.660         83.33	    10.000
  30.680         76.67	     9.592
  30.700         85.00	    10.100
  30.720         80.00	     9.798
  30.740         68.33	     9.055
  30.760         57.50	     8.307
  30.780         52.50	     7.937
  30.800         48.33	     7.616
  30.820         55.83	     8.185
  30.840         62.50	     8.660
  30.860         75.83	     9.539
  30.880         80.00	     9.798
  30.900         78.33	     9.695
  30.920         79.17	     9.747
  30.940         74.17	     9.434
  30.960         90.83	    10.440
  30.980         61.67	     8.602
  31.000         70.83	     9.220
  31.020         81.67	     9.899
  31.040         78.33	     9.695
  31.060         81.67	     9.899
  31.080         63.33	     8.718
  31.100         60.83	     8.544
  31.120         64.17	     8.775
  31.140         58.33	     8.367
  31.160         50.83	     7.810
  31.180         70.83	     9.220
  31.200         49.17	     7.681
  31.220         61.67	     8.602
  31.240         71.67	     9.274
  31.260         60.00	     8.485
  31.280         95.00	    10.677
  31.300         98.33	    10.863
  31.320        103.33	    11.136
  31.340         94.17	    10.630
  31.360        106.67	    11.314
  31.380        123.33	    12.166
  31.400        138.33	    12.884
  31.420        140.00	    12.961
  31.440        123.33	    12.166
  31.460         98.33	    10.863
  31.480        107.50	    11.358
  31.500        104.17	    11.180
  31.520         67.50	     9.000
  31.540         65.00	     8.832
  31.560         62.50	     8.660
  31.580         74.17	     9.434
  31.600         56.67	     8.246
  31.620         42.50	     7.141
  31.640         69.17	     9.110
  31.660         60.00	     8.485
  31.680         69.17	     9.110
  31.700         74.17	     9.434
  31.720         74.17	     9.434
  31.740         65.83	     8.888
  31.760         75.83	     9.539
  31.780         70.83	     9.220
  31.800         62.50	     8.660
  31.820         54.17	     8.062
  31.840         59.17	     8.426
  31.860         39.17	     6.856
  31.880         30.00	     6.000
  31.900         43.33	     7.211
  31.920         45.83	     7.416
  31.940         52.50	     7.937
  31.960         60.83	     8.544
  31.980         45.00	     7.348
  32.000         35.83	     6.557
  32.020         64.17	     8.775
  32.040         51.67	     7.874
  32.060         50.00	     7.746
  32.080         49.17	     7.681
  32.100         49.17	     7.681
  32.120         61.67	     8.602
  32.140         70.83	     9.220
  32.160         59.17	     8.426
  32.180         65.00	     8.832
  32.200         75.00	     9.487
  32.220         83.33	    10.000
  32.240         84.17	    10.050
  32.260         75.83	     9.539
  32.280         86.67	    10.198
  32.300         73.33	     9.381
  32.320         68.33	     9.055
  32.340         62.50	     8.660
  32.360         62.50	     8.660
  32.380         43.33	     7.211
  32.400         35.83	     6.557
  32.420         41.67	     7.071
  32.440         35.00	     6.481
  32.460         39.17	     6.856
  32.480         32.50	     6.245
  32.500         31.67	     6.164
  32.520         27.50	     5.745
  32.540         25.00	     5.477
  32.560         35.83	     6.557
  32.580         27.50	     5.745
  32.600         30.83	     6.083
  32.620         35.83	     6.557
  32.640         35.00	     6.481
  32.660         33.33	     6.325
  32.680         25.00	     5.477
  32.700         26.67	     5.657
  32.720         32.50	     6.245
  32.740         25.83	     5.568
  32.760         25.00	     5.477
  32.780         34.17	     6.403
  32.800         33.33	     6.325
  32.820         30.83	     6.083
  32.840         50.00	     7.746
  32.860         43.33	     7.211
  32.880         46.67	     7.483
  32.900         50.83	     7.810
  32.920         44.17	     7.280
  32.940         35.83	     6.557
  32.960         32.50	     6.245
  32.980         32.50	     6.245
  33.000         35.83	     6.557
  33.020         30.00	     6.000
  33.040         34.17	     6.403
  33.060         28.33	     5.831
  33.080         25.00	     5.477
  33.100         39.17	     6.856
  33.120         32.50	     6.245
  33.140         30.83	     6.083
  33.160         26.67	     5.657
  33.180         45.00	     7.348
  33.200         49.17	     7.681
  33.220         47.50	     7.550
  33.240         50.83	     7.810
  33.260         41.67	     7.071
  33.280         39.17	     6.856
  33.300         37.50	     6.708
  33.320         43.33	     7.211
  33.340         38.33	     6.782
  33.360         36.67	     6.633
  33.380         43.33	     7.211
  33.400         34.17	     6.403
  33.420         35.00	     6.481
  33.440         35.00	     6.481
  33.460         42.50	     7.141
  33.480         31.67	     6.164
  33.500         30.83	     6.083
  33.520         35.83	     6.557
  33.540         35.83	     6.557
  33.560         35.83	     6.557
  33.580         35.83	     6.557
  33.600         31.67	     6.164
  33.620         34.17	     6.403
  33.640         38.33	     6.782
  33.660         35.83	     6.557
  33.680         38.33	     6.782
  33.700         39.17	     6.856
  33.720         31.67	     6.164
  33.740         34.17	     6.403
  33.760         52.50	     7.937
  33.780         45.00	     7.348
  33.800         33.33	     6.325
  33.820         29.17	     5.916
  33.840         33.33	     6.325
  33.860         50.00	     7.746
  33.880         42.50	     7.141
  33.900         34.17	     6.403
  33.920         36.67	     6.633
  33.940         35.00	     6.481
  33.960         41.67	     7.071
  33.980         47.50	     7.550
  34.000         40.00	     6.928
  34.020         55.83	     8.185
  34.040         42.50	     7.141
  34.060         45.00	     7.348
  34.080         41.67	     7.071
  34.100         40.83	     7.000
  34.120         43.33	     7.211
  34.140         39.17	     6.856
  34.160         40.83	     7.000
  34.180         30.00	     6.000
  34.200         31.67	     6.164
  34.220         28.33	     5.831
  34.240         46.67	     7.483
  34.260         41.67	     7.071
  34.280         43.33	     7.211
  34.300         42.50	     7.141
  34.320         47.50	     7.550
  34.340         43.33	     7.211
  34.360         39.17	     6.856
  34.380         39.17	     6.856
  34.400         45.00	     7.348
  34.420         35.00	     6.481
  34.440         43.33	     7.211
  34.460         35.83	     6.557
  34.480         37.50	     6.708
  34.500         47.50	     7.550
  34.520         61.67	     8.602
  34.540         60.00	     8.485
  34.560         50.83	     7.810
  34.580         46.67	     7.483
  34.600         49.17	     7.681
  34.620         35.00	     6.481
  34.640         52.50	     7.937
  34.660         60.00	     8.485
  34.680         61.67	     8.602
  34.700         60.00	     8.485
  34.720         83.33	    10.000
  34.740         94.17	    10.630
  34.760         58.33	     8.367
  34.780         57.50	     8.307
  34.800         65.83	     8.888
  34.820         43.33	     7.211
  34.840         58.33	     8.367
  34.860         60.00	     8.485
  34.880         47.50	     7.550
  34.900         50.00	     7.746
  34.920         62.50	     8.660
  34.940         65.83	     8.888
  34.960         66.67	     8.944
  34.980         69.17	     9.110
  35.000         71.67	     9.274
  35.020         73.33	     9.381
  35.040         83.33	    10.000
  35.060         79.17	     9.747
  35.080        102.50	    11.091
  35.100         83.33	    10.000
  35.120        113.33	    11.662
  35.140        133.33	    12.649
  35.160        147.50	    13.304
  35.180        141.67	    13.038
  35.200        137.50	    12.845
  35.220         98.33	    10.863
  35.240        100.00	    10.954
  35.260        102.50	    11.091
  35.280         88.33	    10.296
  35.300         81.67	     9.899
  35.320         68.33	     9.055
  35.340         69.17	     9.110
  35.360         60.00	     8.485
  35.380         57.50	     8.307
  35.400         52.50	     7.937
  35.420         44.17	     7.280
  35.440         70.83	     9.220
  35.460         66.67	     8.944
  35.480         60.83	     8.544
  35.500         60.83	     8.544
  35.520         54.17	     8.062
  35.540         70.00	     9.165
  35.560         66.67	     8.944
  35.580         65.83	     8.888
  35.600         84.17	    10.050
  35.620         83.33	    10.000
  35.640        108.33	    11.402
  35.660         77.50	     9.644
  35.680         85.00	    10.100
  35.700         98.33	    10.863
  35.720        101.67	    11.045
  35.740         71.67	     9.274
  35.760         85.83	    10.149
  35.780         68.33	     9.055
  35.800         74.17	     9.434
  35.820         76.67	     9.592
  35.840         62.50	     8.660
  35.860         50.00	     7.746
  35.880         50.83	     7.810
  35.900         55.83	     8.185
  35.920         47.50	     7.550
  35.940         51.67	     7.874
  35.960         42.50	     7.141
  35.980         36.67	     6.633
  36.000         42.50	     7.141
  36.020         55.00	     8.124
  36.040         60.00	     8.485
  36.060         43.33	     7.211
  36.080         46.67	     7.483
  36.100         51.67	     7.874
  36.120         54.17	     8.062
  36.140         56.67	     8.246
  36.160         67.50	     9.000
  36.180         65.83	     8.888
  36.200         65.00	     8.832
  36.220         84.17	    10.050
  36.240         75.83	     9.539
  36.260         66.67	     8.944
  36.280         65.00	     8.832
  36.300         72.50	     9.327
  36.320         61.67	     8.602
  36.340         53.33	     8.000
  36.360         48.33	     7.616
  36.380         36.67	     6.633
  36.400         49.17	     7.681
  36.420         42.50	     7.141
  36.440         41.67	     7.071
  36.460         47.50	     7.550
  36.480         43.33	     7.211
  36.500         54.17	     8.062
  36.520         47.50	     7.550
  36.540         50.00	     7.746
  36.560         67.50	     9.000
  36.580         71.67	     9.274
  36.600         81.67	     9.899
  36.620         95.00	    10.677
  36.640        100.83	    11.000
  36.660        158.33	    13.784
  36.680        155.83	    13.675
  36.700        194.17	    15.264
  36.720        216.67	    16.125
  36.740        185.00	    14.900
  36.760        132.50	    12.610
  36.780        105.00	    11.225
  36.800        123.33	    12.166
  36.820        130.83	    12.530
  36.840         81.67	     9.899
  36.860         69.17	     9.110
  36.880         84.17	    10.050
  36.900         52.50	     7.937
  36.920         62.50	     8.660
  36.940         58.33	     8.367
  36.960         37.50	     6.708
  36.980         45.83	     7.416
  37.000         46.67	     7.483
  37.020         43.33	     7.211
  37.040         50.83	     7.810
  37.060         35.00	     6.481
  37.080         43.33	     7.211
  37.100         36.67	     6.633
  37.120         36.67	     6.633
  37.140         37.50	     6.708
  37.160         33.33	     6.325
  37.180         38.33	     6.782
  37.200         46.67	     7.483
  37.220         34.17	     6.403
  37.240         40.00	     6.928
  37.260         40.83	     7.000
  37.280         35.00	     6.481
  37.300         36.67	     6.633
  37.320         41.67	     7.071
  37.340         54.17	     8.062
  37.360         45.00	     7.348
  37.380         46.67	     7.483
  37.400         46.67	     7.483
  37.420         44.17	     7.280
  37.440         54.17	     8.062
  37.460         52.50	     7.937
  37.480         59.17	     8.426
  37.500         69.17	     9.110
  37.520         65.00	     8.832
  37.540         60.00	     8.485
  37.560         62.50	     8.660
  37.580         59.17	     8.426
  37.600         55.00	     8.124
  37.620         50.83	     7.810
  37.640         56.67	     8.246
  37.660         56.67	     8.246
  37.680         45.83	     7.416
  37.700         50.83	     7.810
  37.720         70.00	     9.165
  37.740         58.33	     8.367
  37.760         66.67	     8.944
  37.780         50.83	     7.810
  37.800         48.33	     7.616
  37.820         61.67	     8.602
  37.840         63.33	     8.718
  37.860         75.83	     9.539
  37.880         65.00	     8.832
  37.900         68.33	     9.055
  37.920         69.17	     9.110
  37.940         69.17	     9.110
  37.960         46.67	     7.483
  37.980         51.67	     7.874
  38.000         39.17	     6.856
  38.020         45.83	     7.416
  38.040         41.67	     7.071
  38.060         46.67	     7.483
  38.080         35.83	     6.557
  38.100         47.50	     7.550
  38.120         62.50	     8.660
  38.140         72.50	     9.327
  38.160         88.33	    10.296
  38.180         88.33	    10.296
  38.200         96.67	    10.770
  38.220         80.00	     9.798
  38.240         93.33	    10.583
  38.260         87.50	    10.247
  38.280         66.67	     8.944
  38.300         61.67	     8.602
  38.320         56.67	     8.246
  38.340         51.67	     7.874
  38.360         39.17	     6.856
  38.380         41.67	     7.071
  38.400         38.33	     6.782
  38.420         30.83	     6.083
  38.440         35.00	     6.481
  38.460         37.50	     6.708
  38.480         28.33	     5.831
  38.500         24.17	     5.385
  38.520         32.50	     6.245
  38.540         36.67	     6.633
  38.560         34.17	     6.403
  38.580         38.33	     6.782
  38.600         30.00	     6.000
  38.620         40.00	     6.928
  38.640         52.50	     7.937
  38.660         35.00	     6.481
  38.680         35.83	     6.557
  38.700         35.83	     6.557
  38.720         38.33	     6.782
  38.740         32.50	     6.245
  38.760         39.17	     6.856
  38.780         27.50	     5.745
  38.800         42.50	     7.141
  38.820         34.17	     6.403
  38.840         30.00	     6.000
  38.860         35.83	     6.557
  38.880         31.67	     6.164
  38.900         31.67	     6.164
  38.920         38.33	     6.782
  38.940         30.83	     6.083
  38.960         35.83	     6.557
  38.980         43.33	     7.211
  39.000         50.83	     7.810
  39.020         32.50	     6.245
  39.040         43.33	     7.211
  39.060         26.67	     5.657
  39.080         25.83	     5.568
  39.100         40.00	     6.928
  39.120         25.83	     5.568
  39.140         23.33	     5.292
  39.160         44.17	     7.280
  39.180         30.83	     6.083
  39.200         34.17	     6.403
  39.220         20.83	     5.000
  39.240         32.50	     6.245
  39.260         36.67	     6.633
  39.280         35.00	     6.481
  39.300         25.83	     5.568
  39.320         36.67	     6.633
  39.340         32.50	     6.245
  39.360         27.50	     5.745
  39.380         43.33	     7.211
  39.400         40.83	     7.000
  39.420         39.17	     6.856
  39.440         43.33	     7.211
  39.460         37.50	     6.708
  39.480         35.83	     6.557
  39.500         37.50	     6.708
  39.520         68.33	     9.055
  39.540         75.83	     9.539
  39.560         83.33	    10.000
  39.580        126.67	    12.329
  39.600        105.00	    11.225
  39.620         90.83	    10.440
  39.640        108.33	    11.402
  39.660        103.33	    11.136
  39.680        101.67	    11.045
  39.700        104.17	    11.180
  39.720         71.67	     9.274
  39.740         72.50	     9.327
  39.760         62.50	     8.660
  39.780         54.17	     8.062
  39.800         42.50	     7.141
  39.820         42.50	     7.141
  39.840         40.83	     7.000
  39.860         27.50	     5.745
  39.880         42.50	     7.141
  39.900         36.67	     6.633
  39.920         53.33	     8.000
  39.940         46.67	     7.483
  39.960         31.67	     6.164
  39.980         43.33	     7.211
  40.000         34.17	     6.403
  40.020         40.83	     7.000
  40.040         29.17	     5.916
  40.060         29.17	     5.916
  40.080         32.50	     6.245
  40.100         25.00	     5.477
  40.120         34.17	     6.403
  40.140         40.83	     7.000
  40.160         32.50	     6.245
  40.180         30.83	     6.083
  40.200         35.00	     6.481
  40.220         38.33	     6.782
  40.240         40.83	     7.000
  40.260         36.67	     6.633
  40.280         34.17	     6.403
  40.300         31.67	     6.164
  40.320         34.17	     6.403
  40.340         54.17	     8.062
  40.360         50.83	     7.810
  40.380         53.33	     8.000
  40.400         60.00	     8.485
  40.420         81.67	     9.899
  40.440         84.17	    10.050
  40.460         89.17	    10.344
  40.480         85.83	    10.149
  40.500         72.50	     9.327
  40.520         67.50	     9.000
  40.540         48.33	     7.616
  40.560         55.00	     8.124
  40.580         70.00	     9.165
  40.600         55.83	     8.185
  40.620         45.00	     7.348
  40.640         32.50	     6.245
  40.660         36.67	     6.633
  40.680         35.00	     6.481
  40.700         36.67	     6.633
  40.720         26.67	     5.657
  40.740         30.00	     6.000
  40.760         30.83	     6.083
  40.780         30.00	     6.000
  40.800         38.33	     6.782
  40.820         42.50	     7.141
  40.840         38.33	     6.782
  40.860         35.00	     6.481
  40.880         29.17	     5.916
  40.900         29.17	     5.916
  40.920         34.17	     6.403
  40.940         33.33	     6.325
  40.960         46.67	     7.483
  40.980         33.33	     6.325
  41.000         37.50	     6.708
  41.020         40.00	     6.928
  41.040         50.83	     7.810
  41.060         36.67	     6.633
  41.080         40.83	     7.000
  41.100         55.00	     8.124
  41.120         30.00	     6.000
  41.140         38.33	     6.782
  41.160         35.83	     6.557
  41.180         44.17	     7.280
  41.200         30.00	     6.000
  41.220         26.67	     5.657
  41.240         18.33	     4.690
  41.260         32.50	     6.245
  41.280         34.17	     6.403
  41.300         36.67	     6.633
  41.320         28.33	     5.831
  41.340         43.33	     7.211
  41.360         53.33	     8.000
  41.380         39.17	     6.856
  41.400         39.17	     6.856
  41.420         33.33	     6.325
  41.440         46.67	     7.483
  41.460         42.50	     7.141
  41.480         53.33	     8.000
  41.500         38.33	     6.782
  41.520         46.67	     7.483
  41.540         40.00	     6.928
  41.560         42.50	     7.141
  41.580         31.67	     6.164
  41.600         35.83	     6.557
  41.620         41.67	     7.071
  41.640         40.00	     6.928
  41.660         35.83	     6.557
  41.680         38.33	     6.782
  41.700         38.33	     6.782
  41.720         36.67	     6.633
  41.740         35.83	     6.557
  41.760         51.67	     7.874
  41.780         65.00	     8.832
  41.800         73.33	     9.381
  41.820        122.50	    12.124
  41.840        112.50	    11.619
  41.860         97.50	    10.817
  41.880         51.67	     7.874
  41.900         50.83	     7.810
  41.920         74.17	     9.434
  41.940         98.33	    10.863
  41.960         74.17	     9.434
  41.980         57.50	     8.307
  42.000         52.50	     7.937
  42.020         51.67	     7.874
  42.040         50.83	     7.810
  42.060         42.50	     7.141
  42.080         48.33	     7.616
  42.100         50.00	     7.746
  42.120         65.00	     8.832
  42.140         56.67	     8.246
  42.160         37.50	     6.708
  42.180         45.83	     7.416
  42.200         40.00	     6.928
  42.220         45.00	     7.348
  42.240         42.50	     7.141
  42.260         37.50	     6.708
  42.280         28.33	     5.831
  42.300         44.17	     7.280
  42.320         44.17	     7.280
  42.340         35.00	     6.481
  42.360         48.33	     7.616
  42.380         43.33	     7.211
  42.400         47.50	     7.550
  42.420         51.67	     7.874
  42.440         65.83	     8.888
  42.460         57.50	     8.307
  42.480         70.00	     9.165
  42.500         82.50	     9.950
  42.520         89.17	    10.344
  42.540        100.00	    10.954
  42.560        114.17	    11.705
  42.580        139.17	    12.923
  42.600        114.17	    11.705
  42.620        127.50	    12.369
  42.640        121.67	    12.083
  42.660         87.50	    10.247
  42.680         85.00	    10.100
  42.700         78.33	     9.695
  42.720         76.67	     9.592
  42.740         65.83	     8.888
  42.760         46.67	     7.483
  42.780         41.67	     7.071
  42.800         45.00	     7.348
  42.820         44.17	     7.280
  42.840         29.17	     5.916
  42.860         38.33	     6.782
  42.880         43.33	     7.211
  42.900         33.33	     6.325
  42.920         38.33	     6.782
  42.940         35.00	     6.481
  42.960         43.33	     7.211
  42.980         48.33	     7.616
  43.000         38.33	     6.782
  43.020         50.00	     7.746
  43.040         31.67	     6.164
  43.060         45.83	     7.416
  43.080         33.33	     6.325
  43.100         35.83	     6.557
  43.120         39.17	     6.856
  43.140         40.00	     6.928
  43.160         23.33	     5.292
  43.180         36.67	     6.633
  43.200         36.67	     6.633
  43.220         20.83	     5.000
  43.240         25.83	     5.568
  43.260         30.83	     6.083
  43.280         36.67	     6.633
  43.300         33.33	     6.325
  43.320         23.33	     5.292
  43.340         25.83	     5.568
  43.360         25.83	     5.568
  43.380         27.50	     5.745
  43.400         25.00	     5.477
  43.420         24.17	     5.385
  43.440         33.33	     6.325
  43.460         25.00	     5.477
  43.480         22.50	     5.196
  43.500         45.83	     7.416
  43.520         35.00	     6.481
  43.540         33.33	     6.325
  43.560         39.17	     6.856
  43.580         31.67	     6.164
  43.600         30.83	     6.083
  43.620         46.67	     7.483
  43.640         28.33	     5.831
  43.660         49.17	     7.681
  43.680         31.67	     6.164
  43.700         42.50	     7.141
  43.720         26.67	     5.657
  43.740         39.17	     6.856
  43.760         31.67	     6.164
  43.780         28.33	     5.831
  43.800         32.50	     6.245
  43.820         49.17	     7.681
  43.840         59.17	     8.426
  43.860         44.17	     7.280
  43.880         44.17	     7.280
  43.900         45.00	     7.348
  43.920         38.33	     6.782
  43.940         43.33	     7.211
  43.960         34.17	     6.403
  43.980         40.00	     6.928
  44.000         34.17	     6.403
  44.020         29.17	     5.916
  44.040         43.33	     7.211
  44.060         25.00	     5.477
  44.080         33.33	     6.325
  44.100         30.83	     6.083
  44.120         44.17	     7.280
  44.140         37.50	     6.708
  44.160         38.33	     6.782
  44.180         39.17	     6.856
  44.200         25.83	     5.568
  44.220         30.00	     6.000
  44.240         36.67	     6.633
  44.260         32.50	     6.245
  44.280         40.00	     6.928
  44.300         45.00	     7.348
  44.320         51.67	     7.874
  44.340         57.50	     8.307
  44.360         68.33	     9.055
  44.380         85.83	    10.149
  44.400         77.50	     9.644
  44.420         62.50	     8.660
  44.440         64.17	     8.775
  44.460         64.17	     8.775
  44.480         64.17	     8.775
  44.500         57.50	     8.307
  44.520         64.17	     8.775
  44.540         48.33	     7.616
  44.560         25.83	     5.568
  44.580         39.17	     6.856
  44.600         28.33	     5.831
  44.620         38.33	     6.782
  44.640         27.50	     5.745
  44.660         32.50	     6.245
  44.680         35.83	     6.557
  44.700         30.00	     6.000
  44.720         38.33	     6.782
  44.740         28.33	     5.831
  44.760         31.67	     6.164
  44.780         28.33	     5.831
  44.800         36.67	     6.633
  44.820         31.67	     6.164
  44.840         34.17	     6.403
  44.860         26.67	     5.657
  44.880         48.33	     7.616
  44.900         39.17	     6.856
  44.920         35.83	     6.557
  44.940         27.50	     5.745
  44.960         42.50	     7.141
  44.980         38.33	     6.782
  45.000         43.33	     7.211
  45.020         50.83	     7.810
  45.040         45.00	     7.348
  45.060         48.33	     7.616
  45.080         35.00	     6.481
  45.100         49.17	     7.681
  45.120         60.00	     8.485
  45.140         46.67	     7.483
  45.160         56.67	     8.246
  45.180         45.83	     7.416
  45.200         55.00	     8.124
  45.220         45.83	     7.416
  45.240         43.33	     7.211
  45.260         53.33	     8.000
  45.280         50.00	     7.746
  45.300         46.67	     7.483
  45.320         48.33	     7.616
  45.340         46.67	     7.483
  45.360         50.00	     7.746
  45.380         59.17	     8.426
  45.400         43.33	     7.211
  45.420         68.33	     9.055
  45.440         62.50	     8.660
  45.460         73.33	     9.381
  45.480         84.17	    10.050
  45.500         82.50	     9.950
  45.520         74.17	     9.434
  45.540         89.17	    10.344
  45.560        105.83	    11.269
  45.580        127.50	    12.369
  45.600        149.17	    13.379
  45.620        176.67	    14.560
  45.640        200.00	    15.492
  45.660        210.83	    15.906
  45.680        228.33	    16.553
  45.700        231.67	    16.673
  45.720        255.83	    17.521
  45.740        237.50	    16.882
  45.760        241.67	    17.029
  45.780        216.67	    16.125
  45.800        212.50	    15.969
  45.820        180.00	    14.697
  45.840        135.00	    12.728
  45.860        138.33	    12.884
  45.880        140.00	    12.961
  45.900        142.50	    13.077
  45.920        125.83	    12.288
  45.940         96.67	    10.770
  45.960         90.00	    10.392
  45.980        106.67	    11.314
  46.000         65.00	     8.832
  46.020         53.33	     8.000
  46.040         64.17	     8.775
  46.060         53.33	     8.000
  46.080         63.33	     8.718
  46.100         59.17	     8.426
  46.120         49.17	     7.681
  46.140         46.67	     7.483
  46.160         44.17	     7.280
  46.180         57.50	     8.307
  46.200         40.83	     7.000
  46.220         48.33	     7.616
  46.240         42.50	     7.141
  46.260         38.33	     6.782
  46.280         43.33	     7.211
  46.300         32.50	     6.245
  46.320         39.17	     6.856
  46.340         36.67	     6.633
  46.360         40.00	     6.928
  46.380         40.00	     6.928
  46.400         30.83	     6.083
  46.420         29.17	     5.916
  46.440         38.33	     6.782
  46.460         27.50	     5.745
  46.480         35.83	     6.557
  46.500         30.83	     6.083
  46.520         40.83	     7.000
  46.540         32.50	     6.245
  46.560         32.50	     6.245
  46.580         36.67	     6.633
  46.600         23.33	     5.292
  46.620         32.50	     6.245
  46.640         31.67	     6.164
  46.660         43.33	     7.211
  46.680         38.33	     6.782
  46.700         30.00	     6.000
  46.720         28.33	     5.831
  46.740         30.83	     6.083
  46.760         35.83	     6.557
  46.780         38.33	     6.782
  46.800         28.33	     5.831
  46.820         34.17	     6.403
  46.840         28.33	     5.831
  46.860         30.00	     6.000
  46.880         24.17	     5.385
  46.900         25.83	     5.568
  46.920         29.17	     5.916
  46.940         36.67	     6.633
  46.960         30.00	     6.000
  46.980         35.00	     6.481
  47.000         31.67	     6.164
  47.020         25.00	     5.477
  47.040         30.00	     6.000
  47.060         31.67	     6.164
  47.080         30.83	     6.083
  47.100         23.33	     5.292
  47.120         40.00	     6.928
  47.140         31.67	     6.164
  47.160         39.17	     6.856
  47.180         40.00	     6.928
  47.200         43.33	     7.211
  47.220         59.17	     8.426
  47.240         60.00	     8.485
  47.260         63.33	     8.718
  47.280         65.83	     8.888
  47.300         73.33	     9.381
  47.320         62.50	     8.660
  47.340         65.83	     8.888
  47.360         65.83	     8.888
  47.380         56.67	     8.246
  47.400         51.67	     7.874
  47.420         67.50	     9.000
  47.440         65.00	     8.832
  47.460         41.67	     7.071
  47.480         34.17	     6.403
  47.500         42.50	     7.141
  47.520         41.67	     7.071
  47.540         32.50	     6.245
  47.560         31.67	     6.164
  47.580         32.50	     6.245
  47.600         31.67	     6.164
  47.620         35.83	     6.557
  47.640         30.83	     6.083
  47.660         29.17	     5.916
  47.680         23.33	     5.292
  47.700         21.67	     5.099
  47.720         29.17	     5.916
  47.740         23.33	     5.292
  47.760         18.33	     4.690
  47.780         30.00	     6.000
  47.800         28.33	     5.831
  47.820         26.67	     5.657
  47.840         25.83	     5.568
  47.860         35.83	     6.557
  47.880         20.83	     5.000
  47.900         21.67	     5.099
  47.920         30.83	     6.083
  47.940         26.67	     5.657
  47.960         26.67	     5.657
  47.980         26.67	     5.657
  48.000         30.83	     6.083
  48.020         30.00	     6.000
  48.040         31.67	     6.164
  48.060         35.83	     6.557
  48.080         35.00	     6.481
  48.100         40.83	     7.000
  48.120         38.33	     6.782
  48.140         35.83	     6.557
  48.160         38.33	     6.782
  48.180         47.50	     7.550
  48.200         48.33	     7.616
  48.220         48.33	     7.616
  48.240         51.67	     7.874
  48.260         57.50	     8.307
  48.280         45.00	     7.348
  48.300         45.00	     7.348
  48.320         51.67	     7.874
  48.340         35.83	     6.557
  48.360         51.67	     7.874
  48.380         35.83	     6.557
  48.400         31.67	     6.164
  48.420         39.17	     6.856
  48.440         33.33	     6.325
  48.460         40.00	     6.928
  48.480         50.83	     7.810
  48.500         26.67	     5.657
  48.520         50.83	     7.810
  48.540         30.00	     6.000
  48.560         34.17	     6.403
  48.580         31.67	     6.164
  48.600         35.00	     6.481
  48.620         41.67	     7.071
  48.640         38.33	     6.782
  48.660         40.00	     6.928
  48.680         29.17	     5.916
  48.700         31.67	     6.164
  48.720         27.50	     5.745
  48.740         37.50	     6.708
  48.760         42.50	     7.141
  48.780         38.33	     6.782
  48.800         41.67	     7.071
  48.820         41.67	     7.071
  48.840         20.83	     5.000
  48.860         29.17	     5.916
  48.880         40.83	     7.000
  48.900         36.67	     6.633
  48.920         22.50	     5.196
  48.940         33.33	     6.325
  48.960         32.50	     6.245
  48.980         29.17	     5.916
  49.000         29.17	     5.916
  49.020         25.00	     5.477
  49.040         30.83	     6.083
  49.060         25.83	     5.568
  49.080         21.67	     5.099
  49.100         19.17	     4.796
  49.120         26.67	     5.657
  49.140         41.67	     7.071
  49.160         35.00	     6.481
  49.180         23.33	     5.292
  49.200         35.00	     6.481
  49.220         25.83	     5.568
  49.240         39.17	     6.856
  49.260         30.83	     6.083
  49.280         32.50	     6.245
  49.300         38.33	     6.782
  49.320         46.67	     7.483
  49.340         45.00	     7.348
  49.360         35.00	     6.481
  49.380         25.83	     5.568
  49.400         32.50	     6.245
  49.420         32.50	     6.245
  49.440         27.50	     5.745
  49.460         30.83	     6.083
  49.480         31.67	     6.164
  49.500         31.67	     6.164
  49.520         40.83	     7.000
  49.540         26.67	     5.657
  49.560         26.67	     5.657
  49.580         25.00	     5.477
  49.600         40.00	     6.928
  49.620         27.50	     5.745
  49.640         23.33	     5.292
  49.660         35.00	     6.481
  49.680         28.33	     5.831
  49.700         36.67	     6.633
  49.720         29.17	     5.916
  49.740         28.33	     5.831
  49.760         35.00	     6.481
  49.780         35.00	     6.481
  49.800         40.83	     7.000
  49.820         33.33	     6.325
  49.840         45.00	     7.348
  49.860         55.00	     8.124
  49.880         39.17	     6.856
  49.900         46.67	     7.483
  49.920         54.17	     8.062
  49.940         30.00	     6.000
  49.960         52.50	     7.937
  49.980         60.83	     8.544
  50.000         40.00	     6.928
  50.020         50.00	     7.746
  50.040         55.00	     8.124
  50.060         54.17	     8.062
  50.080         58.33	     8.367
  50.100         50.83	     7.810
  50.120         62.50	     8.660
  50.140         67.50	     9.000
  50.160         86.67	    10.198
  50.180        115.00	    11.747
  50.200        150.00	    13.416
  50.220        197.50	    15.395
  50.240        171.67	    14.353
  50.260        170.83	    14.318
  50.280        154.17	    13.601
  50.300        173.33	    14.422
  50.320        154.17	    13.601
  50.340        143.33	    13.115
  50.360        112.50	    11.619
  50.380        130.83	    12.530
  50.400        115.00	    11.747
  50.420        115.83	    11.790
  50.440         76.67	     9.592
  50.460         75.00	     9.487
  50.480         47.50	     7.550
  50.500         41.67	     7.071
  50.520         36.67	     6.633
  50.540         38.33	     6.782
  50.560         49.17	     7.681
  50.580         41.67	     7.071
  50.600         47.50	     7.550
  50.620         43.33	     7.211
  50.640         46.67	     7.483
  50.660         42.50	     7.141
  50.680         50.00	     7.746
  50.700         50.00	     7.746
  50.720         50.83	     7.810
  50.740         55.00	     8.124
  50.760         84.17	    10.050
  50.780         56.67	     8.246
  50.800         62.50	     8.660
  50.820         47.50	     7.550
  50.840         33.33	     6.325
  50.860         42.50	     7.141
  50.880         43.33	     7.211
  50.900         40.83	     7.000
  50.920         55.83	     8.185
  50.940         40.00	     6.928
  50.960         45.00	     7.348
  50.980         45.00	     7.348
  51.000         35.00	     6.481
  51.020         42.50	     7.141
  51.040         30.00	     6.000
  51.060         25.83	     5.568
  51.080         32.50	     6.245
  51.100         27.50	     5.745
  51.120         36.67	     6.633
  51.140         27.50	     5.745
  51.160         31.67	     6.164
  51.180         31.67	     6.164
  51.200         38.33	     6.782
  51.220         47.50	     7.550
  51.240         37.50	     6.708
  51.260         64.17	     8.775
  51.280         53.33	     8.000
  51.300         45.83	     7.416
  51.320         50.00	     7.746
  51.340         54.17	     8.062
  51.360         56.67	     8.246
  51.380         52.50	     7.937
  51.400         47.50	     7.550
  51.420         49.17	     7.681
  51.440         47.50	     7.550
  51.460         45.00	     7.348
  51.480         34.17	     6.403
  51.500         31.67	     6.164
  51.520         25.83	     5.568
  51.540         25.83	     5.568
  51.560         26.67	     5.657
  51.580         33.33	     6.325
  51.600         30.00	     6.000
  51.620         32.50	     6.245
  51.640         34.17	     6.403
  51.660         20.83	     5.000
  51.680         20.00	     4.899
  51.700         26.67	     5.657
  51.720         22.50	     5.196
  51.740         28.33	     5.831
  51.760         23.33	     5.292
  51.780         21.67	     5.099
  51.800         30.83	     6.083
  51.820         24.17	     5.385
  51.840         27.50	     5.745
  51.860         25.00	     5.477
  51.880         29.17	     5.916
  51.900         28.33	     5.831
  51.920         21.67	     5.099
  51.940         25.00	     5.477
  51.960         29.17	     5.916
  51.980         32.50	     6.245
  52.000         20.83	     5.000
  52.020         29.17	     5.916
  52.040         25.00	     5.477
  52.060         31.67	     6.164
  52.080         29.17	     5.916
  52.100         26.67	     5.657
  52.120         26.67	     5.657
  52.140         29.17	     5.916
  52.160         22.50	     5.196
  52.180         35.83	     6.557
  52.200         39.17	     6.856
  52.220         35.00	     6.481
  52.240         31.67	     6.164
  52.260         34.17	     6.403
  52.280         50.83	     7.810
  52.300         55.83	     8.185
  52.320         62.50	     8.660
  52.340         61.67	     8.602
  52.360         51.67	     7.874
  52.380         37.50	     6.708
  52.400         48.33	     7.616
  52.420         44.17	     7.280
  52.440         50.00	     7.746
  52.460         56.67	     8.246
  52.480         50.00	     7.746
  52.500         52.50	     7.937
  52.520         40.00	     6.928
  52.540         41.67	     7.071
  52.560         37.50	     6.708
  52.580         30.00	     6.000
  52.600         32.50	     6.245
  52.620         36.67	     6.633
  52.640         31.67	     6.164
  52.660         40.00	     6.928
  52.680         37.50	     6.708
  52.700         28.33	     5.831
  52.720         33.33	     6.325
  52.740         33.33	     6.325
  52.760         37.50	     6.708
  52.780         35.83	     6.557
  52.800         34.17	     6.403
  52.820         30.00	     6.000
  52.840         24.17	     5.385
  52.860         25.00	     5.477
  52.880         32.50	     6.245
  52.900         33.33	     6.325
  52.920         25.00	     5.477
  52.940         40.83	     7.000
  52.960         25.00	     5.477
  52.980         40.00	     6.928
  53.000         40.00	     6.928
  53.020         35.00	     6.481
  53.040         44.17	     7.280
  53.060         34.17	     6.403
  53.080         42.50	     7.141
  53.100         36.67	     6.633
  53.120         31.67	     6.164
  53.140         37.50	     6.708
  53.160         45.83	     7.416
  53.180         50.83	     7.810
  53.200         42.50	     7.141
  53.220         48.33	     7.616
  53.240         41.67	     7.071
  53.260         48.33	     7.616
  53.280         59.17	     8.426
  53.300         46.67	     7.483
  53.320         48.33	     7.616
  53.340         32.50	     6.245
  53.360         49.17	     7.681
  53.380         51.67	     7.874
  53.400         40.83	     7.000
  53.420         50.83	     7.810
  53.440         46.67	     7.483
  53.460         29.17	     5.916
  53.480         43.33	     7.211
  53.500         26.67	     5.657
  53.520         29.17	     5.916
  53.540         44.17	     7.280
  53.560         27.50	     5.745
  53.580         43.33	     7.211
  53.600         30.83	     6.083
  53.620         34.17	     6.403
  53.640         35.83	     6.557
  53.660         31.67	     6.164
  53.680         18.33	     4.690
  53.700         30.00	     6.000
  53.720         38.33	     6.782
  53.740         33.33	     6.325
  53.760         32.50	     6.245
  53.780         33.33	     6.325
  53.800         29.17	     5.916
  53.820         32.50	     6.245
  53.840         33.33	     6.325
  53.860         34.17	     6.403
  53.880         30.00	     6.000
  53.900         40.00	     6.928
  53.920         38.33	     6.782
  53.940         24.17	     5.385
  53.960         33.33	     6.325
  53.980         33.33	     6.325
  54.000         30.00	     6.000
  54.020         25.83	     5.568
  54.040         28.33	     5.831
  54.060         28.33	     5.831
  54.080         32.50	     6.245
  54.100         35.83	     6.557
  54.120         34.17	     6.403
  54.140         32.50	     6.245
  54.160         29.17	     5.916
  54.180         29.17	     5.916
  54.200         25.00	     5.477
  54.220         29.17	     5.916
  54.240         24.17	     5.385
  54.260         30.83	     6.083
  54.280         32.50	     6.245
  54.300         35.00	     6.481
  54.320         28.33	     5.831
  54.340         28.33	     5.831
  54.360         30.00	     6.000
  54.380         30.83	     6.083
  54.400         35.83	     6.557
  54.420         30.83	     6.083
  54.440         38.33	     6.782
  54.460         37.50	     6.708
  54.480         33.33	     6.325
  54.500         44.17	     7.280
  54.520         32.50	     6.245
  54.540         31.67	     6.164
  54.560         39.17	     6.856
  54.580         39.17	     6.856
  54.600         23.33	     5.292
  54.620         51.67	     7.874
  54.640         31.67	     6.164
  54.660         36.67	     6.633
  54.680         35.00	     6.481
  54.700         50.83	     7.810
  54.720         25.83	     5.568
  54.740         34.17	     6.403
  54.760         32.50	     6.245
  54.780         38.33	     6.782
  54.800         30.83	     6.083
  54.820         44.17	     7.280
  54.840         32.50	     6.245
  54.860         53.33	     8.000
  54.880         48.33	     7.616
  54.900         44.17	     7.280
  54.920         55.83	     8.185
  54.940         45.83	     7.416
  54.960         51.67	     7.874
  54.980         66.67	     8.944
  55.000         52.50	     7.937
  55.020         62.50	     8.660
  55.040         51.67	     7.874
  55.060         52.50	     7.937
  55.080         52.50	     7.937
  55.100         43.33	     7.211
  55.120         45.00	     7.348
  55.140         67.50	     9.000
  55.160         50.00	     7.746
  55.180         49.17	     7.681
  55.200         47.50	     7.550
  55.220         48.33	     7.616
  55.240         45.83	     7.416
  55.260         38.33	     6.782
  55.280         50.83	     7.810
  55.300         53.33	     8.000
  55.320         54.17	     8.062
  55.340         55.83	     8.185
  55.360         68.33	     9.055
  55.380         72.50	     9.327
  55.400         66.67	     8.944
  55.420         68.33	     9.055
  55.440         68.33	     9.055
  55.460         58.33	     8.367
  55.480         56.67	     8.246
  55.500         51.67	     7.874
  55.520         49.17	     7.681
  55.540         50.00	     7.746
  55.560         52.50	     7.937
  55.580         54.17	     8.062
  55.600         55.00	     8.124
  55.620         44.17	     7.280
  55.640         36.67	     6.633
  55.660         43.33	     7.211
  55.680         31.67	     6.164
  55.700         42.50	     7.141
  55.720         33.33	     6.325
  55.740         40.83	     7.000
  55.760         45.83	     7.416
  55.780         49.17	     7.681
  55.800         38.33	     6.782
  55.820         45.83	     7.416
  55.840         54.17	     8.062
  55.860         64.17	     8.775
  55.880         50.83	     7.810
  55.900         79.17	     9.747
  55.920         59.17	     8.426
  55.940         53.33	     8.000
  55.960         72.50	     9.327
  55.980         77.50	     9.644
  56.000         63.33	     8.718
  56.020         57.50	     8.307
  56.040         57.50	     8.307
  56.060         50.83	     7.810
  56.080         51.67	     7.874
  56.100         62.50	     8.660
  56.120         59.17	     8.426
  56.140         75.00	     9.487
  56.160         50.83	     7.810
  56.180         50.83	     7.810
  56.200         35.00	     6.481
  56.220         40.83	     7.000
  56.240         32.50	     6.245
  56.260         52.50	     7.937
  56.280         45.83	     7.416
  56.300         42.50	     7.141
  56.320         43.33	     7.211
  56.340         33.33	     6.325
  56.360         39.17	     6.856
  56.380         35.83	     6.557
  56.400         40.83	     7.000
  56.420         36.67	     6.633
  56.440         30.83	     6.083
  56.460         30.00	     6.000
  56.480         40.00	     6.928
  56.500         35.00	     6.481
  56.520         20.00	     4.899
  56.540         25.00	     5.477
  56.560         25.83	     5.568
  56.580         29.17	     5.916
  56.600         25.83	     5.568
  56.620         30.00	     6.000
  56.640         30.00	     6.000
  56.660         30.00	     6.000
  56.680         26.67	     5.657
  56.700         38.33	     6.782
  56.720         34.17	     6.403
  56.740         34.17	     6.403
  56.760         40.00	     6.928
  56.780         36.67	     6.633
  56.800         24.17	     5.385
  56.820         34.17	     6.403
  56.840         33.33	     6.325
  56.860         21.67	     5.099
  56.880         33.33	     6.325
  56.900         35.00	     6.481
  56.920         25.83	     5.568
  56.940         24.17	     5.385
  56.960         25.83	     5.568
  56.980         29.17	     5.916
  57.000         32.50	     6.245
  57.020         31.67	     6.164
  57.040         30.83	     6.083
  57.060         36.67	     6.633
  57.080         25.83	     5.568
  57.100         34.17	     6.403
  57.120         28.33	     5.831
  57.140         35.00	     6.481
  57.160         33.33	     6.325
  57.180         24.17	     5.385
  57.200         27.50	     5.745
  57.220         32.50	     6.245
  57.240         30.00	     6.000
  57.260         32.50	     6.245
  57.280         30.83	     6.083
  57.300         27.50	     5.745
  57.320         35.83	     6.557
  57.340         30.00	     6.000
  57.360         31.67	     6.164
  57.380         40.83	     7.000
  57.400         41.67	     7.071
  57.420         29.17	     5.916
  57.440         35.00	     6.481
  57.460         27.50	     5.745
  57.480         30.00	     6.000
  57.500         32.50	     6.245
  57.520         34.17	     6.403
  57.540         33.33	     6.325
  57.560         29.17	     5.916
  57.580         31.67	     6.164
  57.600         30.83	     6.083
  57.620         31.67	     6.164
  57.640         35.83	     6.557
  57.660         30.00	     6.000
  57.680         36.67	     6.633
  57.700         30.83	     6.083
  57.720         37.50	     6.708
  57.740         26.67	     5.657
  57.760         43.33	     7.211
  57.780         37.50	     6.708
  57.800         27.50	     5.745
  57.820         37.50	     6.708
  57.840         36.67	     6.633
  57.860         32.50	     6.245
  57.880         31.67	     6.164
  57.900         33.33	     6.325
  57.920         39.17	     6.856
  57.940         31.67	     6.164
  57.960         26.67	     5.657
  57.980         21.67	     5.099
  58.000         27.50	     5.745
  58.020         30.00	     6.000
  58.040         30.83	     6.083
  58.060         19.17	     4.796
  58.080         27.50	     5.745
  58.100         30.00	     6.000
  58.120         32.50	     6.245
  58.140         27.50	     5.745
  58.160         24.17	     5.385
  58.180         27.50	     5.745
  58.200         32.50	     6.245
  58.220         33.33	     6.325
  58.240         30.83	     6.083
  58.260         29.17	     5.916
  58.280         22.50	     5.196
  58.300         41.67	     7.071
  58.320         27.50	     5.745
  58.340         30.83	     6.083
  58.360         31.67	     6.164
  58.380         15.83	     4.359
  58.400         35.00	     6.481
  58.420         30.00	     6.000
  58.440         39.17	     6.856
  58.460         36.67	     6.633
  58.480         40.83	     7.000
  58.500         39.17	     6.856
  58.520         30.83	     6.083
  58.540         34.17	     6.403
  58.560         41.67	     7.071
  58.580         40.00	     6.928
  58.600         50.00	     7.746
  58.620         50.00	     7.746
  58.640         48.33	     7.616
  58.660         45.00	     7.348
  58.680         35.83	     6.557
  58.700         37.50	     6.708
  58.720         47.50	     7.550
  58.740         33.33	     6.325
  58.760         37.50	     6.708
  58.780         49.17	     7.681
  58.800         45.00	     7.348
  58.820         51.67	     7.874
  58.840         33.33	     6.325
  58.860         54.17	     8.062
  58.880         49.17	     7.681
  58.900         49.17	     7.681
  58.920         61.67	     8.602
  58.940         43.33	     7.211
  58.960         35.83	     6.557
  58.980         52.50	     7.937
  59.000         35.00	     6.481
  59.020         40.83	     7.000
  59.040         43.33	     7.211
  59.060         38.33	     6.782
  59.080         55.83	     8.185
  59.100         49.17	     7.681
  59.120         43.33	     7.211
  59.140         40.00	     6.928
  59.160         46.67	     7.483
  59.180         36.67	     6.633
  59.200         45.83	     7.416
  59.220         47.50	     7.550
  59.240         34.17	     6.403
  59.260         48.33	     7.616
  59.280         53.33	     8.000
  59.300         54.17	     8.062
  59.320         41.67	     7.071
  59.340         44.17	     7.280
  59.360         44.17	     7.280
  59.380         40.00	     6.928
  59.400         35.83	     6.557
  59.420         36.67	     6.633
  59.440         35.83	     6.557
  59.460         37.50	     6.708
  59.480         39.17	     6.856
  59.500         44.17	     7.280
  59.520         42.50	     7.141
  59.540         44.17	     7.280
  59.560         40.00	     6.928
  59.580         46.67	     7.483
  59.600         45.00	     7.348
  59.620         34.17	     6.403
  59.640         33.33	     6.325
  59.660         37.50	     6.708
  59.680         35.83	     6.557
  59.700         43.33	     7.211
  59.720         39.17	     6.856
  59.740         35.00	     6.481
  59.760         40.00	     6.928
  59.780         48.33	     7.616
  59.800         45.83	     7.416
  59.820         23.33	     5.292
  59.840         51.67	     7.874
  59.860         40.00	     6.928
  59.880         42.50	     7.141
  59.900         54.17	     8.062
  59.920         57.50	     8.307
  59.940         43.33	     7.211
  59.960         45.00	     7.348
  59.980         67.50	     9.000
  60.000         90.00	    10.392
  60.020        120.00	    12.000
  60.040        153.33	    13.565
  60.060        161.67	    13.928
  60.080        190.83	    15.133
  60.100        210.00	    15.875
  60.120        199.17	    15.460
  60.140        159.17	    13.820
  60.160        120.00	    12.000
  60.180        104.17	    11.180
  60.200         96.67	    10.770
  60.220        108.33	    11.402
  60.240         98.33	    10.863
  60.260        138.33	    12.884
  60.280        107.50	    11.358
  60.300        100.00	    10.954
  60.320         61.67	     8.602
  60.340         57.50	     8.307
  60.360         44.17	     7.280
  60.380         41.67	     7.071
  60.400         40.00	     6.928
  60.420         43.33	     7.211
  60.440         30.83	     6.083
  60.460         40.00	     6.928
  60.480         33.33	     6.325
  60.500         45.00	     7.348
  60.520         44.17	     7.280
  60.540         29.17	     5.916
  60.560         40.83	     7.000
  60.580         38.33	     6.782
  60.600         40.00	     6.928
  60.620         43.33	     7.211
  60.640         32.50	     6.245
  60.660         30.83	     6.083
  60.680         45.00	     7.348
  60.700         48.33	     7.616
  60.720         46.67	     7.483
  60.740         37.50	     6.708
  60.760         42.50	     7.141
  60.780         46.67	     7.483
  60.800         40.83	     7.000
  60.820         50.83	     7.810
  60.840         48.33	     7.616
  60.860         44.17	     7.280
  60.880         55.00	     8.124
  60.900         42.50	     7.141
  60.920         62.50	     8.660
  60.940         50.83	     7.810
  60.960         39.17	     6.856
  60.980         45.83	     7.416
  61.000         55.83	     8.185
  61.020         35.83	     6.557
  61.040         59.17	     8.426
  61.060         48.33	     7.616
  61.080         52.50	     7.937
  61.100         70.83	     9.220
  61.120         45.00	     7.348
  61.140         37.50	     6.708
  61.160         47.50	     7.550
  61.180         40.00	     6.928
  61.200         51.67	     7.874
  61.220         52.50	     7.937
  61.240         34.17	     6.403
  61.260         32.50	     6.245
  61.280         50.00	     7.746
  61.300         26.67	     5.657
  61.320         38.33	     6.782
  61.340         45.83	     7.416
  61.360         49.17	     7.681
  61.380         39.17	     6.856
  61.400         45.83	     7.416
  61.420         40.00	     6.928
  61.440         55.83	     8.185
  61.460         50.00	     7.746
  61.480         35.00	     6.481
  61.500         41.67	     7.071
  61.520         55.00	     8.124
  61.540         54.17	     8.062
  61.560         70.00	     9.165
  61.580         60.83	     8.544
  61.600         61.67	     8.602
  61.620         53.33	     8.000
  61.640         49.17	     7.681
  61.660         54.17	     8.062
  61.680         52.50	     7.937
  61.700         59.17	     8.426
  61.720         52.50	     7.937
  61.740         38.33	     6.782
  61.760         50.00	     7.746
  61.780         56.67	     8.246
  61.800         53.33	     8.000
  61.820         58.33	     8.367
  61.840         62.50	     8.660
  61.860         54.17	     8.062
  61.880         47.50	     7.550
  61.900         47.50	     7.550
  61.920         44.17	     7.280
  61.940         46.67	     7.483
  61.960         41.67	     7.071
  61.980         45.00	     7.348
  62.000         54.17	     8.062
  62.020         38.33	     6.782
  62.040         34.17	     6.403
  62.060         42.50	     7.141
  62.080         44.17	     7.280
  62.100         40.00	     6.928
  62.120         33.33	     6.325
  62.140         45.83	     7.416
  62.160         50.83	     7.810
  62.180         38.33	     6.782
  62.200         45.83	     7.416
  62.220         27.50	     5.745
  62.240         33.33	     6.325
  62.260         40.00	     6.928
  62.280         26.67	     5.657
  62.300         32.50	     6.245
  62.320         35.00	     6.481
  62.340         35.83	     6.557
  62.360         35.00	     6.481
  62.380         37.50	     6.708
  62.400         31.67	     6.164
  62.420         41.67	     7.071
  62.440         26.67	     5.657
  62.460         36.67	     6.633
  62.480         36.67	     6.633
  62.500         28.33	     5.831
  62.520         25.00	     5.477
  62.540         35.00	     6.481
  62.560         43.33	     7.211
  62.580         36.67	     6.633
  62.600         31.67	     6.164
  62.620         27.50	     5.745
  62.640         23.33	     5.292
  62.660         25.83	     5.568
  62.680         36.67	     6.633
  62.700         26.67	     5.657
  62.720         30.83	     6.083
  62.740         25.00	     5.477
  62.760         35.83	     6.557
  62.780         30.00	     6.000
  62.800         34.17	     6.403
  62.820         33.33	     6.325
  62.840         31.67	     6.164
  62.860         38.33	     6.782
  62.880         26.67	     5.657
  62.900         39.17	     6.856
  62.920         32.50	     6.245
  62.940         30.83	     6.083
  62.960         30.83	     6.083
  62.980         36.67	     6.633
  63.000         40.00	     6.928
  63.020         25.00	     5.477
  63.040         35.00	     6.481
  63.060         25.83	     5.568
  63.080         33.33	     6.325
  63.100         25.83	     5.568
  63.120         32.50	     6.245
  63.140         39.17	     6.856
  63.160         32.50	     6.245
  63.180         32.50	     6.245
  63.200         32.50	     6.245
  63.220         25.00	     5.477
  63.240         23.33	     5.292
  63.260         30.00	     6.000
  63.280         23.33	     5.292
  63.300         29.17	     5.916
  63.320         30.00	     6.000
  63.340         34.17	     6.403
  63.360         30.00	     6.000
  63.380         39.17	     6.856
  63.400         43.33	     7.211
  63.420         22.50	     5.196
  63.440         28.33	     5.831
  63.460         29.17	     5.916
  63.480         25.83	     5.568
  63.500         39.17	     6.856
  63.520         50.00	     7.746
  63.540         32.50	     6.245
  63.560         38.33	     6.782
  63.580         48.33	     7.616
  63.600         38.33	     6.782
  63.620         40.00	     6.928
  63.640         40.00	     6.928
  63.660         41.67	     7.071
  63.680         37.50	     6.708
  63.700         41.67	     7.071
  63.720         36.67	     6.633
  63.740         36.67	     6.633
  63.760         30.83	     6.083
  63.780         40.83	     7.000
  63.800         30.00	     6.000
  63.820         40.00	     6.928
  63.840         46.67	     7.483
  63.860         35.83	     6.557
  63.880         36.67	     6.633
  63.900         36.67	     6.633
  63.920         38.33	     6.782
  63.940         39.17	     6.856
  63.960         39.17	     6.856
  63.980         31.67	     6.164
  64.000         39.17	     6.856
  64.020         38.33	     6.782
  64.040         37.50	     6.708
  64.060         32.50	     6.245
  64.080         52.50	     7.937
  64.100         59.17	     8.426
  64.120         45.00	     7.348
  64.140         49.17	     7.681
  64.160         67.50	     9.000
  64.180         50.00	     7.746
  64.200         55.83	     8.185
  64.220         40.83	     7.000
  64.240         50.00	     7.746
  64.260         48.33	     7.616
  64.280         53.33	     8.000
  64.300         51.67	     7.874
  64.320         50.83	     7.810
  64.340         50.83	     7.810
  64.360         59.17	     8.426
  64.380         60.83	     8.544
  64.400         51.67	     7.874
  64.420         76.67	     9.592
  64.440         59.17	     8.426
  64.460         77.50	     9.644
  64.480        105.00	    11.225
  64.500        123.33	    12.166
  64.520        136.67	    12.806
  64.540        125.00	    12.247
  64.560         95.00	    10.677
  64.580         86.67	    10.198
  64.600         56.67	     8.246
  64.620         70.83	     9.220
  64.640         82.50	     9.950
  64.660         81.67	     9.899
  64.680         91.67	    10.488
  64.700         88.33	    10.296
  64.720         78.33	     9.695
  64.740         63.33	     8.718
  64.760         73.33	     9.381
  64.780         49.17	     7.681
  64.800         46.67	     7.483
  64.820         40.00	     6.928
  64.840         52.50	     7.937
  64.860         45.00	     7.348
  64.880         50.83	     7.810
  64.900         48.33	     7.616
  64.920         54.17	     8.062
  64.940         40.83	     7.000
  64.960         52.50	     7.937
  64.980         34.17	     6.403
  65.000         44.17	     7.280
