
Filename:
	C:\Program Files\Thermo Electron\WinXRD\Datafiles\F_HERMAN\FIEN\3_2_SEPT_FILTER.raw

File Created:
	February 21, 2019 - 02:43 PM

Specimen Id:
	3.2 SEPT RT

Specimen Name:
	

Specimen Description:
	

Comment:
Scan Type: 2Theta Scan
Start Angle: 1 deg.
Stop Angle: 65 deg.
Num Points: 3201
Step Size: 0.02 deg.
Scan Rate: 1.000000
Scan Mode: Continuous
Wavelength: 1.540562
\Kalpha1: 1.540562	\Kalpha2: 1.544390	\Kbeta: 1.392218

Optics:
		Detector:
			 Type: Fixed Slits
		Tube: 
			 Type: Fixed Slits


Datas:
 Pos [deg]       Rate [CPS]      ESD [-]

Range 1 ---> Iteration 1
   1.000        826.67	    31.496
   1.020        652.50	    27.982
   1.040        568.33	    26.115
   1.060        575.83	    26.287
   1.080        546.67	    25.612
   1.100        435.00	    22.847
   1.120        497.50	    24.434
   1.140        489.17	    24.228
   1.160        498.33	    24.454
   1.180        418.33	    22.405
   1.200        367.50	    21.000
   1.220        403.33	    22.000
   1.240        384.17	    21.471
   1.260        400.00	    21.909
   1.280        483.33	    24.083
   1.300        655.83	    28.054
   1.320        726.67	    29.530
   1.340        762.50	    30.249
   1.360       1120.00	    36.661
   1.380       1158.33	    37.283
   1.400       1294.17	    39.408
   1.420       1340.83	    40.112
   1.440       1231.67	    38.445
   1.460       1277.50	    39.154
   1.480       1227.50	    38.380
   1.500       1202.50	    37.987
   1.520       1117.50	    36.620
   1.540       1191.67	    37.815
   1.560       1103.33	    36.387
   1.580        980.83	    34.307
   1.600        942.50	    33.630
   1.620       1057.50	    35.623
   1.640        914.17	    33.121
   1.660        840.00	    31.749
   1.680        782.50	    30.643
   1.700        763.33	    30.265
   1.720        718.33	    29.360
   1.740        644.17	    27.803
   1.760        643.33	    27.785
   1.780        583.33	    26.458
   1.800        590.83	    26.627
   1.820        504.17	    24.597
   1.840        585.83	    26.514
   1.860        518.33	    24.940
   1.880        480.83	    24.021
   1.900        480.83	    24.021
   1.920        463.33	    23.580
   1.940        475.83	    23.896
   1.960        500.00	    24.495
   1.980        435.83	    22.869
   2.000        440.83	    23.000
   2.020        445.00	    23.108
   2.040        412.50	    22.249
   2.060        421.67	    22.494
   2.080        379.17	    21.331
   2.100        375.83	    21.237
   2.120        402.50	    21.977
   2.140        400.83	    21.932
   2.160        371.67	    21.119
   2.180        394.17	    21.749
   2.200        394.17	    21.749
   2.220        385.00	    21.494
   2.240        352.50	    20.567
   2.260        367.50	    21.000
   2.280        371.67	    21.119
   2.300        334.17	    20.025
   2.320        366.67	    20.976
   2.340        350.83	    20.518
   2.360        323.33	    19.698
   2.380        338.33	    20.149
   2.400        367.50	    21.000
   2.420        352.50	    20.567
   2.440        285.83	    18.520
   2.460        315.83	    19.468
   2.480        315.00	    19.442
   2.500        333.33	    20.000
   2.520        332.50	    19.975
   2.540        286.67	    18.547
   2.560        315.00	    19.442
   2.580        309.17	    19.261
   2.600        304.17	    19.105
   2.620        289.17	    18.628
   2.640        259.17	    17.635
   2.660        283.33	    18.439
   2.680        285.00	    18.493
   2.700        287.50	    18.574
   2.720        250.83	    17.349
   2.740        299.17	    18.947
   2.760        296.67	    18.868
   2.780        290.00	    18.655
   2.800        298.33	    18.921
   2.820        282.50	    18.412
   2.840        260.83	    17.692
   2.860        251.67	    17.378
   2.880        285.00	    18.493
   2.900        275.83	    18.193
   2.920        263.33	    17.776
   2.940        238.33	    16.912
   2.960        276.67	    18.221
   2.980        253.33	    17.436
   3.000        253.33	    17.436
   3.020        227.50	    16.523
   3.040        265.00	    17.833
   3.060        231.67	    16.673
   3.080        248.33	    17.263
   3.100        242.50	    17.059
   3.120        264.17	    17.804
   3.140        240.83	    17.000
   3.160        221.67	    16.310
   3.180        241.67	    17.029
   3.200        211.67	    15.937
   3.220        228.33	    16.553
   3.240        215.00	    16.062
   3.260        253.33	    17.436
   3.280        229.17	    16.583
   3.300        229.17	    16.583
   3.320        227.50	    16.523
   3.340        225.83	    16.462
   3.360        226.67	    16.492
   3.380        223.33	    16.371
   3.400        238.33	    16.912
   3.420        213.33	    16.000
   3.440        216.67	    16.125
   3.460        225.83	    16.462
   3.480        218.33	    16.186
   3.500        184.17	    14.866
   3.520        200.83	    15.524
   3.540        225.00	    16.432
   3.560        180.83	    14.731
   3.580        202.50	    15.588
   3.600        209.17	    15.843
   3.620        225.00	    16.432
   3.640        214.17	    16.031
   3.660        202.50	    15.588
   3.680        194.17	    15.264
   3.700        180.83	    14.731
   3.720        176.67	    14.560
   3.740        219.17	    16.217
   3.760        179.17	    14.663
   3.780        193.33	    15.232
   3.800        186.67	    14.967
   3.820        187.50	    15.000
   3.840        185.83	    14.933
   3.860        200.83	    15.524
   3.880        190.00	    15.100
   3.900        176.67	    14.560
   3.920        189.17	    15.067
   3.940        186.67	    14.967
   3.960        192.50	    15.199
   3.980        177.50	    14.595
   4.000        185.00	    14.900
   4.020        173.33	    14.422
   4.040        196.67	    15.362
   4.060        165.00	    14.071
   4.080        177.50	    14.595
   4.100        180.00	    14.697
   4.120        170.00	    14.283
   4.140        199.17	    15.460
   4.160        174.17	    14.457
   4.180        175.83	    14.526
   4.200        162.50	    13.964
   4.220        179.17	    14.663
   4.240        180.00	    14.697
   4.260        166.67	    14.142
   4.280        171.67	    14.353
   4.300        172.50	    14.387
   4.320        159.17	    13.820
   4.340        166.67	    14.142
   4.360        167.50	    14.177
   4.380        174.17	    14.457
   4.400        144.17	    13.153
   4.420        160.00	    13.856
   4.440        154.17	    13.601
   4.460        154.17	    13.601
   4.480        173.33	    14.422
   4.500        165.00	    14.071
   4.520        150.00	    13.416
   4.540        178.33	    14.629
   4.560        171.67	    14.353
   4.580        147.50	    13.304
   4.600        148.33	    13.342
   4.620        151.67	    13.491
   4.640        136.67	    12.806
   4.660        141.67	    13.038
   4.680        130.83	    12.530
   4.700        156.67	    13.711
   4.720        136.67	    12.806
   4.740        149.17	    13.379
   4.760        158.33	    13.784
   4.780        155.83	    13.675
   4.800        130.83	    12.530
   4.820        134.17	    12.689
   4.840        145.83	    13.229
   4.860        158.33	    13.784
   4.880        135.83	    12.767
   4.900        127.50	    12.369
   4.920        151.67	    13.491
   4.940        135.83	    12.767
   4.960        145.00	    13.191
   4.980        133.33	    12.649
   5.000        144.17	    13.153
   5.020        132.50	    12.610
   5.040        155.83	    13.675
   5.060        149.17	    13.379
   5.080        130.83	    12.530
   5.100        140.00	    12.961
   5.120        133.33	    12.649
   5.140        160.00	    13.856
   5.160        140.00	    12.961
   5.180        151.67	    13.491
   5.200        126.67	    12.329
   5.220        127.50	    12.369
   5.240        139.17	    12.923
   5.260        148.33	    13.342
   5.280        124.17	    12.207
   5.300        135.00	    12.728
   5.320        140.00	    12.961
   5.340        133.33	    12.649
   5.360        125.83	    12.288
   5.380        130.83	    12.530
   5.400        137.50	    12.845
   5.420        125.83	    12.288
   5.440        109.17	    11.446
   5.460        137.50	    12.845
   5.480        121.67	    12.083
   5.500        126.67	    12.329
   5.520        125.00	    12.247
   5.540        125.83	    12.288
   5.560        125.00	    12.247
   5.580        118.33	    11.916
   5.600        135.00	    12.728
   5.620        142.50	    13.077
   5.640        116.67	    11.832
   5.660        124.17	    12.207
   5.680        114.17	    11.705
   5.700        120.83	    12.042
   5.720        134.17	    12.689
   5.740        118.33	    11.916
   5.760        113.33	    11.662
   5.780        130.00	    12.490
   5.800        145.00	    13.191
   5.820        130.83	    12.530
   5.840        113.33	    11.662
   5.860        121.67	    12.083
   5.880        118.33	    11.916
   5.900        139.17	    12.923
   5.920        129.17	    12.450
   5.940        149.17	    13.379
   5.960        110.83	    11.533
   5.980        141.67	    13.038
   6.000        130.83	    12.530
   6.020        150.00	    13.416
   6.040        129.17	    12.450
   6.060        154.17	    13.601
   6.080        137.50	    12.845
   6.100        156.67	    13.711
   6.120        176.67	    14.560
   6.140        178.33	    14.629
   6.160        184.17	    14.866
   6.180        190.83	    15.133
   6.200        196.67	    15.362
   6.220        200.83	    15.524
   6.240        171.67	    14.353
   6.260        220.00	    16.248
   6.280        180.00	    14.697
   6.300        164.17	    14.036
   6.320        160.83	    13.892
   6.340        140.83	    13.000
   6.360        162.50	    13.964
   6.380        154.17	    13.601
   6.400        139.17	    12.923
   6.420        135.00	    12.728
   6.440        140.83	    13.000
   6.460         96.67	    10.770
   6.480        138.33	    12.884
   6.500        159.17	    13.820
   6.520        139.17	    12.923
   6.540        121.67	    12.083
   6.560        118.33	    11.916
   6.580        132.50	    12.610
   6.600        130.00	    12.490
   6.620        101.67	    11.045
   6.640        105.83	    11.269
   6.660        125.83	    12.288
   6.680        100.00	    10.954
   6.700        123.33	    12.166
   6.720        106.67	    11.314
   6.740        115.83	    11.790
   6.760         85.83	    10.149
   6.780        104.17	    11.180
   6.800        102.50	    11.091
   6.820         96.67	    10.770
   6.840         97.50	    10.817
   6.860        123.33	    12.166
   6.880        114.17	    11.705
   6.900        114.17	    11.705
   6.920        110.83	    11.533
   6.940        120.83	    12.042
   6.960         92.50	    10.536
   6.980         94.17	    10.630
   7.000        112.50	    11.619
   7.020         86.67	    10.198
   7.040         96.67	    10.770
   7.060        104.17	    11.180
   7.080         92.50	    10.536
   7.100        115.83	    11.790
   7.120         91.67	    10.488
   7.140         95.83	    10.724
   7.160        105.83	    11.269
   7.180         84.17	    10.050
   7.200         96.67	    10.770
   7.220        108.33	    11.402
   7.240         80.00	     9.798
   7.260         81.67	     9.899
   7.280        100.00	    10.954
   7.300        106.67	    11.314
   7.320         97.50	    10.817
   7.340        111.67	    11.576
   7.360         91.67	    10.488
   7.380         91.67	    10.488
   7.400        101.67	    11.045
   7.420        103.33	    11.136
   7.440         94.17	    10.630
   7.460         93.33	    10.583
   7.480         88.33	    10.296
   7.500         92.50	    10.536
   7.520         94.17	    10.630
   7.540         92.50	    10.536
   7.560         96.67	    10.770
   7.580         95.00	    10.677
   7.600        104.17	    11.180
   7.620         95.83	    10.724
   7.640         98.33	    10.863
   7.660         92.50	    10.536
   7.680        104.17	    11.180
   7.700         87.50	    10.247
   7.720         95.83	    10.724
   7.740         93.33	    10.583
   7.760         92.50	    10.536
   7.780        101.67	    11.045
   7.800         86.67	    10.198
   7.820         92.50	    10.536
   7.840        104.17	    11.180
   7.860         90.00	    10.392
   7.880         84.17	    10.050
   7.900         80.00	     9.798
   7.920         89.17	    10.344
   7.940         98.33	    10.863
   7.960        101.67	    11.045
   7.980         90.83	    10.440
   8.000         94.17	    10.630
   8.020         95.83	    10.724
   8.040         85.83	    10.149
   8.060         83.33	    10.000
   8.080         91.67	    10.488
   8.100         90.83	    10.440
   8.120         89.17	    10.344
   8.140         77.50	     9.644
   8.160         95.83	    10.724
   8.180         93.33	    10.583
   8.200         69.17	     9.110
   8.220         95.00	    10.677
   8.240         81.67	     9.899
   8.260         79.17	     9.747
   8.280        101.67	    11.045
   8.300         91.67	    10.488
   8.320         98.33	    10.863
   8.340         80.83	     9.849
   8.360        103.33	    11.136
   8.380         93.33	    10.583
   8.400         84.17	    10.050
   8.420         87.50	    10.247
   8.440         94.17	    10.630
   8.460         83.33	    10.000
   8.480         83.33	    10.000
   8.500         92.50	    10.536
   8.520         91.67	    10.488
   8.540        109.17	    11.446
   8.560        100.83	    11.000
   8.580         89.17	    10.344
   8.600         89.17	    10.344
   8.620         96.67	    10.770
   8.640         95.83	    10.724
   8.660         99.17	    10.909
   8.680         96.67	    10.770
   8.700        112.50	    11.619
   8.720        130.83	    12.530
   8.740        124.17	    12.207
   8.760        120.00	    12.000
   8.780        144.17	    13.153
   8.800        177.50	    14.595
   8.820        255.83	    17.521
   8.840        291.67	    18.708
   8.860        292.50	    18.735
   8.880        230.83	    16.643
   8.900        205.83	    15.716
   8.920        158.33	    13.784
   8.940        147.50	    13.304
   8.960        110.00	    11.489
   8.980         98.33	    10.863
   9.000        107.50	    11.358
   9.020        100.83	    11.000
   9.040         89.17	    10.344
   9.060         90.00	    10.392
   9.080         81.67	     9.899
   9.100         93.33	    10.583
   9.120         89.17	    10.344
   9.140         82.50	     9.950
   9.160         88.33	    10.296
   9.180         81.67	     9.899
   9.200         80.00	     9.798
   9.220         89.17	    10.344
   9.240         96.67	    10.770
   9.260         82.50	     9.950
   9.280         92.50	    10.536
   9.300         75.00	     9.487
   9.320         77.50	     9.644
   9.340         93.33	    10.583
   9.360         75.00	     9.487
   9.380         75.83	     9.539
   9.400         85.83	    10.149
   9.420         81.67	     9.899
   9.440         82.50	     9.950
   9.460         84.17	    10.050
   9.480        101.67	    11.045
   9.500         90.00	    10.392
   9.520         72.50	     9.327
   9.540         80.83	     9.849
   9.560         72.50	     9.327
   9.580         89.17	    10.344
   9.600         79.17	     9.747
   9.620         65.00	     8.832
   9.640         77.50	     9.644
   9.660         70.00	     9.165
   9.680         70.83	     9.220
   9.700         75.83	     9.539
   9.720         68.33	     9.055
   9.740         74.17	     9.434
   9.760         76.67	     9.592
   9.780         81.67	     9.899
   9.800         73.33	     9.381
   9.820         62.50	     8.660
   9.840         79.17	     9.747
   9.860         83.33	    10.000
   9.880         81.67	     9.899
   9.900         74.17	     9.434
   9.920         85.00	    10.100
   9.940         78.33	     9.695
   9.960         59.17	     8.426
   9.980         71.67	     9.274
  10.000         83.33	    10.000
  10.020         65.00	     8.832
  10.040         80.00	     9.798
  10.060         78.33	     9.695
  10.080         80.83	     9.849
  10.100         78.33	     9.695
  10.120         81.67	     9.899
  10.140         64.17	     8.775
  10.160         66.67	     8.944
  10.180         61.67	     8.602
  10.200         72.50	     9.327
  10.220         55.00	     8.124
  10.240         71.67	     9.274
  10.260         71.67	     9.274
  10.280         73.33	     9.381
  10.300         83.33	    10.000
  10.320         84.17	    10.050
  10.340         64.17	     8.775
  10.360         67.50	     9.000
  10.380         80.00	     9.798
  10.400         89.17	    10.344
  10.420         89.17	    10.344
  10.440         72.50	     9.327
  10.460         64.17	     8.775
  10.480         81.67	     9.899
  10.500         69.17	     9.110
  10.520         79.17	     9.747
  10.540         63.33	     8.718
  10.560         76.67	     9.592
  10.580         81.67	     9.899
  10.600         76.67	     9.592
  10.620         80.00	     9.798
  10.640         59.17	     8.426
  10.660         80.83	     9.849
  10.680         64.17	     8.775
  10.700         77.50	     9.644
  10.720         72.50	     9.327
  10.740         75.83	     9.539
  10.760         81.67	     9.899
  10.780         66.67	     8.944
  10.800         67.50	     9.000
  10.820         66.67	     8.944
  10.840         60.00	     8.485
  10.860         63.33	     8.718
  10.880         69.17	     9.110
  10.900         60.83	     8.544
  10.920         69.17	     9.110
  10.940         65.00	     8.832
  10.960         72.50	     9.327
  10.980         80.83	     9.849
  11.000         61.67	     8.602
  11.020         63.33	     8.718
  11.040         60.83	     8.544
  11.060         71.67	     9.274
  11.080         65.00	     8.832
  11.100         66.67	     8.944
  11.120         61.67	     8.602
  11.140         80.00	     9.798
  11.160         59.17	     8.426
  11.180         65.00	     8.832
  11.200         64.17	     8.775
  11.220         64.17	     8.775
  11.240         73.33	     9.381
  11.260         62.50	     8.660
  11.280         87.50	    10.247
  11.300         71.67	     9.274
  11.320         74.17	     9.434
  11.340         82.50	     9.950
  11.360         85.83	    10.149
  11.380         73.33	     9.381
  11.400         68.33	     9.055
  11.420         76.67	     9.592
  11.440         70.83	     9.220
  11.460         64.17	     8.775
  11.480         80.00	     9.798
  11.500         74.17	     9.434
  11.520         80.00	     9.798
  11.540         80.83	     9.849
  11.560         65.83	     8.888
  11.580         70.83	     9.220
  11.600         70.83	     9.220
  11.620         79.17	     9.747
  11.640         52.50	     7.937
  11.660         68.33	     9.055
  11.680         60.83	     8.544
  11.700         69.17	     9.110
  11.720         69.17	     9.110
  11.740         65.00	     8.832
  11.760         55.83	     8.185
  11.780         71.67	     9.274
  11.800         67.50	     9.000
  11.820         78.33	     9.695
  11.840         68.33	     9.055
  11.860         68.33	     9.055
  11.880         69.17	     9.110
  11.900         68.33	     9.055
  11.920         69.17	     9.110
  11.940         60.83	     8.544
  11.960         70.83	     9.220
  11.980        105.00	    11.225
  12.000         72.50	     9.327
  12.020         81.67	     9.899
  12.040         88.33	    10.296
  12.060         77.50	     9.644
  12.080         97.50	    10.817
  12.100        115.00	    11.747
  12.120        110.83	    11.533
  12.140        146.67	    13.266
  12.160        135.83	    12.767
  12.180        145.83	    13.229
  12.200        140.83	    13.000
  12.220        138.33	    12.884
  12.240        132.50	    12.610
  12.260        100.83	    11.000
  12.280        115.00	    11.747
  12.300        101.67	    11.045
  12.320         91.67	    10.488
  12.340         99.17	    10.909
  12.360        110.00	    11.489
  12.380        124.17	    12.207
  12.400        116.67	    11.832
  12.420        118.33	    11.916
  12.440        117.50	    11.874
  12.460         97.50	    10.817
  12.480        135.83	    12.767
  12.500        144.17	    13.153
  12.520        123.33	    12.166
  12.540        105.83	    11.269
  12.560         98.33	    10.863
  12.580         73.33	     9.381
  12.600         73.33	     9.381
  12.620         72.50	     9.327
  12.640         71.67	     9.274
  12.660         70.83	     9.220
  12.680         57.50	     8.307
  12.700         65.00	     8.832
  12.720         64.17	     8.775
  12.740         47.50	     7.550
  12.760         75.83	     9.539
  12.780         58.33	     8.367
  12.800         56.67	     8.246
  12.820         82.50	     9.950
  12.840         63.33	     8.718
  12.860         68.33	     9.055
  12.880         59.17	     8.426
  12.900         74.17	     9.434
  12.920         54.17	     8.062
  12.940         62.50	     8.660
  12.960         68.33	     9.055
  12.980         60.00	     8.485
  13.000         67.50	     9.000
  13.020         65.00	     8.832
  13.040         53.33	     8.000
  13.060         57.50	     8.307
  13.080         60.83	     8.544
  13.100         76.67	     9.592
  13.120         70.83	     9.220
  13.140         57.50	     8.307
  13.160         61.67	     8.602
  13.180         56.67	     8.246
  13.200         59.17	     8.426
  13.220         87.50	    10.247
  13.240         61.67	     8.602
  13.260         58.33	     8.367
  13.280         61.67	     8.602
  13.300         47.50	     7.550
  13.320         53.33	     8.000
  13.340         54.17	     8.062
  13.360         65.00	     8.832
  13.380         59.17	     8.426
  13.400         71.67	     9.274
  13.420         62.50	     8.660
  13.440         65.00	     8.832
  13.460         60.00	     8.485
  13.480         71.67	     9.274
  13.500         75.83	     9.539
  13.520         60.00	     8.485
  13.540         63.33	     8.718
  13.560         55.00	     8.124
  13.580         60.83	     8.544
  13.600         74.17	     9.434
  13.620         71.67	     9.274
  13.640         72.50	     9.327
  13.660         72.50	     9.327
  13.680         57.50	     8.307
  13.700         74.17	     9.434
  13.720         65.83	     8.888
  13.740         70.83	     9.220
  13.760         70.83	     9.220
  13.780         69.17	     9.110
  13.800         68.33	     9.055
  13.820         61.67	     8.602
  13.840         74.17	     9.434
  13.860         64.17	     8.775
  13.880         70.00	     9.165
  13.900         70.83	     9.220
  13.920         69.17	     9.110
  13.940         64.17	     8.775
  13.960         60.83	     8.544
  13.980         55.83	     8.185
  14.000         82.50	     9.950
  14.020         65.83	     8.888
  14.040         70.83	     9.220
  14.060         56.67	     8.246
  14.080         58.33	     8.367
  14.100         80.00	     9.798
  14.120         59.17	     8.426
  14.140         58.33	     8.367
  14.160         54.17	     8.062
  14.180         62.50	     8.660
  14.200         51.67	     7.874
  14.220         46.67	     7.483
  14.240         53.33	     8.000
  14.260         57.50	     8.307
  14.280         44.17	     7.280
  14.300         51.67	     7.874
  14.320         68.33	     9.055
  14.340         60.83	     8.544
  14.360         50.00	     7.746
  14.380         60.00	     8.485
  14.400         73.33	     9.381
  14.420         67.50	     9.000
  14.440         60.00	     8.485
  14.460         57.50	     8.307
  14.480         58.33	     8.367
  14.500         67.50	     9.000
  14.520         68.33	     9.055
  14.540         67.50	     9.000
  14.560         63.33	     8.718
  14.580         62.50	     8.660
  14.600         65.83	     8.888
  14.620         56.67	     8.246
  14.640         47.50	     7.550
  14.660         62.50	     8.660
  14.680         55.00	     8.124
  14.700         63.33	     8.718
  14.720         58.33	     8.367
  14.740         63.33	     8.718
  14.760         62.50	     8.660
  14.780         66.67	     8.944
  14.800         64.17	     8.775
  14.820         62.50	     8.660
  14.840         53.33	     8.000
  14.860         52.50	     7.937
  14.880         57.50	     8.307
  14.900         56.67	     8.246
  14.920         67.50	     9.000
  14.940         56.67	     8.246
  14.960         62.50	     8.660
  14.980         53.33	     8.000
  15.000         70.00	     9.165
  15.020         55.00	     8.124
  15.040         70.00	     9.165
  15.060         86.67	    10.198
  15.080         67.50	     9.000
  15.100         46.67	     7.483
  15.120         40.00	     6.928
  15.140         62.50	     8.660
  15.160         61.67	     8.602
  15.180         70.83	     9.220
  15.200         57.50	     8.307
  15.220         64.17	     8.775
  15.240         58.33	     8.367
  15.260         57.50	     8.307
  15.280         64.17	     8.775
  15.300         55.00	     8.124
  15.320         75.00	     9.487
  15.340         63.33	     8.718
  15.360         57.50	     8.307
  15.380         55.00	     8.124
  15.400         55.83	     8.185
  15.420         55.00	     8.124
  15.440         69.17	     9.110
  15.460         53.33	     8.000
  15.480         73.33	     9.381
  15.500         60.00	     8.485
  15.520         60.00	     8.485
  15.540         59.17	     8.426
  15.560         45.00	     7.348
  15.580         65.00	     8.832
  15.600         65.83	     8.888
  15.620         56.67	     8.246
  15.640         70.00	     9.165
  15.660         51.67	     7.874
  15.680         62.50	     8.660
  15.700         50.83	     7.810
  15.720         59.17	     8.426
  15.740         68.33	     9.055
  15.760         62.50	     8.660
  15.780         66.67	     8.944
  15.800         59.17	     8.426
  15.820         75.00	     9.487
  15.840         50.83	     7.810
  15.860         66.67	     8.944
  15.880         62.50	     8.660
  15.900         45.83	     7.416
  15.920         63.33	     8.718
  15.940         54.17	     8.062
  15.960         65.00	     8.832
  15.980         61.67	     8.602
  16.000         66.67	     8.944
  16.020         79.17	     9.747
  16.040         73.33	     9.381
  16.060         46.67	     7.483
  16.080         70.83	     9.220
  16.100         67.50	     9.000
  16.120         54.17	     8.062
  16.140         50.00	     7.746
  16.160         62.50	     8.660
  16.180         52.50	     7.937
  16.200         50.00	     7.746
  16.220         69.17	     9.110
  16.240         70.00	     9.165
  16.260         58.33	     8.367
  16.280         57.50	     8.307
  16.300         61.67	     8.602
  16.320         56.67	     8.246
  16.340         75.83	     9.539
  16.360         54.17	     8.062
  16.380         63.33	     8.718
  16.400         50.00	     7.746
  16.420         70.00	     9.165
  16.440         44.17	     7.280
  16.460         55.00	     8.124
  16.480         59.17	     8.426
  16.500         57.50	     8.307
  16.520         73.33	     9.381
  16.540         67.50	     9.000
  16.560         57.50	     8.307
  16.580         45.00	     7.348
  16.600         46.67	     7.483
  16.620         50.00	     7.746
  16.640         73.33	     9.381
  16.660         55.00	     8.124
  16.680         61.67	     8.602
  16.700         57.50	     8.307
  16.720         46.67	     7.483
  16.740         51.67	     7.874
  16.760         49.17	     7.681
  16.780         63.33	     8.718
  16.800         69.17	     9.110
  16.820         53.33	     8.000
  16.840         51.67	     7.874
  16.860         72.50	     9.327
  16.880         58.33	     8.367
  16.900         55.00	     8.124
  16.920         60.83	     8.544
  16.940         64.17	     8.775
  16.960         69.17	     9.110
  16.980         52.50	     7.937
  17.000         49.17	     7.681
  17.020         60.83	     8.544
  17.040         67.50	     9.000
  17.060         58.33	     8.367
  17.080         55.83	     8.185
  17.100         60.00	     8.485
  17.120         62.50	     8.660
  17.140         57.50	     8.307
  17.160         61.67	     8.602
  17.180         52.50	     7.937
  17.200         45.83	     7.416
  17.220         57.50	     8.307
  17.240         58.33	     8.367
  17.260         43.33	     7.211
  17.280         52.50	     7.937
  17.300         67.50	     9.000
  17.320         69.17	     9.110
  17.340         67.50	     9.000
  17.360         69.17	     9.110
  17.380         51.67	     7.874
  17.400         70.83	     9.220
  17.420         69.17	     9.110
  17.440         54.17	     8.062
  17.460         65.83	     8.888
  17.480         60.00	     8.485
  17.500         46.67	     7.483
  17.520         65.83	     8.888
  17.540         72.50	     9.327
  17.560         70.00	     9.165
  17.580         51.67	     7.874
  17.600         68.33	     9.055
  17.620         55.83	     8.185
  17.640         55.00	     8.124
  17.660         67.50	     9.000
  17.680         75.00	     9.487
  17.700         90.00	    10.392
  17.720         84.17	    10.050
  17.740         76.67	     9.592
  17.760        116.67	    11.832
  17.780        146.67	    13.266
  17.800        161.67	    13.928
  17.820        154.17	    13.601
  17.840        128.33	    12.410
  17.860        135.83	    12.767
  17.880        104.17	    11.180
  17.900         84.17	    10.050
  17.920         70.83	     9.220
  17.940         61.67	     8.602
  17.960         61.67	     8.602
  17.980         64.17	     8.775
  18.000         65.00	     8.832
  18.020         68.33	     9.055
  18.040         57.50	     8.307
  18.060         50.83	     7.810
  18.080         61.67	     8.602
  18.100         48.33	     7.616
  18.120         63.33	     8.718
  18.140         56.67	     8.246
  18.160         58.33	     8.367
  18.180         62.50	     8.660
  18.200         55.00	     8.124
  18.220         71.67	     9.274
  18.240         77.50	     9.644
  18.260         67.50	     9.000
  18.280         67.50	     9.000
  18.300         55.83	     8.185
  18.320         60.00	     8.485
  18.340         68.33	     9.055
  18.360         50.83	     7.810
  18.380         56.67	     8.246
  18.400         46.67	     7.483
  18.420         70.83	     9.220
  18.440         55.00	     8.124
  18.460         52.50	     7.937
  18.480         67.50	     9.000
  18.500         60.83	     8.544
  18.520         60.00	     8.485
  18.540         64.17	     8.775
  18.560         55.00	     8.124
  18.580         75.00	     9.487
  18.600         71.67	     9.274
  18.620         68.33	     9.055
  18.640         73.33	     9.381
  18.660         61.67	     8.602
  18.680         70.00	     9.165
  18.700         72.50	     9.327
  18.720         81.67	     9.899
  18.740         78.33	     9.695
  18.760         78.33	     9.695
  18.780         86.67	    10.198
  18.800         57.50	     8.307
  18.820         77.50	     9.644
  18.840         71.67	     9.274
  18.860         71.67	     9.274
  18.880         60.83	     8.544
  18.900         54.17	     8.062
  18.920         62.50	     8.660
  18.940         73.33	     9.381
  18.960         63.33	     8.718
  18.980         51.67	     7.874
  19.000         50.83	     7.810
  19.020         54.17	     8.062
  19.040         46.67	     7.483
  19.060         55.83	     8.185
  19.080         65.00	     8.832
  19.100         65.83	     8.888
  19.120         50.83	     7.810
  19.140         46.67	     7.483
  19.160         67.50	     9.000
  19.180         65.83	     8.888
  19.200         54.17	     8.062
  19.220         50.83	     7.810
  19.240         51.67	     7.874
  19.260         64.17	     8.775
  19.280         65.00	     8.832
  19.300         60.83	     8.544
  19.320         55.83	     8.185
  19.340         46.67	     7.483
  19.360         59.17	     8.426
  19.380         57.50	     8.307
  19.400         60.00	     8.485
  19.420         66.67	     8.944
  19.440         50.83	     7.810
  19.460         58.33	     8.367
  19.480         67.50	     9.000
  19.500         54.17	     8.062
  19.520         54.17	     8.062
  19.540         58.33	     8.367
  19.560         66.67	     8.944
  19.580         70.00	     9.165
  19.600         78.33	     9.695
  19.620         47.50	     7.550
  19.640         71.67	     9.274
  19.660         59.17	     8.426
  19.680         75.00	     9.487
  19.700         62.50	     8.660
  19.720         75.00	     9.487
  19.740         71.67	     9.274
  19.760         89.17	    10.344
  19.780         70.83	     9.220
  19.800         74.17	     9.434
  19.820         86.67	    10.198
  19.840         80.83	     9.849
  19.860         79.17	     9.747
  19.880         75.83	     9.539
  19.900         82.50	     9.950
  19.920         69.17	     9.110
  19.940         80.83	     9.849
  19.960         71.67	     9.274
  19.980         54.17	     8.062
  20.000         68.33	     9.055
  20.020         62.50	     8.660
  20.040         57.50	     8.307
  20.060         62.50	     8.660
  20.080         50.83	     7.810
  20.100         61.67	     8.602
  20.120         62.50	     8.660
  20.140         57.50	     8.307
  20.160         77.50	     9.644
  20.180         60.83	     8.544
  20.200         55.83	     8.185
  20.220         52.50	     7.937
  20.240         55.83	     8.185
  20.260         63.33	     8.718
  20.280         49.17	     7.681
  20.300         47.50	     7.550
  20.320         62.50	     8.660
  20.340         70.00	     9.165
  20.360         63.33	     8.718
  20.380         50.00	     7.746
  20.400         70.83	     9.220
  20.420         52.50	     7.937
  20.440         47.50	     7.550
  20.460         49.17	     7.681
  20.480         66.67	     8.944
  20.500         55.83	     8.185
  20.520         56.67	     8.246
  20.540         55.00	     8.124
  20.560         49.17	     7.681
  20.580         55.83	     8.185
  20.600         70.00	     9.165
  20.620         65.00	     8.832
  20.640         70.00	     9.165
  20.660         63.33	     8.718
  20.680         77.50	     9.644
  20.700         59.17	     8.426
  20.720         70.00	     9.165
  20.740         78.33	     9.695
  20.760         95.00	    10.677
  20.780        100.00	    10.954
  20.800        104.17	    11.180
  20.820        133.33	    12.649
  20.840        140.00	    12.961
  20.860        165.83	    14.107
  20.880        146.67	    13.266
  20.900         96.67	    10.770
  20.920         95.00	    10.677
  20.940         90.00	    10.392
  20.960         65.83	     8.888
  20.980         59.17	     8.426
  21.000         59.17	     8.426
  21.020         57.50	     8.307
  21.040         55.00	     8.124
  21.060         57.50	     8.307
  21.080         50.00	     7.746
  21.100         57.50	     8.307
  21.120         52.50	     7.937
  21.140         52.50	     7.937
  21.160         64.17	     8.775
  21.180         58.33	     8.367
  21.200         70.00	     9.165
  21.220         56.67	     8.246
  21.240         56.67	     8.246
  21.260         55.83	     8.185
  21.280         64.17	     8.775
  21.300         50.00	     7.746
  21.320         55.83	     8.185
  21.340         67.50	     9.000
  21.360         55.00	     8.124
  21.380         55.00	     8.124
  21.400         50.00	     7.746
  21.420         50.00	     7.746
  21.440         50.83	     7.810
  21.460         55.83	     8.185
  21.480         45.83	     7.416
  21.500         60.00	     8.485
  21.520         59.17	     8.426
  21.540         59.17	     8.426
  21.560         65.83	     8.888
  21.580         34.17	     6.403
  21.600         51.67	     7.874
  21.620         53.33	     8.000
  21.640         57.50	     8.307
  21.660         50.00	     7.746
  21.680         67.50	     9.000
  21.700         60.00	     8.485
  21.720         55.00	     8.124
  21.740         56.67	     8.246
  21.760         49.17	     7.681
  21.780         58.33	     8.367
  21.800         48.33	     7.616
  21.820         52.50	     7.937
  21.840         45.83	     7.416
  21.860         55.00	     8.124
  21.880         65.83	     8.888
  21.900         70.83	     9.220
  21.920         73.33	     9.381
  21.940         56.67	     8.246
  21.960         75.00	     9.487
  21.980         75.00	     9.487
  22.000         90.00	    10.392
  22.020         80.00	     9.798
  22.040         80.00	     9.798
  22.060         79.17	     9.747
  22.080         80.83	     9.849
  22.100         61.67	     8.602
  22.120         51.67	     7.874
  22.140         55.83	     8.185
  22.160         55.83	     8.185
  22.180         62.50	     8.660
  22.200         49.17	     7.681
  22.220         55.00	     8.124
  22.240         58.33	     8.367
  22.260         53.33	     8.000
  22.280         66.67	     8.944
  22.300         53.33	     8.000
  22.320         52.50	     7.937
  22.340         48.33	     7.616
  22.360         55.83	     8.185
  22.380         47.50	     7.550
  22.400         58.33	     8.367
  22.420         57.50	     8.307
  22.440         54.17	     8.062
  22.460         64.17	     8.775
  22.480         45.83	     7.416
  22.500         42.50	     7.141
  22.520         49.17	     7.681
  22.540         53.33	     8.000
  22.560         69.17	     9.110
  22.580         57.50	     8.307
  22.600         53.33	     8.000
  22.620         45.83	     7.416
  22.640         56.67	     8.246
  22.660         61.67	     8.602
  22.680         43.33	     7.211
  22.700         65.83	     8.888
  22.720         55.83	     8.185
  22.740         57.50	     8.307
  22.760         61.67	     8.602
  22.780         64.17	     8.775
  22.800         72.50	     9.327
  22.820         70.00	     9.165
  22.840         81.67	     9.899
  22.860         70.83	     9.220
  22.880         84.17	    10.050
  22.900         76.67	     9.592
  22.920         80.83	     9.849
  22.940         81.67	     9.899
  22.960         78.33	     9.695
  22.980         83.33	    10.000
  23.000         95.00	    10.677
  23.020         74.17	     9.434
  23.040         71.67	     9.274
  23.060         83.33	    10.000
  23.080         65.83	     8.888
  23.100         61.67	     8.602
  23.120         56.67	     8.246
  23.140         60.83	     8.544
  23.160         66.67	     8.944
  23.180         66.67	     8.944
  23.200         68.33	     9.055
  23.220         80.00	     9.798
  23.240         67.50	     9.000
  23.260         56.67	     8.246
  23.280         55.83	     8.185
  23.300         59.17	     8.426
  23.320         70.00	     9.165
  23.340         60.00	     8.485
  23.360         63.33	     8.718
  23.380         64.17	     8.775
  23.400         62.50	     8.660
  23.420         73.33	     9.381
  23.440         68.33	     9.055
  23.460         87.50	    10.247
  23.480         83.33	    10.000
  23.500         89.17	    10.344
  23.520        109.17	    11.446
  23.540        154.17	    13.601
  23.560        215.83	    16.093
  23.580        243.33	    17.088
  23.600        235.83	    16.823
  23.620        205.00	    15.684
  23.640        177.50	    14.595
  23.660        149.17	    13.379
  23.680        117.50	    11.874
  23.700         70.83	     9.220
  23.720         63.33	     8.718
  23.740         55.00	     8.124
  23.760         79.17	     9.747
  23.780         69.17	     9.110
  23.800         81.67	     9.899
  23.820         77.50	     9.644
  23.840         65.00	     8.832
  23.860         76.67	     9.592
  23.880         60.83	     8.544
  23.900         70.83	     9.220
  23.920         68.33	     9.055
  23.940         63.33	     8.718
  23.960         77.50	     9.644
  23.980         63.33	     8.718
  24.000         78.33	     9.695
  24.020         72.50	     9.327
  24.040         83.33	    10.000
  24.060         60.83	     8.544
  24.080         78.33	     9.695
  24.100         98.33	    10.863
  24.120        113.33	    11.662
  24.140        178.33	    14.629
  24.160        201.67	    15.556
  24.180        190.83	    15.133
  24.200        201.67	    15.556
  24.220        228.33	    16.553
  24.240        237.50	    16.882
  24.260        300.00	    18.974
  24.280        299.17	    18.947
  24.300        235.83	    16.823
  24.320        200.00	    15.492
  24.340        196.67	    15.362
  24.360        145.00	    13.191
  24.380        116.67	    11.832
  24.400         99.17	    10.909
  24.420         99.17	    10.909
  24.440         80.00	     9.798
  24.460         67.50	     9.000
  24.480         73.33	     9.381
  24.500         81.67	     9.899
  24.520         85.00	    10.100
  24.540         98.33	    10.863
  24.560         90.83	    10.440
  24.580         95.00	    10.677
  24.600         92.50	    10.536
  24.620        113.33	    11.662
  24.640         94.17	    10.630
  24.660         85.00	    10.100
  24.680         78.33	     9.695
  24.700         82.50	     9.950
  24.720         80.83	     9.849
  24.740         69.17	     9.110
  24.760         72.50	     9.327
  24.780         60.00	     8.485
  24.800         72.50	     9.327
  24.820         80.00	     9.798
  24.840         62.50	     8.660
  24.860         65.00	     8.832
  24.880         75.83	     9.539
  24.900         61.67	     8.602
  24.920         75.00	     9.487
  24.940         64.17	     8.775
  24.960         78.33	     9.695
  24.980         67.50	     9.000
  25.000         57.50	     8.307
  25.020         83.33	    10.000
  25.040         79.17	     9.747
  25.060         78.33	     9.695
  25.080         74.17	     9.434
  25.100         90.83	    10.440
  25.120        113.33	    11.662
  25.140         81.67	     9.899
  25.160        110.00	    11.489
  25.180         99.17	    10.909
  25.200         98.33	    10.863
  25.220        105.00	    11.225
  25.240         70.83	     9.220
  25.260         69.17	     9.110
  25.280         90.00	    10.392
  25.300         76.67	     9.592
  25.320         70.83	     9.220
  25.340         71.67	     9.274
  25.360         67.50	     9.000
  25.380         78.33	     9.695
  25.400         80.83	     9.849
  25.420         76.67	     9.592
  25.440         97.50	    10.817
  25.460        105.83	    11.269
  25.480         93.33	    10.583
  25.500        108.33	    11.402
  25.520         84.17	    10.050
  25.540        101.67	    11.045
  25.560         87.50	    10.247
  25.580         67.50	     9.000
  25.600         62.50	     8.660
  25.620         75.83	     9.539
  25.640         96.67	    10.770
  25.660        103.33	    11.136
  25.680         73.33	     9.381
  25.700         89.17	    10.344
  25.720         70.83	     9.220
  25.740         69.17	     9.110
  25.760         63.33	     8.718
  25.780         54.17	     8.062
  25.800         48.33	     7.616
  25.820         53.33	     8.000
  25.840         50.83	     7.810
  25.860         48.33	     7.616
  25.880         56.67	     8.246
  25.900         71.67	     9.274
  25.920         60.00	     8.485
  25.940         46.67	     7.483
  25.960         64.17	     8.775
  25.980         55.00	     8.124
  26.000         59.17	     8.426
  26.020         44.17	     7.280
  26.040         50.83	     7.810
  26.060         54.17	     8.062
  26.080         64.17	     8.775
  26.100         60.00	     8.485
  26.120         60.00	     8.485
  26.140         62.50	     8.660
  26.160         58.33	     8.367
  26.180         65.83	     8.888
  26.200         62.50	     8.660
  26.220         60.00	     8.485
  26.240         49.17	     7.681
  26.260         67.50	     9.000
  26.280         70.83	     9.220
  26.300         73.33	     9.381
  26.320         83.33	    10.000
  26.340         77.50	     9.644
  26.360         90.83	    10.440
  26.380         87.50	    10.247
  26.400        105.00	    11.225
  26.420        110.83	    11.533
  26.440        110.00	    11.489
  26.460        120.00	    12.000
  26.480        157.50	    13.748
  26.500        193.33	    15.232
  26.520        299.17	    18.947
  26.540        560.83	    25.942
  26.560       1043.33	    35.384
  26.580       1385.00	    40.768
  26.600       1402.50	    41.024
  26.620       1352.50	    40.286
  26.640       1311.67	    39.674
  26.660       1092.50	    36.208
  26.680        749.17	    29.983
  26.700        548.33	    25.652
  26.720        392.50	    21.703
  26.740        283.33	    18.439
  26.760        229.17	    16.583
  26.780        217.50	    16.155
  26.800        230.00	    16.613
  26.820        264.17	    17.804
  26.840        291.67	    18.708
  26.860        390.00	    21.633
  26.880        368.33	    21.024
  26.900        310.83	    19.313
  26.920        275.00	    18.166
  26.940        252.50	    17.407
  26.960        176.67	    14.560
  26.980        124.17	    12.207
  27.000         93.33	    10.583
  27.020         95.00	    10.677
  27.040         88.33	    10.296
  27.060         70.83	     9.220
  27.080         95.00	    10.677
  27.100         89.17	    10.344
  27.120         64.17	     8.775
  27.140         69.17	     9.110
  27.160         71.67	     9.274
  27.180         66.67	     8.944
  27.200         55.00	     8.124
  27.220         56.67	     8.246
  27.240         60.00	     8.485
  27.260         69.17	     9.110
  27.280         59.17	     8.426
  27.300         57.50	     8.307
  27.320         54.17	     8.062
  27.340         57.50	     8.307
  27.360         64.17	     8.775
  27.380         62.50	     8.660
  27.400         53.33	     8.000
  27.420         72.50	     9.327
  27.440         95.00	    10.677
  27.460         98.33	    10.863
  27.480        142.50	    13.077
  27.500        153.33	    13.565
  27.520         93.33	    10.583
  27.540        105.00	    11.225
  27.560        104.17	    11.180
  27.580         90.83	    10.440
  27.600         75.83	     9.539
  27.620         75.83	     9.539
  27.640        104.17	    11.180
  27.660        106.67	    11.314
  27.680        114.17	    11.705
  27.700        136.67	    12.806
  27.720        129.17	    12.450
  27.740        134.17	    12.689
  27.760        122.50	    12.124
  27.780        131.67	    12.570
  27.800        134.17	    12.689
  27.820        149.17	    13.379
  27.840        171.67	    14.353
  27.860        171.67	    14.353
  27.880        210.83	    15.906
  27.900        173.33	    14.422
  27.920        166.67	    14.142
  27.940        162.50	    13.964
  27.960        165.83	    14.107
  27.980        119.17	    11.958
  28.000         98.33	    10.863
  28.020        108.33	    11.402
  28.040        130.83	    12.530
  28.060        120.00	    12.000
  28.080         85.00	    10.100
  28.100         82.50	     9.950
  28.120        114.17	    11.705
  28.140         94.17	    10.630
  28.160         79.17	     9.747
  28.180         85.00	    10.100
  28.200         83.33	    10.000
  28.220         92.50	    10.536
  28.240         94.17	    10.630
  28.260         85.00	    10.100
  28.280         83.33	    10.000
  28.300         80.83	     9.849
  28.320         73.33	     9.381
  28.340         67.50	     9.000
  28.360         69.17	     9.110
  28.380         63.33	     8.718
  28.400         54.17	     8.062
  28.420         53.33	     8.000
  28.440         59.17	     8.426
  28.460         49.17	     7.681
  28.480         57.50	     8.307
  28.500         66.67	     8.944
  28.520         76.67	     9.592
  28.540         72.50	     9.327
  28.560         95.83	    10.724
  28.580         87.50	    10.247
  28.600         77.50	     9.644
  28.620         82.50	     9.950
  28.640         71.67	     9.274
  28.660         81.67	     9.899
  28.680        107.50	    11.358
  28.700         89.17	    10.344
  28.720         87.50	    10.247
  28.740         56.67	     8.246
  28.760         58.33	     8.367
  28.780         60.00	     8.485
  28.800         56.67	     8.246
  28.820         49.17	     7.681
  28.840         54.17	     8.062
  28.860         40.83	     7.000
  28.880         56.67	     8.246
  28.900         52.50	     7.937
  28.920         39.17	     6.856
  28.940         40.83	     7.000
  28.960         44.17	     7.280
  28.980         37.50	     6.708
  29.000         35.83	     6.557
  29.020         48.33	     7.616
  29.040         47.50	     7.550
  29.060         38.33	     6.782
  29.080         42.50	     7.141
  29.100         46.67	     7.483
  29.120         49.17	     7.681
  29.140         50.83	     7.810
  29.160         42.50	     7.141
  29.180         48.33	     7.616
  29.200         46.67	     7.483
  29.220         43.33	     7.211
  29.240         44.17	     7.280
  29.260         50.83	     7.810
  29.280         48.33	     7.616
  29.300         50.83	     7.810
  29.320         50.83	     7.810
  29.340         55.83	     8.185
  29.360         50.00	     7.746
  29.380         56.67	     8.246
  29.400         63.33	     8.718
  29.420         59.17	     8.426
  29.440         55.83	     8.185
  29.460         63.33	     8.718
  29.480         46.67	     7.483
  29.500         49.17	     7.681
  29.520         45.83	     7.416
  29.540         50.00	     7.746
  29.560         36.67	     6.633
  29.580         46.67	     7.483
  29.600         52.50	     7.937
  29.620         44.17	     7.280
  29.640         59.17	     8.426
  29.660         56.67	     8.246
  29.680         60.83	     8.544
  29.700         43.33	     7.211
  29.720         50.83	     7.810
  29.740         99.17	    10.909
  29.760         96.67	    10.770
  29.780        121.67	    12.083
  29.800        179.17	    14.663
  29.820        214.17	    16.031
  29.840        190.00	    15.100
  29.860        163.33	    14.000
  29.880        140.83	    13.000
  29.900        139.17	    12.923
  29.920        119.17	    11.958
  29.940         82.50	     9.950
  29.960         85.00	    10.100
  29.980         60.00	     8.485
  30.000         60.00	     8.485
  30.020         54.17	     8.062
  30.040         68.33	     9.055
  30.060         55.00	     8.124
  30.080         64.17	     8.775
  30.100         55.83	     8.185
  30.120         57.50	     8.307
  30.140         60.83	     8.544
  30.160         57.50	     8.307
  30.180         61.67	     8.602
  30.200         52.50	     7.937
  30.220         48.33	     7.616
  30.240         60.83	     8.544
  30.260         60.83	     8.544
  30.280         52.50	     7.937
  30.300         52.50	     7.937
  30.320         77.50	     9.644
  30.340         72.50	     9.327
  30.360         85.83	    10.149
  30.380         84.17	    10.050
  30.400         91.67	    10.488
  30.420        112.50	    11.619
  30.440        110.00	    11.489
  30.460        116.67	    11.832
  30.480         95.00	    10.677
  30.500         84.17	    10.050
  30.520         76.67	     9.592
  30.540         66.67	     8.944
  30.560         61.67	     8.602
  30.580         44.17	     7.280
  30.600         54.17	     8.062
  30.620         53.33	     8.000
  30.640         50.00	     7.746
  30.660         49.17	     7.681
  30.680         49.17	     7.681
  30.700         49.17	     7.681
  30.720         47.50	     7.550
  30.740         43.33	     7.211
  30.760         40.00	     6.928
  30.780         47.50	     7.550
  30.800         44.17	     7.280
  30.820         50.00	     7.746
  30.840         44.17	     7.280
  30.860         50.83	     7.810
  30.880         50.00	     7.746
  30.900         46.67	     7.483
  30.920         44.17	     7.280
  30.940         38.33	     6.782
  30.960         48.33	     7.616
  30.980         49.17	     7.681
  31.000         49.17	     7.681
  31.020         59.17	     8.426
  31.040         60.83	     8.544
  31.060         57.50	     8.307
  31.080         52.50	     7.937
  31.100         55.83	     8.185
  31.120         55.00	     8.124
  31.140         56.67	     8.246
  31.160         77.50	     9.644
  31.180         75.83	     9.539
  31.200         80.00	     9.798
  31.220         79.17	     9.747
  31.240         83.33	    10.000
  31.260         82.50	     9.950
  31.280         68.33	     9.055
  31.300         71.67	     9.274
  31.320         60.83	     8.544
  31.340         59.17	     8.426
  31.360         68.33	     9.055
  31.380         45.00	     7.348
  31.400         45.83	     7.416
  31.420         55.00	     8.124
  31.440         51.67	     7.874
  31.460         45.83	     7.416
  31.480         46.67	     7.483
  31.500         47.50	     7.550
  31.520         33.33	     6.325
  31.540         53.33	     8.000
  31.560         39.17	     6.856
  31.580         49.17	     7.681
  31.600         50.83	     7.810
  31.620         55.83	     8.185
  31.640         46.67	     7.483
  31.660         51.67	     7.874
  31.680         40.00	     6.928
  31.700         43.33	     7.211
  31.720         38.33	     6.782
  31.740         41.67	     7.071
  31.760         40.83	     7.000
  31.780         43.33	     7.211
  31.800         43.33	     7.211
  31.820         49.17	     7.681
  31.840         46.67	     7.483
  31.860         48.33	     7.616
  31.880         35.00	     6.481
  31.900         50.00	     7.746
  31.920         45.83	     7.416
  31.940         48.33	     7.616
  31.960         43.33	     7.211
  31.980         61.67	     8.602
  32.000         50.83	     7.810
  32.020         55.00	     8.124
  32.040         67.50	     9.000
  32.060         59.17	     8.426
  32.080         60.00	     8.485
  32.100         52.50	     7.937
  32.120         51.67	     7.874
  32.140         61.67	     8.602
  32.160         51.67	     7.874
  32.180         50.83	     7.810
  32.200         44.17	     7.280
  32.220         50.83	     7.810
  32.240         56.67	     8.246
  32.260         45.83	     7.416
  32.280         65.00	     8.832
  32.300         49.17	     7.681
  32.320         45.00	     7.348
  32.340         46.67	     7.483
  32.360         48.33	     7.616
  32.380         37.50	     6.708
  32.400         35.83	     6.557
  32.420         48.33	     7.616
  32.440         35.83	     6.557
  32.460         39.17	     6.856
  32.480         36.67	     6.633
  32.500         35.00	     6.481
  32.520         40.83	     7.000
  32.540         35.00	     6.481
  32.560         34.17	     6.403
  32.580         43.33	     7.211
  32.600         39.17	     6.856
  32.620         40.00	     6.928
  32.640         44.17	     7.280
  32.660         37.50	     6.708
  32.680         47.50	     7.550
  32.700         34.17	     6.403
  32.720         35.83	     6.557
  32.740         44.17	     7.280
  32.760         41.67	     7.071
  32.780         40.00	     6.928
  32.800         35.00	     6.481
  32.820         30.83	     6.083
  32.840         47.50	     7.550
  32.860         39.17	     6.856
  32.880         37.50	     6.708
  32.900         42.50	     7.141
  32.920         35.00	     6.481
  32.940         37.50	     6.708
  32.960         37.50	     6.708
  32.980         45.83	     7.416
  33.000         39.17	     6.856
  33.020         41.67	     7.071
  33.040         45.00	     7.348
  33.060         40.00	     6.928
  33.080         47.50	     7.550
  33.100         37.50	     6.708
  33.120         35.00	     6.481
  33.140         45.00	     7.348
  33.160         42.50	     7.141
  33.180         33.33	     6.325
  33.200         27.50	     5.745
  33.220         34.17	     6.403
  33.240         42.50	     7.141
  33.260         45.83	     7.416
  33.280         45.83	     7.416
  33.300         47.50	     7.550
  33.320         52.50	     7.937
  33.340         52.50	     7.937
  33.360         27.50	     5.745
  33.380         54.17	     8.062
  33.400         53.33	     8.000
  33.420         52.50	     7.937
  33.440         50.00	     7.746
  33.460         48.33	     7.616
  33.480         37.50	     6.708
  33.500         43.33	     7.211
  33.520         44.17	     7.280
  33.540         35.00	     6.481
  33.560         34.17	     6.403
  33.580         31.67	     6.164
  33.600         39.17	     6.856
  33.620         35.83	     6.557
  33.640         50.00	     7.746
  33.660         35.00	     6.481
  33.680         34.17	     6.403
  33.700         38.33	     6.782
  33.720         40.00	     6.928
  33.740         41.67	     7.071
  33.760         29.17	     5.916
  33.780         39.17	     6.856
  33.800         38.33	     6.782
  33.820         38.33	     6.782
  33.840         45.00	     7.348
  33.860         35.83	     6.557
  33.880         40.83	     7.000
  33.900         57.50	     8.307
  33.920         43.33	     7.211
  33.940         33.33	     6.325
  33.960         50.00	     7.746
  33.980         45.83	     7.416
  34.000         49.17	     7.681
  34.020         43.33	     7.211
  34.040         29.17	     5.916
  34.060         49.17	     7.681
  34.080         41.67	     7.071
  34.100         40.83	     7.000
  34.120         45.00	     7.348
  34.140         40.00	     6.928
  34.160         42.50	     7.141
  34.180         58.33	     8.367
  34.200         41.67	     7.071
  34.220         61.67	     8.602
  34.240         64.17	     8.775
  34.260         53.33	     8.000
  34.280         65.00	     8.832
  34.300         47.50	     7.550
  34.320         56.67	     8.246
  34.340         59.17	     8.426
  34.360         56.67	     8.246
  34.380         62.50	     8.660
  34.400         41.67	     7.071
  34.420         55.00	     8.124
  34.440         52.50	     7.937
  34.460         71.67	     9.274
  34.480         62.50	     8.660
  34.500         71.67	     9.274
  34.520         65.83	     8.888
  34.540         60.83	     8.544
  34.560         65.00	     8.832
  34.580         79.17	     9.747
  34.600         74.17	     9.434
  34.620         67.50	     9.000
  34.640         66.67	     8.944
  34.660         52.50	     7.937
  34.680         57.50	     8.307
  34.700         58.33	     8.367
  34.720         65.83	     8.888
  34.740         65.00	     8.832
  34.760         63.33	     8.718
  34.780         57.50	     8.307
  34.800         83.33	    10.000
  34.820         82.50	     9.950
  34.840        134.17	    12.689
  34.860        150.00	    13.416
  34.880        108.33	    11.402
  34.900         92.50	    10.536
  34.920        110.83	    11.533
  34.940        168.33	    14.213
  34.960        132.50	    12.610
  34.980         95.00	    10.677
  35.000         90.83	    10.440
  35.020         97.50	    10.817
  35.040         92.50	    10.536
  35.060         85.83	    10.149
  35.080         65.00	     8.832
  35.100         65.83	     8.888
  35.120         73.33	     9.381
  35.140         60.00	     8.485
  35.160         66.67	     8.944
  35.180         60.00	     8.485
  35.200         61.67	     8.602
  35.220         61.67	     8.602
  35.240         44.17	     7.280
  35.260         64.17	     8.775
  35.280         55.83	     8.185
  35.300         50.00	     7.746
  35.320         53.33	     8.000
  35.340         52.50	     7.937
  35.360         46.67	     7.483
  35.380         65.83	     8.888
  35.400         65.83	     8.888
  35.420         69.17	     9.110
  35.440         74.17	     9.434
  35.460         80.00	     9.798
  35.480         82.50	     9.950
  35.500         86.67	    10.198
  35.520        102.50	    11.091
  35.540        104.17	    11.180
  35.560        102.50	    11.091
  35.580         79.17	     9.747
  35.600         84.17	    10.050
  35.620         88.33	    10.296
  35.640         89.17	    10.344
  35.660         64.17	     8.775
  35.680         57.50	     8.307
  35.700         55.83	     8.185
  35.720         54.17	     8.062
  35.740         57.50	     8.307
  35.760         55.00	     8.124
  35.780         54.17	     8.062
  35.800         55.00	     8.124
  35.820         42.50	     7.141
  35.840         60.00	     8.485
  35.860         51.67	     7.874
  35.880         45.83	     7.416
  35.900         38.33	     6.782
  35.920         52.50	     7.937
  35.940         48.33	     7.616
  35.960         45.00	     7.348
  35.980         44.17	     7.280
  36.000         55.00	     8.124
  36.020         45.00	     7.348
  36.040         59.17	     8.426
  36.060         59.17	     8.426
  36.080         55.83	     8.185
  36.100         67.50	     9.000
  36.120         56.67	     8.246
  36.140         43.33	     7.211
  36.160         69.17	     9.110
  36.180         41.67	     7.071
  36.200         45.00	     7.348
  36.220         47.50	     7.550
  36.240         45.83	     7.416
  36.260         40.00	     6.928
  36.280         36.67	     6.633
  36.300         51.67	     7.874
  36.320         45.00	     7.348
  36.340         48.33	     7.616
  36.360         52.50	     7.937
  36.380         58.33	     8.367
  36.400         55.00	     8.124
  36.420         76.67	     9.592
  36.440         65.83	     8.888
  36.460         78.33	     9.695
  36.480         99.17	    10.909
  36.500        148.33	    13.342
  36.520        140.00	    12.961
  36.540        130.00	    12.490
  36.560        118.33	    11.916
  36.580        114.17	    11.705
  36.600        104.17	    11.180
  36.620        114.17	    11.705
  36.640         98.33	    10.863
  36.660         89.17	    10.344
  36.680         52.50	     7.937
  36.700         57.50	     8.307
  36.720         63.33	     8.718
  36.740         62.50	     8.660
  36.760         68.33	     9.055
  36.780         47.50	     7.550
  36.800         45.83	     7.416
  36.820         48.33	     7.616
  36.840         59.17	     8.426
  36.860         42.50	     7.141
  36.880         44.17	     7.280
  36.900         51.67	     7.874
  36.920         45.00	     7.348
  36.940         42.50	     7.141
  36.960         44.17	     7.280
  36.980         35.83	     6.557
  37.000         38.33	     6.782
  37.020         40.00	     6.928
  37.040         41.67	     7.071
  37.060         45.00	     7.348
  37.080         44.17	     7.280
  37.100         45.00	     7.348
  37.120         38.33	     6.782
  37.140         36.67	     6.633
  37.160         45.83	     7.416
  37.180         38.33	     6.782
  37.200         55.00	     8.124
  37.220         41.67	     7.071
  37.240         50.83	     7.810
  37.260         49.17	     7.681
  37.280         66.67	     8.944
  37.300        135.00	    12.728
  37.320        173.33	    14.422
  37.340        186.67	    14.967
  37.360        134.17	    12.689
  37.380        104.17	    11.180
  37.400        110.00	    11.489
  37.420        140.00	    12.961
  37.440        130.83	    12.530
  37.460        110.00	    11.489
  37.480         63.33	     8.718
  37.500         39.17	     6.856
  37.520         58.33	     8.367
  37.540         65.83	     8.888
  37.560         80.00	     9.798
  37.580         72.50	     9.327
  37.600        102.50	    11.091
  37.620         97.50	    10.817
  37.640         86.67	    10.198
  37.660         75.83	     9.539
  37.680         68.33	     9.055
  37.700         93.33	    10.583
  37.720         77.50	     9.644
  37.740         79.17	     9.747
  37.760         63.33	     8.718
  37.780         54.17	     8.062
  37.800         51.67	     7.874
  37.820         52.50	     7.937
  37.840         40.00	     6.928
  37.860         39.17	     6.856
  37.880         43.33	     7.211
  37.900         40.00	     6.928
  37.920         38.33	     6.782
  37.940         40.00	     6.928
  37.960         35.00	     6.481
  37.980         20.83	     5.000
  38.000         31.67	     6.164
  38.020         39.17	     6.856
  38.040         29.17	     5.916
  38.060         30.83	     6.083
  38.080         36.67	     6.633
  38.100         29.17	     5.916
  38.120         35.00	     6.481
  38.140         32.50	     6.245
  38.160         23.33	     5.292
  38.180         29.17	     5.916
  38.200         34.17	     6.403
  38.220         32.50	     6.245
  38.240         26.67	     5.657
  38.260         32.50	     6.245
  38.280         32.50	     6.245
  38.300         31.67	     6.164
  38.320         35.00	     6.481
  38.340         30.00	     6.000
  38.360         40.00	     6.928
  38.380         44.17	     7.280
  38.400         28.33	     5.831
  38.420         32.50	     6.245
  38.440         37.50	     6.708
  38.460         36.67	     6.633
  38.480         35.00	     6.481
  38.500         37.50	     6.708
  38.520         40.00	     6.928
  38.540         36.67	     6.633
  38.560         36.67	     6.633
  38.580         40.00	     6.928
  38.600         38.33	     6.782
  38.620         30.00	     6.000
  38.640         36.67	     6.633
  38.660         39.17	     6.856
  38.680         40.00	     6.928
  38.700         32.50	     6.245
  38.720         31.67	     6.164
  38.740         35.00	     6.481
  38.760         34.17	     6.403
  38.780         26.67	     5.657
  38.800         36.67	     6.633
  38.820         51.67	     7.874
  38.840         40.83	     7.000
  38.860         39.17	     6.856
  38.880         44.17	     7.280
  38.900         29.17	     5.916
  38.920         40.00	     6.928
  38.940         41.67	     7.071
  38.960         34.17	     6.403
  38.980         31.67	     6.164
  39.000         41.67	     7.071
  39.020         37.50	     6.708
  39.040         39.17	     6.856
  39.060         32.50	     6.245
  39.080         36.67	     6.633
  39.100         57.50	     8.307
  39.120         37.50	     6.708
  39.140         40.00	     6.928
  39.160         37.50	     6.708
  39.180         49.17	     7.681
  39.200         32.50	     6.245
  39.220         41.67	     7.071
  39.240         40.83	     7.000
  39.260         53.33	     8.000
  39.280         36.67	     6.633
  39.300         45.00	     7.348
  39.320         45.83	     7.416
  39.340         52.50	     7.937
  39.360         76.67	     9.592
  39.380         86.67	    10.198
  39.400        125.83	    12.288
  39.420        158.33	    13.784
  39.440        230.83	    16.643
  39.460        260.00	    17.664
  39.480        215.00	    16.062
  39.500        152.50	    13.528
  39.520        122.50	    12.124
  39.540        167.50	    14.177
  39.560        138.33	    12.884
  39.580        137.50	    12.845
  39.600        105.83	    11.269
  39.620         56.67	     8.246
  39.640         60.00	     8.485
  39.660         44.17	     7.280
  39.680         35.00	     6.481
  39.700         60.00	     8.485
  39.720         44.17	     7.280
  39.740         40.83	     7.000
  39.760         41.67	     7.071
  39.780         50.00	     7.746
  39.800         34.17	     6.403
  39.820         40.83	     7.000
  39.840         43.33	     7.211
  39.860         45.00	     7.348
  39.880         48.33	     7.616
  39.900         43.33	     7.211
  39.920         46.67	     7.483
  39.940         50.83	     7.810
  39.960         43.33	     7.211
  39.980         44.17	     7.280
  40.000         47.50	     7.550
  40.020         40.83	     7.000
  40.040         31.67	     6.164
  40.060         40.83	     7.000
  40.080         41.67	     7.071
  40.100         48.33	     7.616
  40.120         52.50	     7.937
  40.140         35.00	     6.481
  40.160         45.83	     7.416
  40.180         66.67	     8.944
  40.200         64.17	     8.775
  40.220         60.83	     8.544
  40.240         81.67	     9.899
  40.260         72.50	     9.327
  40.280         68.33	     9.055
  40.300         49.17	     7.681
  40.320         61.67	     8.602
  40.340         50.00	     7.746
  40.360         76.67	     9.592
  40.380         66.67	     8.944
  40.400         50.00	     7.746
  40.420         46.67	     7.483
  40.440         43.33	     7.211
  40.460         35.83	     6.557
  40.480         32.50	     6.245
  40.500         28.33	     5.831
  40.520         35.00	     6.481
  40.540         44.17	     7.280
  40.560         38.33	     6.782
  40.580         30.00	     6.000
  40.600         35.83	     6.557
  40.620         39.17	     6.856
  40.640         40.00	     6.928
  40.660         45.83	     7.416
  40.680         30.83	     6.083
  40.700         41.67	     7.071
  40.720         38.33	     6.782
  40.740         39.17	     6.856
  40.760         35.83	     6.557
  40.780         33.33	     6.325
  40.800         42.50	     7.141
  40.820         29.17	     5.916
  40.840         45.83	     7.416
  40.860         35.83	     6.557
  40.880         36.67	     6.633
  40.900         44.17	     7.280
  40.920         45.83	     7.416
  40.940         35.83	     6.557
  40.960         30.83	     6.083
  40.980         41.67	     7.071
  41.000         47.50	     7.550
  41.020         45.83	     7.416
  41.040         41.67	     7.071
  41.060         41.67	     7.071
  41.080         43.33	     7.211
  41.100         58.33	     8.367
  41.120         95.83	    10.724
  41.140        126.67	    12.329
  41.160        181.67	    14.765
  41.180        135.83	    12.767
  41.200         85.83	    10.149
  41.220         74.17	     9.434
  41.240         66.67	     8.944
  41.260         85.00	    10.100
  41.280         93.33	    10.583
  41.300         53.33	     8.000
  41.320         60.00	     8.485
  41.340         52.50	     7.937
  41.360         55.83	     8.185
  41.380         35.00	     6.481
  41.400         40.00	     6.928
  41.420         45.00	     7.348
  41.440         33.33	     6.325
  41.460         40.00	     6.928
  41.480         39.17	     6.856
  41.500         45.00	     7.348
  41.520         41.67	     7.071
  41.540         50.83	     7.810
  41.560         45.83	     7.416
  41.580         46.67	     7.483
  41.600         59.17	     8.426
  41.620         51.67	     7.874
  41.640         52.50	     7.937
  41.660         46.67	     7.483
  41.680         50.00	     7.746
  41.700         41.67	     7.071
  41.720         56.67	     8.246
  41.740         50.00	     7.746
  41.760         59.17	     8.426
  41.780         54.17	     8.062
  41.800         44.17	     7.280
  41.820         45.83	     7.416
  41.840         45.83	     7.416
  41.860         38.33	     6.782
  41.880         40.83	     7.000
  41.900         69.17	     9.110
  41.920         55.00	     8.124
  41.940         54.17	     8.062
  41.960         51.67	     7.874
  41.980         50.00	     7.746
  42.000         50.00	     7.746
  42.020         47.50	     7.550
  42.040         51.67	     7.874
  42.060         42.50	     7.141
  42.080         47.50	     7.550
  42.100         45.00	     7.348
  42.120         40.83	     7.000
  42.140         45.00	     7.348
  42.160         62.50	     8.660
  42.180         55.83	     8.185
  42.200         43.33	     7.211
  42.220         47.50	     7.550
  42.240         48.33	     7.616
  42.260         55.83	     8.185
  42.280         45.83	     7.416
  42.300         42.50	     7.141
  42.320         58.33	     8.367
  42.340         52.50	     7.937
  42.360         72.50	     9.327
  42.380         51.67	     7.874
  42.400         95.00	    10.677
  42.420         90.83	    10.440
  42.440         79.17	     9.747
  42.460         50.83	     7.810
  42.480         67.50	     9.000
  42.500         58.33	     8.367
  42.520         56.67	     8.246
  42.540         54.17	     8.062
  42.560         53.33	     8.000
  42.580         51.67	     7.874
  42.600         47.50	     7.550
  42.620         58.33	     8.367
  42.640         53.33	     8.000
  42.660         40.83	     7.000
  42.680         42.50	     7.141
  42.700         51.67	     7.874
  42.720         41.67	     7.071
  42.740         31.67	     6.164
  42.760         39.17	     6.856
  42.780         34.17	     6.403
  42.800         36.67	     6.633
  42.820         38.33	     6.782
  42.840         40.83	     7.000
  42.860         41.67	     7.071
  42.880         37.50	     6.708
  42.900         38.33	     6.782
  42.920         45.83	     7.416
  42.940         50.83	     7.810
  42.960         52.50	     7.937
  42.980         47.50	     7.550
  43.000         50.00	     7.746
  43.020         37.50	     6.708
  43.040         34.17	     6.403
  43.060         40.83	     7.000
  43.080         42.50	     7.141
  43.100         48.33	     7.616
  43.120         41.67	     7.071
  43.140         43.33	     7.211
  43.160         35.00	     6.481
  43.180         45.00	     7.348
  43.200         49.17	     7.681
  43.220         58.33	     8.367
  43.240         34.17	     6.403
  43.260         38.33	     6.782
  43.280         34.17	     6.403
  43.300         54.17	     8.062
  43.320         49.17	     7.681
  43.340         77.50	     9.644
  43.360         43.33	     7.211
  43.380         73.33	     9.381
  43.400         63.33	     8.718
  43.420         70.00	     9.165
  43.440        110.83	    11.533
  43.460        130.83	    12.530
  43.480        154.17	    13.601
  43.500        137.50	    12.845
  43.520         97.50	    10.817
  43.540         91.67	    10.488
  43.560        117.50	    11.874
  43.580        100.00	    10.954
  43.600        129.17	    12.450
  43.620        106.67	    11.314
  43.640         94.17	    10.630
  43.660         78.33	     9.695
  43.680         82.50	     9.950
  43.700         83.33	    10.000
  43.720         94.17	    10.630
  43.740         99.17	    10.909
  43.760         81.67	     9.899
  43.780         90.00	    10.392
  43.800         66.67	     8.944
  43.820         85.00	    10.100
  43.840         63.33	     8.718
  43.860         58.33	     8.367
  43.880         61.67	     8.602
  43.900         69.17	     9.110
  43.920         65.83	     8.888
  43.940         65.83	     8.888
  43.960         71.67	     9.274
  43.980         75.83	     9.539
  44.000         60.00	     8.485
  44.020         65.00	     8.832
  44.040         65.83	     8.888
  44.060         71.67	     9.274
  44.080         56.67	     8.246
  44.100         55.83	     8.185
  44.120         65.00	     8.832
  44.140         70.83	     9.220
  44.160         75.00	     9.487
  44.180         89.17	    10.344
  44.200         74.17	     9.434
  44.220         85.00	    10.100
  44.240         75.00	     9.487
  44.260         80.83	     9.849
  44.280        117.50	    11.874
  44.300         98.33	    10.863
  44.320        120.00	    12.000
  44.340         95.83	    10.724
  44.360        116.67	    11.832
  44.380        111.67	    11.576
  44.400        130.00	    12.490
  44.420        120.00	    12.000
  44.440        145.00	    13.191
  44.460        144.17	    13.153
  44.480        132.50	    12.610
  44.500        137.50	    12.845
  44.520        120.00	    12.000
  44.540        125.83	    12.288
  44.560        132.50	    12.610
  44.580        118.33	    11.916
  44.600        115.83	    11.790
  44.620        120.83	    12.042
  44.640        108.33	    11.402
  44.660        116.67	    11.832
  44.680        101.67	    11.045
  44.700        104.17	    11.180
  44.720        113.33	    11.662
  44.740        105.00	    11.225
  44.760        111.67	    11.576
  44.780        104.17	    11.180
  44.800         84.17	    10.050
  44.820         86.67	    10.198
  44.840         75.00	     9.487
  44.860         90.83	    10.440
  44.880         79.17	     9.747
  44.900         85.00	    10.100
  44.920         65.00	     8.832
  44.940         63.33	     8.718
  44.960         62.50	     8.660
  44.980         74.17	     9.434
  45.000         79.17	     9.747
  45.020         63.33	     8.718
  45.040         73.33	     9.381
  45.060         78.33	     9.695
  45.080         73.33	     9.381
  45.100         69.17	     9.110
  45.120         58.33	     8.367
  45.140         75.83	     9.539
  45.160         65.83	     8.888
  45.180         65.83	     8.888
  45.200         50.00	     7.746
  45.220         62.50	     8.660
  45.240         57.50	     8.307
  45.260         64.17	     8.775
  45.280         64.17	     8.775
  45.300         60.00	     8.485
  45.320         45.83	     7.416
  45.340         55.83	     8.185
  45.360         69.17	     9.110
  45.380         60.00	     8.485
  45.400         68.33	     9.055
  45.420         69.17	     9.110
  45.440         61.67	     8.602
  45.460         80.00	     9.798
  45.480         75.83	     9.539
  45.500         79.17	     9.747
  45.520         93.33	    10.583
  45.540         90.83	    10.440
  45.560        138.33	    12.884
  45.580        123.33	    12.166
  45.600        124.17	    12.207
  45.620        104.17	    11.180
  45.640         97.50	    10.817
  45.660         89.17	    10.344
  45.680         89.17	    10.344
  45.700        114.17	    11.705
  45.720        114.17	    11.705
  45.740        138.33	    12.884
  45.760        103.33	    11.136
  45.780         96.67	    10.770
  45.800         85.00	    10.100
  45.820         86.67	    10.198
  45.840         82.50	     9.950
  45.860         79.17	     9.747
  45.880         98.33	    10.863
  45.900         77.50	     9.644
  45.920         60.83	     8.544
  45.940         56.67	     8.246
  45.960         52.50	     7.937
  45.980         62.50	     8.660
  46.000         40.83	     7.000
  46.020         41.67	     7.071
  46.040         44.17	     7.280
  46.060         37.50	     6.708
  46.080         56.67	     8.246
  46.100         49.17	     7.681
  46.120         50.00	     7.746
  46.140         49.17	     7.681
  46.160         51.67	     7.874
  46.180         42.50	     7.141
  46.200         46.67	     7.483
  46.220         50.83	     7.810
  46.240         27.50	     5.745
  46.260         36.67	     6.633
  46.280         39.17	     6.856
  46.300         40.00	     6.928
  46.320         27.50	     5.745
  46.340         40.83	     7.000
  46.360         27.50	     5.745
  46.380         31.67	     6.164
  46.400         32.50	     6.245
  46.420         30.83	     6.083
  46.440         32.50	     6.245
  46.460         31.67	     6.164
  46.480         41.67	     7.071
  46.500         40.83	     7.000
  46.520         27.50	     5.745
  46.540         30.00	     6.000
  46.560         38.33	     6.782
  46.580         30.00	     6.000
  46.600         24.17	     5.385
  46.620         36.67	     6.633
  46.640         50.00	     7.746
  46.660         23.33	     5.292
  46.680         30.83	     6.083
  46.700         35.83	     6.557
  46.720         26.67	     5.657
  46.740         28.33	     5.831
  46.760         17.50	     4.583
  46.780         33.33	     6.325
  46.800         28.33	     5.831
  46.820         31.67	     6.164
  46.840         28.33	     5.831
  46.860         28.33	     5.831
  46.880         30.83	     6.083
  46.900         28.33	     5.831
  46.920         27.50	     5.745
  46.940         34.17	     6.403
  46.960         30.00	     6.000
  46.980         33.33	     6.325
  47.000         39.17	     6.856
  47.020         43.33	     7.211
  47.040         44.17	     7.280
  47.060         29.17	     5.916
  47.080         28.33	     5.831
  47.100         35.83	     6.557
  47.120         34.17	     6.403
  47.140         40.00	     6.928
  47.160         28.33	     5.831
  47.180         30.83	     6.083
  47.200         36.67	     6.633
  47.220         33.33	     6.325
  47.240         31.67	     6.164
  47.260         35.00	     6.481
  47.280         34.17	     6.403
  47.300         40.83	     7.000
  47.320         32.50	     6.245
  47.340         35.83	     6.557
  47.360         35.00	     6.481
  47.380         37.50	     6.708
  47.400         25.83	     5.568
  47.420         25.00	     5.477
  47.440         37.50	     6.708
  47.460         32.50	     6.245
  47.480         25.83	     5.568
  47.500         23.33	     5.292
  47.520         39.17	     6.856
  47.540         22.50	     5.196
  47.560         38.33	     6.782
  47.580         28.33	     5.831
  47.600         30.00	     6.000
  47.620         35.00	     6.481
  47.640         35.83	     6.557
  47.660         30.00	     6.000
  47.680         24.17	     5.385
  47.700         38.33	     6.782
  47.720         38.33	     6.782
  47.740         21.67	     5.099
  47.760         29.17	     5.916
  47.780         30.00	     6.000
  47.800         27.50	     5.745
  47.820         36.67	     6.633
  47.840         31.67	     6.164
  47.860         33.33	     6.325
  47.880         50.83	     7.810
  47.900         47.50	     7.550
  47.920         47.50	     7.550
  47.940         47.50	     7.550
  47.960         37.50	     6.708
  47.980         40.00	     6.928
  48.000         42.50	     7.141
  48.020         40.83	     7.000
  48.040         30.83	     6.083
  48.060         48.33	     7.616
  48.080         54.17	     8.062
  48.100         49.17	     7.681
  48.120         50.83	     7.810
  48.140         47.50	     7.550
  48.160         30.83	     6.083
  48.180         45.83	     7.416
  48.200         40.83	     7.000
  48.220         35.83	     6.557
  48.240         47.50	     7.550
  48.260         49.17	     7.681
  48.280         34.17	     6.403
  48.300         40.00	     6.928
  48.320         36.67	     6.633
  48.340         33.33	     6.325
  48.360         47.50	     7.550
  48.380         49.17	     7.681
  48.400         30.83	     6.083
  48.420         46.67	     7.483
  48.440         44.17	     7.280
  48.460         45.00	     7.348
  48.480         43.33	     7.211
  48.500         43.33	     7.211
  48.520         45.00	     7.348
  48.540         35.83	     6.557
  48.560         25.00	     5.477
  48.580         37.50	     6.708
  48.600         29.17	     5.916
  48.620         37.50	     6.708
  48.640         36.67	     6.633
  48.660         35.83	     6.557
  48.680         30.83	     6.083
  48.700         29.17	     5.916
  48.720         28.33	     5.831
  48.740         42.50	     7.141
  48.760         29.17	     5.916
  48.780         37.50	     6.708
  48.800         30.00	     6.000
  48.820         36.67	     6.633
  48.840         40.83	     7.000
  48.860         22.50	     5.196
  48.880         27.50	     5.745
  48.900         29.17	     5.916
  48.920         31.67	     6.164
  48.940         26.67	     5.657
  48.960         35.00	     6.481
  48.980         35.00	     6.481
  49.000         35.83	     6.557
  49.020         40.83	     7.000
  49.040         32.50	     6.245
  49.060         44.17	     7.280
  49.080         35.83	     6.557
  49.100         30.83	     6.083
  49.120         31.67	     6.164
  49.140         39.17	     6.856
  49.160         36.67	     6.633
  49.180         39.17	     6.856
  49.200         49.17	     7.681
  49.220         34.17	     6.403
  49.240         31.67	     6.164
  49.260         30.83	     6.083
  49.280         44.17	     7.280
  49.300         30.00	     6.000
  49.320         39.17	     6.856
  49.340         50.83	     7.810
  49.360         35.00	     6.481
  49.380         25.00	     5.477
  49.400         37.50	     6.708
  49.420         39.17	     6.856
  49.440         61.67	     8.602
  49.460         61.67	     8.602
  49.480         48.33	     7.616
  49.500         56.67	     8.246
  49.520         52.50	     7.937
  49.540         39.17	     6.856
  49.560         45.00	     7.348
  49.580         52.50	     7.937
  49.600         50.83	     7.810
  49.620         57.50	     8.307
  49.640         46.67	     7.483
  49.660         56.67	     8.246
  49.680         60.00	     8.485
  49.700         59.17	     8.426
  49.720         60.83	     8.544
  49.740         64.17	     8.775
  49.760         65.83	     8.888
  49.780         85.00	    10.100
  49.800         58.33	     8.367
  49.820         78.33	     9.695
  49.840         66.67	     8.944
  49.860         75.00	     9.487
  49.880         59.17	     8.426
  49.900         61.67	     8.602
  49.920         63.33	     8.718
  49.940         68.33	     9.055
  49.960         72.50	     9.327
  49.980         50.00	     7.746
  50.000         72.50	     9.327
  50.020         65.83	     8.888
  50.040         77.50	     9.644
  50.060        108.33	    11.402
  50.080        108.33	    11.402
  50.100         88.33	    10.296
  50.120        100.83	    11.000
  50.140         98.33	    10.863
  50.160         75.00	     9.487
  50.180         90.00	    10.392
  50.200        103.33	    11.136
  50.220         80.00	     9.798
  50.240         70.83	     9.220
  50.260         68.33	     9.055
  50.280         60.00	     8.485
  50.300         65.83	     8.888
  50.320         43.33	     7.211
  50.340         38.33	     6.782
  50.360         44.17	     7.280
  50.380         49.17	     7.681
  50.400         58.33	     8.367
  50.420         40.83	     7.000
  50.440         49.17	     7.681
  50.460         40.83	     7.000
  50.480         43.33	     7.211
  50.500         41.67	     7.071
  50.520         50.83	     7.810
  50.540         51.67	     7.874
  50.560         58.33	     8.367
  50.580         50.83	     7.810
  50.600         47.50	     7.550
  50.620         40.83	     7.000
  50.640         40.83	     7.000
  50.660         49.17	     7.681
  50.680         47.50	     7.550
  50.700         35.83	     6.557
  50.720         45.83	     7.416
  50.740         42.50	     7.141
  50.760         33.33	     6.325
  50.780         35.83	     6.557
  50.800         35.83	     6.557
  50.820         30.00	     6.000
  50.840         40.83	     7.000
  50.860         44.17	     7.280
  50.880         33.33	     6.325
  50.900         36.67	     6.633
  50.920         34.17	     6.403
  50.940         34.17	     6.403
  50.960         32.50	     6.245
  50.980         36.67	     6.633
  51.000         40.00	     6.928
  51.020         32.50	     6.245
  51.040         44.17	     7.280
  51.060         72.50	     9.327
  51.080         68.33	     9.055
  51.100         63.33	     8.718
  51.120         44.17	     7.280
  51.140         42.50	     7.141
  51.160         36.67	     6.633
  51.180         46.67	     7.483
  51.200         48.33	     7.616
  51.220         53.33	     8.000
  51.240         45.00	     7.348
  51.260         31.67	     6.164
  51.280         42.50	     7.141
  51.300         40.00	     6.928
  51.320         35.00	     6.481
  51.340         37.50	     6.708
  51.360         24.17	     5.385
  51.380         37.50	     6.708
  51.400         25.83	     5.568
  51.420         32.50	     6.245
  51.440         32.50	     6.245
  51.460         38.33	     6.782
  51.480         41.67	     7.071
  51.500         32.50	     6.245
  51.520         35.83	     6.557
  51.540         25.83	     5.568
  51.560         33.33	     6.325
  51.580         43.33	     7.211
  51.600         32.50	     6.245
  51.620         27.50	     5.745
  51.640         27.50	     5.745
  51.660         22.50	     5.196
  51.680         28.33	     5.831
  51.700         28.33	     5.831
  51.720         28.33	     5.831
  51.740         23.33	     5.292
  51.760         18.33	     4.690
  51.780         34.17	     6.403
  51.800         23.33	     5.292
  51.820         33.33	     6.325
  51.840         25.00	     5.477
  51.860         35.00	     6.481
  51.880         22.50	     5.196
  51.900         26.67	     5.657
  51.920         30.83	     6.083
  51.940         30.83	     6.083
  51.960         28.33	     5.831
  51.980         29.17	     5.916
  52.000         33.33	     6.325
  52.020         43.33	     7.211
  52.040         34.17	     6.403
  52.060         35.00	     6.481
  52.080         30.83	     6.083
  52.100         25.83	     5.568
  52.120         25.83	     5.568
  52.140         28.33	     5.831
  52.160         28.33	     5.831
  52.180         24.17	     5.385
  52.200         38.33	     6.782
  52.220         41.67	     7.071
  52.240         38.33	     6.782
  52.260         25.83	     5.568
  52.280         40.00	     6.928
  52.300         41.67	     7.071
  52.320         39.17	     6.856
  52.340         38.33	     6.782
  52.360         29.17	     5.916
  52.380         36.67	     6.633
  52.400         38.33	     6.782
  52.420         32.50	     6.245
  52.440         28.33	     5.831
  52.460         30.83	     6.083
  52.480         40.00	     6.928
  52.500         27.50	     5.745
  52.520         27.50	     5.745
  52.540         29.17	     5.916
  52.560         32.50	     6.245
  52.580         35.83	     6.557
  52.600         30.83	     6.083
  52.620         30.00	     6.000
  52.640         27.50	     5.745
  52.660         29.17	     5.916
  52.680         39.17	     6.856
  52.700         35.83	     6.557
  52.720         25.83	     5.568
  52.740         27.50	     5.745
  52.760         35.00	     6.481
  52.780         35.83	     6.557
  52.800         32.50	     6.245
  52.820         27.50	     5.745
  52.840         29.17	     5.916
  52.860         36.67	     6.633
  52.880         41.67	     7.071
  52.900         40.00	     6.928
  52.920         33.33	     6.325
  52.940         31.67	     6.164
  52.960         20.00	     4.899
  52.980         36.67	     6.633
  53.000         31.67	     6.164
  53.020         50.00	     7.746
  53.040         36.67	     6.633
  53.060         40.83	     7.000
  53.080         38.33	     6.782
  53.100         46.67	     7.483
  53.120         38.33	     6.782
  53.140         33.33	     6.325
  53.160         48.33	     7.616
  53.180         28.33	     5.831
  53.200         35.83	     6.557
  53.220         30.00	     6.000
  53.240         36.67	     6.633
  53.260         45.00	     7.348
  53.280         34.17	     6.403
  53.300         33.33	     6.325
  53.320         40.83	     7.000
  53.340         20.83	     5.000
  53.360         35.83	     6.557
  53.380         37.50	     6.708
  53.400         33.33	     6.325
  53.420         40.83	     7.000
  53.440         30.83	     6.083
  53.460         37.50	     6.708
  53.480         24.17	     5.385
  53.500         30.83	     6.083
  53.520         30.00	     6.000
  53.540         35.00	     6.481
  53.560         22.50	     5.196
  53.580         24.17	     5.385
  53.600         34.17	     6.403
  53.620         38.33	     6.782
  53.640         28.33	     5.831
  53.660         29.17	     5.916
  53.680         35.83	     6.557
  53.700         35.00	     6.481
  53.720         35.00	     6.481
  53.740         27.50	     5.745
  53.760         30.00	     6.000
  53.780         32.50	     6.245
  53.800         33.33	     6.325
  53.820         36.67	     6.633
  53.840         22.50	     5.196
  53.860         25.83	     5.568
  53.880         30.00	     6.000
  53.900         38.33	     6.782
  53.920         35.83	     6.557
  53.940         38.33	     6.782
  53.960         35.83	     6.557
  53.980         35.00	     6.481
  54.000         29.17	     5.916
  54.020         33.33	     6.325
  54.040         30.00	     6.000
  54.060         22.50	     5.196
  54.080         35.83	     6.557
  54.100         34.17	     6.403
  54.120         33.33	     6.325
  54.140         36.67	     6.633
  54.160         35.00	     6.481
  54.180         18.33	     4.690
  54.200         30.00	     6.000
  54.220         33.33	     6.325
  54.240         40.83	     7.000
  54.260         50.00	     7.746
  54.280         69.17	     9.110
  54.300         79.17	     9.747
  54.320         40.83	     7.000
  54.340         30.00	     6.000
  54.360         40.00	     6.928
  54.380         39.17	     6.856
  54.400         33.33	     6.325
  54.420         60.83	     8.544
  54.440         46.67	     7.483
  54.460         55.00	     8.124
  54.480         38.33	     6.782
  54.500         26.67	     5.657
  54.520         29.17	     5.916
  54.540         29.17	     5.916
  54.560         35.00	     6.481
  54.580         35.83	     6.557
  54.600         36.67	     6.633
  54.620         37.50	     6.708
  54.640         31.67	     6.164
  54.660         40.83	     7.000
  54.680         30.00	     6.000
  54.700         43.33	     7.211
  54.720         44.17	     7.280
  54.740         43.33	     7.211
  54.760         55.83	     8.185
  54.780         63.33	     8.718
  54.800         65.00	     8.832
  54.820         94.17	    10.630
  54.840         82.50	     9.950
  54.860         99.17	    10.909
  54.880         90.00	    10.392
  54.900         64.17	     8.775
  54.920         55.00	     8.124
  54.940         66.67	     8.944
  54.960         61.67	     8.602
  54.980         87.50	    10.247
  55.000         73.33	     9.381
  55.020         74.17	     9.434
  55.040         75.00	     9.487
  55.060         43.33	     7.211
  55.080         60.00	     8.485
  55.100         48.33	     7.616
  55.120         44.17	     7.280
  55.140         55.00	     8.124
  55.160         63.33	     8.718
  55.180         81.67	     9.899
  55.200         75.83	     9.539
  55.220         91.67	    10.488
  55.240         84.17	    10.050
  55.260        115.83	    11.790
  55.280         96.67	    10.770
  55.300         82.50	     9.950
  55.320         80.00	     9.798
  55.340         63.33	     8.718
  55.360         62.50	     8.660
  55.380         70.00	     9.165
  55.400         78.33	     9.695
  55.420         70.00	     9.165
  55.440         56.67	     8.246
  55.460         56.67	     8.246
  55.480         48.33	     7.616
  55.500         40.83	     7.000
  55.520         33.33	     6.325
  55.540         37.50	     6.708
  55.560         43.33	     7.211
  55.580         50.00	     7.746
  55.600         48.33	     7.616
  55.620         55.00	     8.124
  55.640         54.17	     8.062
  55.660         48.33	     7.616
  55.680         40.00	     6.928
  55.700         46.67	     7.483
  55.720         49.17	     7.681
  55.740         61.67	     8.602
  55.760         55.00	     8.124
  55.780         55.83	     8.185
  55.800         60.00	     8.485
  55.820         40.83	     7.000
  55.840         43.33	     7.211
  55.860         57.50	     8.307
  55.880         59.17	     8.426
  55.900         50.00	     7.746
  55.920         45.00	     7.348
  55.940         49.17	     7.681
  55.960         45.00	     7.348
  55.980         42.50	     7.141
  56.000         40.00	     6.928
  56.020         40.83	     7.000
  56.040         49.17	     7.681
  56.060         55.00	     8.124
  56.080         51.67	     7.874
  56.100         35.83	     6.557
  56.120         39.17	     6.856
  56.140         40.00	     6.928
  56.160         46.67	     7.483
  56.180         25.00	     5.477
  56.200         30.83	     6.083
  56.220         36.67	     6.633
  56.240         41.67	     7.071
  56.260         40.00	     6.928
  56.280         32.50	     6.245
  56.300         31.67	     6.164
  56.320         31.67	     6.164
  56.340         33.33	     6.325
  56.360         31.67	     6.164
  56.380         35.00	     6.481
  56.400         40.00	     6.928
  56.420         22.50	     5.196
  56.440         37.50	     6.708
  56.460         36.67	     6.633
  56.480         22.50	     5.196
  56.500         31.67	     6.164
  56.520         25.00	     5.477
  56.540         28.33	     5.831
  56.560         26.67	     5.657
  56.580         35.83	     6.557
  56.600         32.50	     6.245
  56.620         34.17	     6.403
  56.640         40.83	     7.000
  56.660         37.50	     6.708
  56.680         33.33	     6.325
  56.700         38.33	     6.782
  56.720         24.17	     5.385
  56.740         31.67	     6.164
  56.760         26.67	     5.657
  56.780         28.33	     5.831
  56.800         32.50	     6.245
  56.820         40.83	     7.000
  56.840         31.67	     6.164
  56.860         22.50	     5.196
  56.880         26.67	     5.657
  56.900         31.67	     6.164
  56.920         28.33	     5.831
  56.940         25.00	     5.477
  56.960         28.33	     5.831
  56.980         35.00	     6.481
  57.000         35.83	     6.557
  57.020         30.83	     6.083
  57.040         33.33	     6.325
  57.060         35.83	     6.557
  57.080         32.50	     6.245
  57.100         38.33	     6.782
  57.120         30.00	     6.000
  57.140         32.50	     6.245
  57.160         39.17	     6.856
  57.180         34.17	     6.403
  57.200         32.50	     6.245
  57.220         31.67	     6.164
  57.240         35.83	     6.557
  57.260         38.33	     6.782
  57.280         36.67	     6.633
  57.300         31.67	     6.164
  57.320         56.67	     8.246
  57.340         44.17	     7.280
  57.360         45.00	     7.348
  57.380         28.33	     5.831
  57.400         45.00	     7.348
  57.420         35.83	     6.557
  57.440         36.67	     6.633
  57.460         39.17	     6.856
  57.480         35.83	     6.557
  57.500         35.83	     6.557
  57.520         37.50	     6.708
  57.540         34.17	     6.403
  57.560         35.83	     6.557
  57.580         32.50	     6.245
  57.600         46.67	     7.483
  57.620         36.67	     6.633
  57.640         35.00	     6.481
  57.660         38.33	     6.782
  57.680         33.33	     6.325
  57.700         25.83	     5.568
  57.720         27.50	     5.745
  57.740         34.17	     6.403
  57.760         32.50	     6.245
  57.780         35.83	     6.557
  57.800         33.33	     6.325
  57.820         32.50	     6.245
  57.840         24.17	     5.385
  57.860         29.17	     5.916
  57.880         41.67	     7.071
  57.900         41.67	     7.071
  57.920         22.50	     5.196
  57.940         33.33	     6.325
  57.960         27.50	     5.745
  57.980         30.83	     6.083
  58.000         30.83	     6.083
  58.020         29.17	     5.916
  58.040         39.17	     6.856
  58.060         37.50	     6.708
  58.080         34.17	     6.403
  58.100         38.33	     6.782
  58.120         32.50	     6.245
  58.140         28.33	     5.831
  58.160         25.00	     5.477
  58.180         32.50	     6.245
  58.200         31.67	     6.164
  58.220         35.00	     6.481
  58.240         34.17	     6.403
  58.260         24.17	     5.385
  58.280         25.83	     5.568
  58.300         39.17	     6.856
  58.320         30.00	     6.000
  58.340         28.33	     5.831
  58.360         35.83	     6.557
  58.380         29.17	     5.916
  58.400         30.00	     6.000
  58.420         30.00	     6.000
  58.440         25.00	     5.477
  58.460         34.17	     6.403
  58.480         36.67	     6.633
  58.500         29.17	     5.916
  58.520         35.00	     6.481
  58.540         40.83	     7.000
  58.560         33.33	     6.325
  58.580         30.00	     6.000
  58.600         40.83	     7.000
  58.620         68.33	     9.055
  58.640         74.17	     9.434
  58.660         70.83	     9.220
  58.680         82.50	     9.950
  58.700         59.17	     8.426
  58.720         46.67	     7.483
  58.740         36.67	     6.633
  58.760         47.50	     7.550
  58.780         55.00	     8.124
  58.800         59.17	     8.426
  58.820         71.67	     9.274
  58.840         50.00	     7.746
  58.860         54.17	     8.062
  58.880         55.00	     8.124
  58.900         46.67	     7.483
  58.920         42.50	     7.141
  58.940         32.50	     6.245
  58.960         35.83	     6.557
  58.980         40.83	     7.000
  59.000         40.00	     6.928
  59.020         48.33	     7.616
  59.040         44.17	     7.280
  59.060         50.00	     7.746
  59.080         54.17	     8.062
  59.100         40.00	     6.928
  59.120         55.83	     8.185
  59.140         40.00	     6.928
  59.160         58.33	     8.367
  59.180         50.83	     7.810
  59.200         56.67	     8.246
  59.220         51.67	     7.874
  59.240         44.17	     7.280
  59.260         50.00	     7.746
  59.280         66.67	     8.944
  59.300         74.17	     9.434
  59.320         70.83	     9.220
  59.340         75.00	     9.487
  59.360         60.00	     8.485
  59.380         50.83	     7.810
  59.400         40.00	     6.928
  59.420         35.83	     6.557
  59.440         39.17	     6.856
  59.460         53.33	     8.000
  59.480         59.17	     8.426
  59.500         62.50	     8.660
  59.520         45.00	     7.348
  59.540         38.33	     6.782
  59.560         35.83	     6.557
  59.580         53.33	     8.000
  59.600         43.33	     7.211
  59.620         30.83	     6.083
  59.640         43.33	     7.211
  59.660         35.83	     6.557
  59.680         30.00	     6.000
  59.700         47.50	     7.550
  59.720         40.83	     7.000
  59.740         42.50	     7.141
  59.760         58.33	     8.367
  59.780         71.67	     9.274
  59.800         75.83	     9.539
  59.820         84.17	    10.050
  59.840         89.17	    10.344
  59.860        104.17	    11.180
  59.880        149.17	    13.379
  59.900        160.83	    13.892
  59.920        171.67	    14.353
  59.940        150.00	    13.416
  59.960        125.00	    12.247
  59.980        105.83	    11.269
  60.000         79.17	     9.747
  60.020         86.67	    10.198
  60.040         99.17	    10.909
  60.060         97.50	    10.817
  60.080        101.67	    11.045
  60.100         95.83	    10.724
  60.120        106.67	    11.314
  60.140         81.67	     9.899
  60.160         61.67	     8.602
  60.180         59.17	     8.426
  60.200         50.83	     7.810
  60.220         53.33	     8.000
  60.240         58.33	     8.367
  60.260         43.33	     7.211
  60.280         48.33	     7.616
  60.300         43.33	     7.211
  60.320         34.17	     6.403
  60.340         35.83	     6.557
  60.360         39.17	     6.856
  60.380         45.83	     7.416
  60.400         36.67	     6.633
  60.420         36.67	     6.633
  60.440         48.33	     7.616
  60.460         42.50	     7.141
  60.480         37.50	     6.708
  60.500         40.83	     7.000
  60.520         37.50	     6.708
  60.540         32.50	     6.245
  60.560         41.67	     7.071
  60.580         35.83	     6.557
  60.600         44.17	     7.280
  60.620         48.33	     7.616
  60.640         50.00	     7.746
  60.660         38.33	     6.782
  60.680         48.33	     7.616
  60.700         38.33	     6.782
  60.720         50.00	     7.746
  60.740         38.33	     6.782
  60.760         40.83	     7.000
  60.780         41.67	     7.071
  60.800         49.17	     7.681
  60.820         48.33	     7.616
  60.840         52.50	     7.937
  60.860         40.83	     7.000
  60.880         51.67	     7.874
  60.900         45.83	     7.416
  60.920         41.67	     7.071
  60.940         48.33	     7.616
  60.960         49.17	     7.681
  60.980         39.17	     6.856
  61.000         36.67	     6.633
  61.020         48.33	     7.616
  61.040         30.00	     6.000
  61.060         41.67	     7.071
  61.080         37.50	     6.708
  61.100         34.17	     6.403
  61.120         54.17	     8.062
  61.140         35.83	     6.557
  61.160         35.83	     6.557
  61.180         41.67	     7.071
  61.200         42.50	     7.141
  61.220         37.50	     6.708
  61.240         41.67	     7.071
  61.260         52.50	     7.937
  61.280         31.67	     6.164
  61.300         45.83	     7.416
  61.320         44.17	     7.280
  61.340         57.50	     8.307
  61.360         44.17	     7.280
  61.380         53.33	     8.000
  61.400         47.50	     7.550
  61.420         64.17	     8.775
  61.440         48.33	     7.616
  61.460         50.00	     7.746
  61.480         47.50	     7.550
  61.500         50.00	     7.746
  61.520         55.00	     8.124
  61.540         63.33	     8.718
  61.560         54.17	     8.062
  61.580         61.67	     8.602
  61.600         52.50	     7.937
  61.620         50.00	     7.746
  61.640         53.33	     8.000
  61.660         46.67	     7.483
  61.680         57.50	     8.307
  61.700         55.00	     8.124
  61.720         47.50	     7.550
  61.740         34.17	     6.403
  61.760         45.00	     7.348
  61.780         42.50	     7.141
  61.800         44.17	     7.280
  61.820         41.67	     7.071
  61.840         46.67	     7.483
  61.860         50.00	     7.746
  61.880         39.17	     6.856
  61.900         45.83	     7.416
  61.920         40.00	     6.928
  61.940         45.00	     7.348
  61.960         49.17	     7.681
  61.980         47.50	     7.550
  62.000         41.67	     7.071
  62.020         41.67	     7.071
  62.040         42.50	     7.141
  62.060         41.67	     7.071
  62.080         41.67	     7.071
  62.100         39.17	     6.856
  62.120         41.67	     7.071
  62.140         52.50	     7.937
  62.160         37.50	     6.708
  62.180         43.33	     7.211
  62.200         34.17	     6.403
  62.220         26.67	     5.657
  62.240         35.00	     6.481
  62.260         25.83	     5.568
  62.280         34.17	     6.403
  62.300         35.83	     6.557
  62.320         35.83	     6.557
  62.340         31.67	     6.164
  62.360         38.33	     6.782
  62.380         30.83	     6.083
  62.400         25.00	     5.477
  62.420         52.50	     7.937
  62.440         25.83	     5.568
  62.460         31.67	     6.164
  62.480         30.00	     6.000
  62.500         30.00	     6.000
  62.520         25.83	     5.568
  62.540         34.17	     6.403
  62.560         44.17	     7.280
  62.580         30.00	     6.000
  62.600         31.67	     6.164
  62.620         27.50	     5.745
  62.640         29.17	     5.916
  62.660         35.83	     6.557
  62.680         31.67	     6.164
  62.700         36.67	     6.633
  62.720         27.50	     5.745
  62.740         30.83	     6.083
  62.760         40.83	     7.000
  62.780         26.67	     5.657
  62.800         31.67	     6.164
  62.820         25.83	     5.568
  62.840         35.83	     6.557
  62.860         34.17	     6.403
  62.880         35.00	     6.481
  62.900         30.00	     6.000
  62.920         18.33	     4.690
  62.940         31.67	     6.164
  62.960         38.33	     6.782
  62.980         32.50	     6.245
  63.000         32.50	     6.245
  63.020         23.33	     5.292
  63.040         40.00	     6.928
  63.060         26.67	     5.657
  63.080         29.17	     5.916
  63.100         28.33	     5.831
  63.120         30.00	     6.000
  63.140         35.00	     6.481
  63.160         34.17	     6.403
  63.180         30.00	     6.000
  63.200         33.33	     6.325
  63.220         32.50	     6.245
  63.240         32.50	     6.245
  63.260         29.17	     5.916
  63.280         27.50	     5.745
  63.300         36.67	     6.633
  63.320         35.83	     6.557
  63.340         35.83	     6.557
  63.360         37.50	     6.708
  63.380         37.50	     6.708
  63.400         34.17	     6.403
  63.420         30.83	     6.083
  63.440         48.33	     7.616
  63.460         37.50	     6.708
  63.480         39.17	     6.856
  63.500         34.17	     6.403
  63.520         39.17	     6.856
  63.540         44.17	     7.280
  63.560         44.17	     7.280
  63.580         51.67	     7.874
  63.600         63.33	     8.718
  63.620         77.50	     9.644
  63.640        105.00	    11.225
  63.660        165.83	    14.107
  63.680        249.17	    17.292
  63.700        250.83	    17.349
  63.720        180.00	    14.697
  63.740        108.33	    11.402
  63.760         92.50	    10.536
  63.780         69.17	     9.110
  63.800         74.17	     9.434
  63.820         85.00	    10.100
  63.840        117.50	    11.874
  63.860        159.17	    13.820
  63.880        170.00	    14.283
  63.900        119.17	    11.958
  63.920         90.83	    10.440
  63.940         90.83	    10.440
  63.960         55.00	     8.124
  63.980         73.33	     9.381
  64.000         64.17	     8.775
  64.020         69.17	     9.110
  64.040         45.00	     7.348
  64.060         57.50	     8.307
  64.080         45.83	     7.416
  64.100         42.50	     7.141
  64.120         46.67	     7.483
  64.140         53.33	     8.000
  64.160         44.17	     7.280
  64.180         47.50	     7.550
  64.200         43.33	     7.211
  64.220         44.17	     7.280
  64.240         39.17	     6.856
  64.260         40.83	     7.000
  64.280         47.50	     7.550
  64.300         32.50	     6.245
  64.320         30.00	     6.000
  64.340         35.00	     6.481
  64.360         35.83	     6.557
  64.380         35.00	     6.481
  64.400         38.33	     6.782
  64.420         45.83	     7.416
  64.440         29.17	     5.916
  64.460         31.67	     6.164
  64.480         41.67	     7.071
  64.500         42.50	     7.141
  64.520         35.83	     6.557
  64.540         43.33	     7.211
  64.560         39.17	     6.856
  64.580         45.00	     7.348
  64.600         56.67	     8.246
  64.620         65.83	     8.888
  64.640         48.33	     7.616
  64.660         46.67	     7.483
  64.680         39.17	     6.856
  64.700         54.17	     8.062
  64.720         40.00	     6.928
  64.740         48.33	     7.616
  64.760         40.00	     6.928
  64.780         46.67	     7.483
  64.800         43.33	     7.211
  64.820         35.83	     6.557
  64.840         42.50	     7.141
  64.860         38.33	     6.782
  64.880         37.50	     6.708
  64.900         42.50	     7.141
  64.920         40.00	     6.928
  64.940         39.17	     6.856
  64.960         41.67	     7.071
  64.980         32.50	     6.245
  65.000         32.50	     6.245
