
Filename:
	C:\Program Files\Thermo Electron\WinXRD\Datafiles\F_HERMAN\FIEN\4_1_AUG_P_RT.raw

File Created:
	January 24, 2019 - 12:54 PM

Specimen Id:
	4.1 AUG P FT

Specimen Name:
	

Specimen Description:
	

Comment:
Scan Type: 2Theta Scan
Start Angle: 1 deg.
Stop Angle: 65 deg.
Num Points: 3201
Step Size: 0.02 deg.
Scan Rate: 1.000000
Scan Mode: Continuous
Wavelength: 1.540562
\Kalpha1: 1.540562	\Kalpha2: 1.544390	\Kbeta: 1.392218

Optics:
		Detector:
			 Type: Fixed Slits
		Tube: 
			 Type: Fixed Slits


Datas:
 Pos [deg]       Rate [CPS]      ESD [-]

Range 1 ---> Iteration 1
   1.000       1040.00	    35.327
   1.020        806.67	    31.113
   1.040        623.33	    27.350
   1.060        516.67	    24.900
   1.080        565.00	    26.038
   1.100        600.00	    26.833
   1.120        525.00	    25.100
   1.140        493.33	    24.331
   1.160        420.83	    22.472
   1.180        402.50	    21.977
   1.200        412.50	    22.249
   1.220        425.83	    22.605
   1.240        373.33	    21.166
   1.260        392.50	    21.703
   1.280        498.33	    24.454
   1.300        545.83	    25.593
   1.320        764.17	    30.282
   1.340        834.17	    31.639
   1.360        969.17	    34.103
   1.380       1345.83	    40.187
   1.400       1335.83	    40.037
   1.420       1400.83	    41.000
   1.440       1370.00	    40.546
   1.460       1330.83	    39.962
   1.480       1240.83	    38.588
   1.500       1209.17	    38.092
   1.520       1235.00	    38.497
   1.540       1210.83	    38.118
   1.560       1070.00	    35.833
   1.580       1091.67	    36.194
   1.600       1120.00	    36.661
   1.620       1006.67	    34.756
   1.640        953.33	    33.823
   1.660        893.33	    32.741
   1.680        803.33	    31.048
   1.700        794.17	    30.871
   1.720        763.33	    30.265
   1.740        702.50	    29.034
   1.760        647.50	    27.875
   1.780        634.17	    27.586
   1.800        585.00	    26.495
   1.820        574.17	    26.249
   1.840        530.83	    25.239
   1.860        499.17	    24.474
   1.880        525.83	    25.120
   1.900        504.17	    24.597
   1.920        488.33	    24.207
   1.940        445.83	    23.130
   1.960        462.50	    23.558
   1.980        463.33	    23.580
   2.000        425.00	    22.583
   2.020        417.50	    22.383
   2.040        452.50	    23.302
   2.060        445.83	    23.130
   2.080        425.83	    22.605
   2.100        383.33	    21.448
   2.120        436.67	    22.891
   2.140        422.50	    22.517
   2.160        394.17	    21.749
   2.180        400.00	    21.909
   2.200        415.00	    22.316
   2.220        361.67	    20.833
   2.240        393.33	    21.726
   2.260        360.83	    20.809
   2.280        354.17	    20.616
   2.300        346.67	    20.396
   2.320        351.67	    20.543
   2.340        323.33	    19.698
   2.360        355.83	    20.664
   2.380        361.67	    20.833
   2.400        330.00	    19.900
   2.420        335.00	    20.050
   2.440        343.33	    20.298
   2.460        330.00	    19.900
   2.480        306.67	    19.183
   2.500        320.00	    19.596
   2.520        324.17	    19.723
   2.540        309.17	    19.261
   2.560        284.17	    18.466
   2.580        266.67	    17.889
   2.600        306.67	    19.183
   2.620        308.33	    19.235
   2.640        297.50	    18.894
   2.660        301.67	    19.026
   2.680        290.00	    18.655
   2.700        277.50	    18.248
   2.720        285.83	    18.520
   2.740        279.17	    18.303
   2.760        282.50	    18.412
   2.780        280.00	    18.330
   2.800        280.00	    18.330
   2.820        286.67	    18.547
   2.840        275.83	    18.193
   2.860        266.67	    17.889
   2.880        253.33	    17.436
   2.900        281.67	    18.385
   2.920        271.67	    18.055
   2.940        246.67	    17.205
   2.960        264.17	    17.804
   2.980        261.67	    17.720
   3.000        277.50	    18.248
   3.020        231.67	    16.673
   3.040        260.83	    17.692
   3.060        244.17	    17.117
   3.080        250.83	    17.349
   3.100        256.67	    17.550
   3.120        244.17	    17.117
   3.140        236.67	    16.852
   3.160        241.67	    17.029
   3.180        237.50	    16.882
   3.200        267.50	    17.916
   3.220        224.17	    16.401
   3.240        259.17	    17.635
   3.260        215.83	    16.093
   3.280        220.83	    16.279
   3.300        235.83	    16.823
   3.320        233.33	    16.733
   3.340        207.50	    15.780
   3.360        230.83	    16.643
   3.380        227.50	    16.523
   3.400        222.50	    16.340
   3.420        225.00	    16.432
   3.440        206.67	    15.748
   3.460        216.67	    16.125
   3.480        204.17	    15.652
   3.500        220.00	    16.248
   3.520        234.17	    16.763
   3.540        224.17	    16.401
   3.560        196.67	    15.362
   3.580        229.17	    16.583
   3.600        226.67	    16.492
   3.620        210.00	    15.875
   3.640        232.50	    16.703
   3.660        207.50	    15.780
   3.680        204.17	    15.652
   3.700        210.83	    15.906
   3.720        222.50	    16.340
   3.740        216.67	    16.125
   3.760        202.50	    15.588
   3.780        213.33	    16.000
   3.800        180.83	    14.731
   3.820        202.50	    15.588
   3.840        204.17	    15.652
   3.860        178.33	    14.629
   3.880        185.00	    14.900
   3.900        173.33	    14.422
   3.920        196.67	    15.362
   3.940        188.33	    15.033
   3.960        187.50	    15.000
   3.980        174.17	    14.457
   4.000        190.00	    15.100
   4.020        189.17	    15.067
   4.040        199.17	    15.460
   4.060        160.00	    13.856
   4.080        156.67	    13.711
   4.100        180.83	    14.731
   4.120        166.67	    14.142
   4.140        169.17	    14.248
   4.160        195.00	    15.297
   4.180        160.00	    13.856
   4.200        173.33	    14.422
   4.220        174.17	    14.457
   4.240        206.67	    15.748
   4.260        172.50	    14.387
   4.280        179.17	    14.663
   4.300        172.50	    14.387
   4.320        161.67	    13.928
   4.340        167.50	    14.177
   4.360        173.33	    14.422
   4.380        150.00	    13.416
   4.400        154.17	    13.601
   4.420        155.83	    13.675
   4.440        176.67	    14.560
   4.460        177.50	    14.595
   4.480        147.50	    13.304
   4.500        155.83	    13.675
   4.520        160.00	    13.856
   4.540        180.83	    14.731
   4.560        165.00	    14.071
   4.580        162.50	    13.964
   4.600        158.33	    13.784
   4.620        157.50	    13.748
   4.640        149.17	    13.379
   4.660        163.33	    14.000
   4.680        140.00	    12.961
   4.700        180.00	    14.697
   4.720        151.67	    13.491
   4.740        160.00	    13.856
   4.760        134.17	    12.689
   4.780        154.17	    13.601
   4.800        175.83	    14.526
   4.820        149.17	    13.379
   4.840        149.17	    13.379
   4.860        163.33	    14.000
   4.880        130.00	    12.490
   4.900        147.50	    13.304
   4.920        153.33	    13.565
   4.940        160.83	    13.892
   4.960        141.67	    13.038
   4.980        152.50	    13.528
   5.000        144.17	    13.153
   5.020        139.17	    12.923
   5.040        155.83	    13.675
   5.060        164.17	    14.036
   5.080        144.17	    13.153
   5.100        137.50	    12.845
   5.120        130.00	    12.490
   5.140        116.67	    11.832
   5.160        132.50	    12.610
   5.180        140.83	    13.000
   5.200        151.67	    13.491
   5.220        129.17	    12.450
   5.240        125.83	    12.288
   5.260        160.00	    13.856
   5.280        141.67	    13.038
   5.300        130.00	    12.490
   5.320        125.00	    12.247
   5.340        149.17	    13.379
   5.360        138.33	    12.884
   5.380        147.50	    13.304
   5.400        138.33	    12.884
   5.420        122.50	    12.124
   5.440        142.50	    13.077
   5.460        116.67	    11.832
   5.480        134.17	    12.689
   5.500        127.50	    12.369
   5.520        144.17	    13.153
   5.540        147.50	    13.304
   5.560        136.67	    12.806
   5.580        138.33	    12.884
   5.600        137.50	    12.845
   5.620        113.33	    11.662
   5.640        133.33	    12.649
   5.660        135.00	    12.728
   5.680        130.00	    12.490
   5.700        132.50	    12.610
   5.720        119.17	    11.958
   5.740        111.67	    11.576
   5.760        120.00	    12.000
   5.780        133.33	    12.649
   5.800        126.67	    12.329
   5.820        109.17	    11.446
   5.840        120.00	    12.000
   5.860        140.00	    12.961
   5.880        141.67	    13.038
   5.900        119.17	    11.958
   5.920        125.83	    12.288
   5.940        148.33	    13.342
   5.960        116.67	    11.832
   5.980        115.00	    11.747
   6.000        135.83	    12.767
   6.020        135.00	    12.728
   6.040        129.17	    12.450
   6.060        120.00	    12.000
   6.080        136.67	    12.806
   6.100        121.67	    12.083
   6.120        123.33	    12.166
   6.140        130.00	    12.490
   6.160        145.00	    13.191
   6.180        139.17	    12.923
   6.200        155.83	    13.675
   6.220        159.17	    13.820
   6.240        147.50	    13.304
   6.260        142.50	    13.077
   6.280        108.33	    11.402
   6.300        135.00	    12.728
   6.320        120.83	    12.042
   6.340        111.67	    11.576
   6.360        107.50	    11.358
   6.380        114.17	    11.705
   6.400         99.17	    10.909
   6.420        110.83	    11.533
   6.440        119.17	    11.958
   6.460        121.67	    12.083
   6.480        112.50	    11.619
   6.500        117.50	    11.874
   6.520        115.00	    11.747
   6.540        103.33	    11.136
   6.560        125.00	    12.247
   6.580        108.33	    11.402
   6.600        125.00	    12.247
   6.620        108.33	    11.402
   6.640        114.17	    11.705
   6.660        112.50	    11.619
   6.680        105.83	    11.269
   6.700        112.50	    11.619
   6.720        112.50	    11.619
   6.740         97.50	    10.817
   6.760        107.50	    11.358
   6.780        105.83	    11.269
   6.800        119.17	    11.958
   6.820         94.17	    10.630
   6.840        101.67	    11.045
   6.860        100.00	    10.954
   6.880         86.67	    10.198
   6.900        113.33	    11.662
   6.920        115.83	    11.790
   6.940        112.50	    11.619
   6.960        111.67	    11.576
   6.980        111.67	    11.576
   7.000        108.33	    11.402
   7.020        131.67	    12.570
   7.040         92.50	    10.536
   7.060        114.17	    11.705
   7.080         85.00	    10.100
   7.100        109.17	    11.446
   7.120        115.83	    11.790
   7.140        103.33	    11.136
   7.160        105.83	    11.269
   7.180         95.83	    10.724
   7.200        104.17	    11.180
   7.220         97.50	    10.817
   7.240         97.50	    10.817
   7.260         97.50	    10.817
   7.280         87.50	    10.247
   7.300        109.17	    11.446
   7.320        112.50	    11.619
   7.340        108.33	    11.402
   7.360         94.17	    10.630
   7.380         90.00	    10.392
   7.400         95.00	    10.677
   7.420         98.33	    10.863
   7.440        104.17	    11.180
   7.460        107.50	    11.358
   7.480        118.33	    11.916
   7.500         99.17	    10.909
   7.520         97.50	    10.817
   7.540         77.50	     9.644
   7.560         93.33	    10.583
   7.580         95.83	    10.724
   7.600        113.33	    11.662
   7.620        116.67	    11.832
   7.640        112.50	    11.619
   7.660        112.50	    11.619
   7.680        103.33	    11.136
   7.700         99.17	    10.909
   7.720         95.00	    10.677
   7.740         92.50	    10.536
   7.760         95.83	    10.724
   7.780        101.67	    11.045
   7.800        115.83	    11.790
   7.820        105.00	    11.225
   7.840         83.33	    10.000
   7.860        100.00	    10.954
   7.880        100.00	    10.954
   7.900         91.67	    10.488
   7.920         93.33	    10.583
   7.940        101.67	    11.045
   7.960         98.33	    10.863
   7.980         97.50	    10.817
   8.000         80.83	     9.849
   8.020         95.83	    10.724
   8.040         95.00	    10.677
   8.060        102.50	    11.091
   8.080         88.33	    10.296
   8.100         94.17	    10.630
   8.120         88.33	    10.296
   8.140         94.17	    10.630
   8.160         99.17	    10.909
   8.180         90.00	    10.392
   8.200         87.50	    10.247
   8.220         87.50	    10.247
   8.240         85.00	    10.100
   8.260         95.00	    10.677
   8.280        104.17	    11.180
   8.300        106.67	    11.314
   8.320         91.67	    10.488
   8.340         91.67	    10.488
   8.360         85.00	    10.100
   8.380         88.33	    10.296
   8.400        105.00	    11.225
   8.420        100.00	    10.954
   8.440         86.67	    10.198
   8.460         87.50	    10.247
   8.480         95.00	    10.677
   8.500         98.33	    10.863
   8.520        112.50	    11.619
   8.540        112.50	    11.619
   8.560        100.00	    10.954
   8.580         85.00	    10.100
   8.600        100.83	    11.000
   8.620        105.00	    11.225
   8.640        104.17	    11.180
   8.660        114.17	    11.705
   8.680        109.17	    11.446
   8.700         99.17	    10.909
   8.720        110.00	    11.489
   8.740        113.33	    11.662
   8.760        145.83	    13.229
   8.780        145.83	    13.229
   8.800        136.67	    12.806
   8.820        167.50	    14.177
   8.840        285.83	    18.520
   8.860        434.17	    22.825
   8.880        505.00	    24.617
   8.900        367.50	    21.000
   8.920        205.00	    15.684
   8.940        143.33	    13.115
   8.960        110.00	    11.489
   8.980        105.83	    11.269
   9.000        104.17	    11.180
   9.020        101.67	    11.045
   9.040        110.83	    11.533
   9.060        109.17	    11.446
   9.080        106.67	    11.314
   9.100         90.83	    10.440
   9.120         95.00	    10.677
   9.140         88.33	    10.296
   9.160         93.33	    10.583
   9.180         95.00	    10.677
   9.200         95.00	    10.677
   9.220         81.67	     9.899
   9.240         87.50	    10.247
   9.260         85.83	    10.149
   9.280         96.67	    10.770
   9.300         92.50	    10.536
   9.320         83.33	    10.000
   9.340         87.50	    10.247
   9.360         94.17	    10.630
   9.380         95.00	    10.677
   9.400        116.67	    11.832
   9.420         84.17	    10.050
   9.440        104.17	    11.180
   9.460         94.17	    10.630
   9.480         84.17	    10.050
   9.500         84.17	    10.050
   9.520         76.67	     9.592
   9.540         80.00	     9.798
   9.560         78.33	     9.695
   9.580        115.83	    11.790
   9.600         94.17	    10.630
   9.620         85.00	    10.100
   9.640         73.33	     9.381
   9.660         80.00	     9.798
   9.680         98.33	    10.863
   9.700         85.83	    10.149
   9.720        105.83	    11.269
   9.740         89.17	    10.344
   9.760         83.33	    10.000
   9.780         75.00	     9.487
   9.800         85.00	    10.100
   9.820         84.17	    10.050
   9.840         81.67	     9.899
   9.860         83.33	    10.000
   9.880         90.00	    10.392
   9.900         75.83	     9.539
   9.920         92.50	    10.536
   9.940         80.00	     9.798
   9.960         88.33	    10.296
   9.980         80.00	     9.798
  10.000         86.67	    10.198
  10.020         64.17	     8.775
  10.040         89.17	    10.344
  10.060         86.67	    10.198
  10.080         89.17	    10.344
  10.100         73.33	     9.381
  10.120         81.67	     9.899
  10.140         78.33	     9.695
  10.160         89.17	    10.344
  10.180         78.33	     9.695
  10.200         88.33	    10.296
  10.220         82.50	     9.950
  10.240         82.50	     9.950
  10.260         83.33	    10.000
  10.280         92.50	    10.536
  10.300         94.17	    10.630
  10.320         81.67	     9.899
  10.340         75.83	     9.539
  10.360         80.00	     9.798
  10.380         80.83	     9.849
  10.400        100.83	    11.000
  10.420        108.33	    11.402
  10.440        162.50	    13.964
  10.460        259.17	    17.635
  10.480        306.67	    19.183
  10.500        273.33	    18.111
  10.520        165.83	    14.107
  10.540        118.33	    11.916
  10.560         91.67	    10.488
  10.580         80.00	     9.798
  10.600         97.50	    10.817
  10.620         88.33	    10.296
  10.640         71.67	     9.274
  10.660         80.83	     9.849
  10.680         80.00	     9.798
  10.700         85.83	    10.149
  10.720         82.50	     9.950
  10.740         69.17	     9.110
  10.760         90.83	    10.440
  10.780         90.83	    10.440
  10.800         68.33	     9.055
  10.820         75.83	     9.539
  10.840         85.00	    10.100
  10.860         77.50	     9.644
  10.880         73.33	     9.381
  10.900         92.50	    10.536
  10.920         83.33	    10.000
  10.940         83.33	    10.000
  10.960         81.67	     9.899
  10.980         84.17	    10.050
  11.000         94.17	    10.630
  11.020         85.83	    10.149
  11.040         97.50	    10.817
  11.060         72.50	     9.327
  11.080         64.17	     8.775
  11.100         85.00	    10.100
  11.120         75.00	     9.487
  11.140         72.50	     9.327
  11.160         71.67	     9.274
  11.180         76.67	     9.592
  11.200         70.00	     9.165
  11.220         88.33	    10.296
  11.240         65.00	     8.832
  11.260         73.33	     9.381
  11.280         93.33	    10.583
  11.300         85.83	    10.149
  11.320         83.33	    10.000
  11.340         76.67	     9.592
  11.360         92.50	    10.536
  11.380         65.00	     8.832
  11.400         78.33	     9.695
  11.420         81.67	     9.899
  11.440         77.50	     9.644
  11.460         80.00	     9.798
  11.480         89.17	    10.344
  11.500         70.00	     9.165
  11.520         80.83	     9.849
  11.540         75.00	     9.487
  11.560         67.50	     9.000
  11.580         75.83	     9.539
  11.600         94.17	    10.630
  11.620         87.50	    10.247
  11.640         78.33	     9.695
  11.660         70.83	     9.220
  11.680         75.00	     9.487
  11.700         80.00	     9.798
  11.720         68.33	     9.055
  11.740         83.33	    10.000
  11.760         77.50	     9.644
  11.780         84.17	    10.050
  11.800         76.67	     9.592
  11.820         80.00	     9.798
  11.840         87.50	    10.247
  11.860         88.33	    10.296
  11.880         74.17	     9.434
  11.900         85.00	    10.100
  11.920         70.83	     9.220
  11.940         87.50	    10.247
  11.960         83.33	    10.000
  11.980         66.67	     8.944
  12.000         70.83	     9.220
  12.020         72.50	     9.327
  12.040         60.00	     8.485
  12.060         90.83	    10.440
  12.080         98.33	    10.863
  12.100         83.33	    10.000
  12.120        103.33	    11.136
  12.140        114.17	    11.705
  12.160        126.67	    12.329
  12.180        134.17	    12.689
  12.200        115.00	    11.747
  12.220        110.83	    11.533
  12.240         94.17	    10.630
  12.260         95.00	    10.677
  12.280        100.83	    11.000
  12.300        103.33	    11.136
  12.320        113.33	    11.662
  12.340        123.33	    12.166
  12.360         99.17	    10.909
  12.380         87.50	    10.247
  12.400         96.67	    10.770
  12.420         90.83	    10.440
  12.440        119.17	    11.958
  12.460        120.83	    12.042
  12.480        137.50	    12.845
  12.500        145.00	    13.191
  12.520         96.67	    10.770
  12.540        101.67	    11.045
  12.560         79.17	     9.747
  12.580         93.33	    10.583
  12.600         65.00	     8.832
  12.620         80.00	     9.798
  12.640         90.00	    10.392
  12.660         76.67	     9.592
  12.680         97.50	    10.817
  12.700         77.50	     9.644
  12.720         90.00	    10.392
  12.740         67.50	     9.000
  12.760         76.67	     9.592
  12.780         72.50	     9.327
  12.800         68.33	     9.055
  12.820         75.83	     9.539
  12.840         84.17	    10.050
  12.860         86.67	    10.198
  12.880         80.83	     9.849
  12.900         84.17	    10.050
  12.920         69.17	     9.110
  12.940         68.33	     9.055
  12.960         62.50	     8.660
  12.980         82.50	     9.950
  13.000         67.50	     9.000
  13.020         75.00	     9.487
  13.040         76.67	     9.592
  13.060         63.33	     8.718
  13.080         72.50	     9.327
  13.100         65.83	     8.888
  13.120         70.83	     9.220
  13.140         75.83	     9.539
  13.160         75.00	     9.487
  13.180         84.17	    10.050
  13.200         71.67	     9.274
  13.220         75.00	     9.487
  13.240         76.67	     9.592
  13.260         72.50	     9.327
  13.280         67.50	     9.000
  13.300         76.67	     9.592
  13.320         70.00	     9.165
  13.340         88.33	    10.296
  13.360         97.50	    10.817
  13.380         85.00	    10.100
  13.400         55.00	     8.124
  13.420         70.83	     9.220
  13.440         75.00	     9.487
  13.460         62.50	     8.660
  13.480         78.33	     9.695
  13.500         67.50	     9.000
  13.520         76.67	     9.592
  13.540         71.67	     9.274
  13.560         75.00	     9.487
  13.580         80.83	     9.849
  13.600         85.83	    10.149
  13.620         91.67	    10.488
  13.640         97.50	    10.817
  13.660         75.83	     9.539
  13.680         81.67	     9.899
  13.700         85.00	    10.100
  13.720         84.17	    10.050
  13.740         64.17	     8.775
  13.760         75.00	     9.487
  13.780         70.83	     9.220
  13.800        108.33	    11.402
  13.820         94.17	    10.630
  13.840         99.17	    10.909
  13.860         85.00	    10.100
  13.880         81.67	     9.899
  13.900         75.00	     9.487
  13.920         70.00	     9.165
  13.940         77.50	     9.644
  13.960         70.83	     9.220
  13.980         81.67	     9.899
  14.000         80.83	     9.849
  14.020         85.83	    10.149
  14.040         63.33	     8.718
  14.060         73.33	     9.381
  14.080         70.83	     9.220
  14.100         67.50	     9.000
  14.120         71.67	     9.274
  14.140         64.17	     8.775
  14.160         60.00	     8.485
  14.180         80.00	     9.798
  14.200         60.83	     8.544
  14.220         87.50	    10.247
  14.240         71.67	     9.274
  14.260         63.33	     8.718
  14.280         73.33	     9.381
  14.300         75.00	     9.487
  14.320         84.17	    10.050
  14.340         67.50	     9.000
  14.360         73.33	     9.381
  14.380         74.17	     9.434
  14.400         59.17	     8.426
  14.420         75.83	     9.539
  14.440         63.33	     8.718
  14.460         78.33	     9.695
  14.480         67.50	     9.000
  14.500         61.67	     8.602
  14.520         78.33	     9.695
  14.540         70.83	     9.220
  14.560         59.17	     8.426
  14.580         77.50	     9.644
  14.600         55.00	     8.124
  14.620         61.67	     8.602
  14.640         75.00	     9.487
  14.660         69.17	     9.110
  14.680         65.83	     8.888
  14.700         60.00	     8.485
  14.720         74.17	     9.434
  14.740         80.00	     9.798
  14.760         74.17	     9.434
  14.780         63.33	     8.718
  14.800         79.17	     9.747
  14.820         76.67	     9.592
  14.840         89.17	    10.344
  14.860         65.83	     8.888
  14.880         53.33	     8.000
  14.900         70.83	     9.220
  14.920         76.67	     9.592
  14.940         64.17	     8.775
  14.960         86.67	    10.198
  14.980         76.67	     9.592
  15.000         77.50	     9.644
  15.020         77.50	     9.644
  15.040         71.67	     9.274
  15.060         71.67	     9.274
  15.080         82.50	     9.950
  15.100         72.50	     9.327
  15.120         70.00	     9.165
  15.140         80.83	     9.849
  15.160         91.67	    10.488
  15.180         74.17	     9.434
  15.200         72.50	     9.327
  15.220         67.50	     9.000
  15.240         80.00	     9.798
  15.260         65.00	     8.832
  15.280         68.33	     9.055
  15.300         70.83	     9.220
  15.320         58.33	     8.367
  15.340         75.83	     9.539
  15.360         77.50	     9.644
  15.380         66.67	     8.944
  15.400         58.33	     8.367
  15.420         61.67	     8.602
  15.440         70.83	     9.220
  15.460         58.33	     8.367
  15.480         66.67	     8.944
  15.500         69.17	     9.110
  15.520         68.33	     9.055
  15.540         75.83	     9.539
  15.560         83.33	    10.000
  15.580         70.00	     9.165
  15.600         60.00	     8.485
  15.620         69.17	     9.110
  15.640         73.33	     9.381
  15.660         70.00	     9.165
  15.680         70.83	     9.220
  15.700         57.50	     8.307
  15.720         65.00	     8.832
  15.740         55.00	     8.124
  15.760         82.50	     9.950
  15.780         75.83	     9.539
  15.800         73.33	     9.381
  15.820         79.17	     9.747
  15.840         66.67	     8.944
  15.860         79.17	     9.747
  15.880         69.17	     9.110
  15.900         66.67	     8.944
  15.920         65.83	     8.888
  15.940         65.00	     8.832
  15.960         56.67	     8.246
  15.980         65.83	     8.888
  16.000         74.17	     9.434
  16.020         65.00	     8.832
  16.040         68.33	     9.055
  16.060         74.17	     9.434
  16.080         85.00	    10.100
  16.100         72.50	     9.327
  16.120         81.67	     9.899
  16.140         59.17	     8.426
  16.160         59.17	     8.426
  16.180         78.33	     9.695
  16.200         56.67	     8.246
  16.220         68.33	     9.055
  16.240         68.33	     9.055
  16.260         72.50	     9.327
  16.280         65.83	     8.888
  16.300         80.83	     9.849
  16.320         70.83	     9.220
  16.340         60.00	     8.485
  16.360         56.67	     8.246
  16.380         60.00	     8.485
  16.400         54.17	     8.062
  16.420         60.00	     8.485
  16.440         73.33	     9.381
  16.460         67.50	     9.000
  16.480         65.83	     8.888
  16.500         51.67	     7.874
  16.520         63.33	     8.718
  16.540         81.67	     9.899
  16.560         63.33	     8.718
  16.580         67.50	     9.000
  16.600         69.17	     9.110
  16.620         57.50	     8.307
  16.640         55.00	     8.124
  16.660         63.33	     8.718
  16.680         58.33	     8.367
  16.700         58.33	     8.367
  16.720         64.17	     8.775
  16.740         53.33	     8.000
  16.760         64.17	     8.775
  16.780         61.67	     8.602
  16.800         60.83	     8.544
  16.820         59.17	     8.426
  16.840         61.67	     8.602
  16.860         67.50	     9.000
  16.880         64.17	     8.775
  16.900         70.00	     9.165
  16.920         68.33	     9.055
  16.940         60.83	     8.544
  16.960         56.67	     8.246
  16.980         57.50	     8.307
  17.000         64.17	     8.775
  17.020         58.33	     8.367
  17.040         66.67	     8.944
  17.060         66.67	     8.944
  17.080         67.50	     9.000
  17.100         75.00	     9.487
  17.120         67.50	     9.000
  17.140         52.50	     7.937
  17.160         60.00	     8.485
  17.180         67.50	     9.000
  17.200         61.67	     8.602
  17.220         63.33	     8.718
  17.240         55.00	     8.124
  17.260         69.17	     9.110
  17.280         59.17	     8.426
  17.300         65.83	     8.888
  17.320         55.00	     8.124
  17.340         63.33	     8.718
  17.360         65.00	     8.832
  17.380         64.17	     8.775
  17.400         50.83	     7.810
  17.420         60.00	     8.485
  17.440         81.67	     9.899
  17.460         63.33	     8.718
  17.480         53.33	     8.000
  17.500         66.67	     8.944
  17.520         68.33	     9.055
  17.540         67.50	     9.000
  17.560         69.17	     9.110
  17.580         65.83	     8.888
  17.600         64.17	     8.775
  17.620         68.33	     9.055
  17.640         92.50	    10.536
  17.660         89.17	    10.344
  17.680         95.83	    10.724
  17.700         88.33	    10.296
  17.720         95.00	    10.677
  17.740         92.50	    10.536
  17.760         95.00	    10.677
  17.780        157.50	    13.748
  17.800        220.00	    16.248
  17.820        231.67	    16.673
  17.840        225.83	    16.462
  17.860        181.67	    14.765
  17.880        115.00	    11.747
  17.900        104.17	    11.180
  17.920         79.17	     9.747
  17.940         60.00	     8.485
  17.960         60.00	     8.485
  17.980         59.17	     8.426
  18.000         57.50	     8.307
  18.020         65.83	     8.888
  18.040         58.33	     8.367
  18.060         66.67	     8.944
  18.080         60.83	     8.544
  18.100         52.50	     7.937
  18.120         55.00	     8.124
  18.140         62.50	     8.660
  18.160         75.83	     9.539
  18.180         64.17	     8.775
  18.200         65.83	     8.888
  18.220         53.33	     8.000
  18.240         71.67	     9.274
  18.260         53.33	     8.000
  18.280         65.83	     8.888
  18.300         75.00	     9.487
  18.320         65.83	     8.888
  18.340         62.50	     8.660
  18.360         55.00	     8.124
  18.380         75.00	     9.487
  18.400         63.33	     8.718
  18.420         58.33	     8.367
  18.440         72.50	     9.327
  18.460         67.50	     9.000
  18.480         65.00	     8.832
  18.500         63.33	     8.718
  18.520         83.33	    10.000
  18.540         74.17	     9.434
  18.560         85.00	    10.100
  18.580         72.50	     9.327
  18.600         80.83	     9.849
  18.620         61.67	     8.602
  18.640         55.83	     8.185
  18.660         67.50	     9.000
  18.680         70.00	     9.165
  18.700         73.33	     9.381
  18.720         75.00	     9.487
  18.740         95.00	    10.677
  18.760         95.00	    10.677
  18.780        106.67	    11.314
  18.800         79.17	     9.747
  18.820         90.00	    10.392
  18.840         85.00	    10.100
  18.860         80.83	     9.849
  18.880         72.50	     9.327
  18.900         65.83	     8.888
  18.920         58.33	     8.367
  18.940         64.17	     8.775
  18.960         71.67	     9.274
  18.980         65.83	     8.888
  19.000         60.83	     8.544
  19.020         60.00	     8.485
  19.040         69.17	     9.110
  19.060         61.67	     8.602
  19.080         55.00	     8.124
  19.100         53.33	     8.000
  19.120         62.50	     8.660
  19.140         66.67	     8.944
  19.160         65.00	     8.832
  19.180         66.67	     8.944
  19.200         67.50	     9.000
  19.220         54.17	     8.062
  19.240         80.00	     9.798
  19.260         69.17	     9.110
  19.280         57.50	     8.307
  19.300         57.50	     8.307
  19.320         69.17	     9.110
  19.340         70.00	     9.165
  19.360         54.17	     8.062
  19.380         55.83	     8.185
  19.400         55.00	     8.124
  19.420         60.83	     8.544
  19.440         59.17	     8.426
  19.460         65.83	     8.888
  19.480         68.33	     9.055
  19.500         49.17	     7.681
  19.520         66.67	     8.944
  19.540         61.67	     8.602
  19.560         64.17	     8.775
  19.580         61.67	     8.602
  19.600         72.50	     9.327
  19.620         70.00	     9.165
  19.640         61.67	     8.602
  19.660         61.67	     8.602
  19.680         84.17	    10.050
  19.700         59.17	     8.426
  19.720         60.83	     8.544
  19.740         75.00	     9.487
  19.760         63.33	     8.718
  19.780         73.33	     9.381
  19.800         82.50	     9.950
  19.820         95.83	    10.724
  19.840         78.33	     9.695
  19.860         75.00	     9.487
  19.880         65.83	     8.888
  19.900         75.00	     9.487
  19.920         82.50	     9.950
  19.940         64.17	     8.775
  19.960         76.67	     9.592
  19.980         77.50	     9.644
  20.000         61.67	     8.602
  20.020         61.67	     8.602
  20.040         60.00	     8.485
  20.060         63.33	     8.718
  20.080         59.17	     8.426
  20.100         59.17	     8.426
  20.120         60.00	     8.485
  20.140         65.00	     8.832
  20.160         75.00	     9.487
  20.180         68.33	     9.055
  20.200         59.17	     8.426
  20.220         56.67	     8.246
  20.240         50.83	     7.810
  20.260         61.67	     8.602
  20.280         61.67	     8.602
  20.300         49.17	     7.681
  20.320         76.67	     9.592
  20.340         60.00	     8.485
  20.360         66.67	     8.944
  20.380         51.67	     7.874
  20.400         65.83	     8.888
  20.420         55.83	     8.185
  20.440         65.00	     8.832
  20.460         43.33	     7.211
  20.480         53.33	     8.000
  20.500         65.83	     8.888
  20.520         59.17	     8.426
  20.540         72.50	     9.327
  20.560         65.83	     8.888
  20.580         61.67	     8.602
  20.600         66.67	     8.944
  20.620         70.83	     9.220
  20.640         61.67	     8.602
  20.660         79.17	     9.747
  20.680         62.50	     8.660
  20.700         60.83	     8.544
  20.720         66.67	     8.944
  20.740         78.33	     9.695
  20.760        115.00	    11.747
  20.780        170.83	    14.318
  20.800        266.67	    17.889
  20.820        426.67	    22.627
  20.840        470.83	    23.770
  20.860        455.83	    23.388
  20.880        355.83	    20.664
  20.900        274.17	    18.138
  20.920        188.33	    15.033
  20.940        130.00	    12.490
  20.960         88.33	    10.296
  20.980         91.67	    10.488
  21.000        103.33	    11.136
  21.020         90.83	    10.440
  21.040         82.50	     9.950
  21.060         73.33	     9.381
  21.080         65.83	     8.888
  21.100         70.00	     9.165
  21.120         54.17	     8.062
  21.140         57.50	     8.307
  21.160         54.17	     8.062
  21.180         62.50	     8.660
  21.200         54.17	     8.062
  21.220         60.00	     8.485
  21.240         60.00	     8.485
  21.260         65.00	     8.832
  21.280         50.83	     7.810
  21.300         56.67	     8.246
  21.320         55.83	     8.185
  21.340         57.50	     8.307
  21.360         54.17	     8.062
  21.380         48.33	     7.616
  21.400         63.33	     8.718
  21.420         50.83	     7.810
  21.440         53.33	     8.000
  21.460         57.50	     8.307
  21.480         49.17	     7.681
  21.500         55.00	     8.124
  21.520         54.17	     8.062
  21.540         59.17	     8.426
  21.560         58.33	     8.367
  21.580         61.67	     8.602
  21.600         50.00	     7.746
  21.620         60.83	     8.544
  21.640         53.33	     8.000
  21.660         59.17	     8.426
  21.680         50.83	     7.810
  21.700         47.50	     7.550
  21.720         59.17	     8.426
  21.740         60.83	     8.544
  21.760         58.33	     8.367
  21.780         52.50	     7.937
  21.800         55.83	     8.185
  21.820         55.83	     8.185
  21.840         62.50	     8.660
  21.860         60.00	     8.485
  21.880         58.33	     8.367
  21.900         65.00	     8.832
  21.920         47.50	     7.550
  21.940         60.83	     8.544
  21.960         80.83	     9.849
  21.980        108.33	    11.402
  22.000        118.33	    11.916
  22.020        171.67	    14.353
  22.040        211.67	    15.937
  22.060        197.50	    15.395
  22.080        132.50	    12.610
  22.100        129.17	    12.450
  22.120         97.50	    10.817
  22.140         61.67	     8.602
  22.160         54.17	     8.062
  22.180         58.33	     8.367
  22.200         61.67	     8.602
  22.220         57.50	     8.307
  22.240         56.67	     8.246
  22.260         47.50	     7.550
  22.280         62.50	     8.660
  22.300         60.83	     8.544
  22.320         51.67	     7.874
  22.340         64.17	     8.775
  22.360         46.67	     7.483
  22.380         58.33	     8.367
  22.400         60.83	     8.544
  22.420         50.00	     7.746
  22.440         60.83	     8.544
  22.460         48.33	     7.616
  22.480         59.17	     8.426
  22.500         64.17	     8.775
  22.520         55.83	     8.185
  22.540         51.67	     7.874
  22.560         52.50	     7.937
  22.580         53.33	     8.000
  22.600         69.17	     9.110
  22.620         67.50	     9.000
  22.640         54.17	     8.062
  22.660         54.17	     8.062
  22.680         58.33	     8.367
  22.700         54.17	     8.062
  22.720         50.83	     7.810
  22.740         40.83	     7.000
  22.760         55.00	     8.124
  22.780         41.67	     7.071
  22.800         54.17	     8.062
  22.820         65.83	     8.888
  22.840         62.50	     8.660
  22.860         63.33	     8.718
  22.880         58.33	     8.367
  22.900         60.00	     8.485
  22.920         65.00	     8.832
  22.940         64.17	     8.775
  22.960         65.83	     8.888
  22.980         52.50	     7.937
  23.000         74.17	     9.434
  23.020         67.50	     9.000
  23.040         71.67	     9.274
  23.060         80.00	     9.798
  23.080         60.83	     8.544
  23.100         55.00	     8.124
  23.120         69.17	     9.110
  23.140         57.50	     8.307
  23.160         58.33	     8.367
  23.180         48.33	     7.616
  23.200         65.00	     8.832
  23.220         46.67	     7.483
  23.240         69.17	     9.110
  23.260         65.83	     8.888
  23.280         62.50	     8.660
  23.300         69.17	     9.110
  23.320         65.83	     8.888
  23.340         67.50	     9.000
  23.360         69.17	     9.110
  23.380         67.50	     9.000
  23.400         75.00	     9.487
  23.420         67.50	     9.000
  23.440         68.33	     9.055
  23.460         78.33	     9.695
  23.480        131.67	    12.570
  23.500        130.83	    12.530
  23.520        135.83	    12.767
  23.540        137.50	    12.845
  23.560        150.00	    13.416
  23.580        120.83	    12.042
  23.600         89.17	    10.344
  23.620         79.17	     9.747
  23.640         67.50	     9.000
  23.660         53.33	     8.000
  23.680         63.33	     8.718
  23.700         83.33	    10.000
  23.720         57.50	     8.307
  23.740         63.33	     8.718
  23.760         70.00	     9.165
  23.780         52.50	     7.937
  23.800         68.33	     9.055
  23.820         71.67	     9.274
  23.840         64.17	     8.775
  23.860         77.50	     9.644
  23.880         71.67	     9.274
  23.900         90.83	    10.440
  23.920         88.33	    10.296
  23.940         73.33	     9.381
  23.960         92.50	    10.536
  23.980         75.83	     9.539
  24.000         87.50	    10.247
  24.020         95.00	    10.677
  24.040         72.50	     9.327
  24.060         55.83	     8.185
  24.080         67.50	     9.000
  24.100         78.33	     9.695
  24.120         68.33	     9.055
  24.140         79.17	     9.747
  24.160         89.17	    10.344
  24.180         89.17	    10.344
  24.200         93.33	    10.583
  24.220         93.33	    10.583
  24.240        105.83	    11.269
  24.260         90.00	    10.392
  24.280         82.50	     9.950
  24.300         89.17	    10.344
  24.320         85.00	    10.100
  24.340         71.67	     9.274
  24.360         68.33	     9.055
  24.380         62.50	     8.660
  24.400         80.00	     9.798
  24.420         60.00	     8.485
  24.440         67.50	     9.000
  24.460         66.67	     8.944
  24.480         67.50	     9.000
  24.500         61.67	     8.602
  24.520        108.33	    11.402
  24.540         96.67	    10.770
  24.560         95.00	    10.677
  24.580         98.33	    10.863
  24.600        110.00	    11.489
  24.620        105.00	    11.225
  24.640         97.50	    10.817
  24.660         91.67	    10.488
  24.680        101.67	    11.045
  24.700         78.33	     9.695
  24.720         59.17	     8.426
  24.740         54.17	     8.062
  24.760         73.33	     9.381
  24.780         70.83	     9.220
  24.800         80.83	     9.849
  24.820         76.67	     9.592
  24.840         81.67	     9.899
  24.860         55.83	     8.185
  24.880         70.83	     9.220
  24.900         60.83	     8.544
  24.920         63.33	     8.718
  24.940         67.50	     9.000
  24.960         41.67	     7.071
  24.980         65.00	     8.832
  25.000         46.67	     7.483
  25.020         74.17	     9.434
  25.040         65.00	     8.832
  25.060         62.50	     8.660
  25.080         81.67	     9.899
  25.100        107.50	    11.358
  25.120        110.00	    11.489
  25.140        112.50	    11.619
  25.160        100.83	    11.000
  25.180        100.00	    10.954
  25.200         97.50	    10.817
  25.220         83.33	    10.000
  25.240         63.33	     8.718
  25.260         61.67	     8.602
  25.280         58.33	     8.367
  25.300         73.33	     9.381
  25.320         85.00	    10.100
  25.340        111.67	    11.576
  25.360        123.33	    12.166
  25.380        120.00	    12.000
  25.400        116.67	    11.832
  25.420         97.50	    10.817
  25.440        107.50	    11.358
  25.460        140.00	    12.961
  25.480        126.67	    12.329
  25.500        125.00	    12.247
  25.520         94.17	    10.630
  25.540        105.00	    11.225
  25.560        100.83	    11.000
  25.580         92.50	    10.536
  25.600         85.00	    10.100
  25.620         85.00	    10.100
  25.640         64.17	     8.775
  25.660         76.67	     9.592
  25.680         66.67	     8.944
  25.700         75.00	     9.487
  25.720         58.33	     8.367
  25.740         64.17	     8.775
  25.760         63.33	     8.718
  25.780         59.17	     8.426
  25.800         56.67	     8.246
  25.820         63.33	     8.718
  25.840         56.67	     8.246
  25.860         55.00	     8.124
  25.880         63.33	     8.718
  25.900         68.33	     9.055
  25.920         58.33	     8.367
  25.940         61.67	     8.602
  25.960         51.67	     7.874
  25.980         59.17	     8.426
  26.000         50.00	     7.746
  26.020         59.17	     8.426
  26.040         65.00	     8.832
  26.060         64.17	     8.775
  26.080         50.83	     7.810
  26.100         55.00	     8.124
  26.120         56.67	     8.246
  26.140         56.67	     8.246
  26.160         53.33	     8.000
  26.180         51.67	     7.874
  26.200         53.33	     8.000
  26.220         64.17	     8.775
  26.240         79.17	     9.747
  26.260         60.83	     8.544
  26.280         74.17	     9.434
  26.300         79.17	     9.747
  26.320         78.33	     9.695
  26.340         87.50	    10.247
  26.360        115.00	    11.747
  26.380        136.67	    12.806
  26.400        135.00	    12.728
  26.420        129.17	    12.450
  26.440        149.17	    13.379
  26.460        180.00	    14.697
  26.480        218.33	    16.186
  26.500        235.00	    16.793
  26.520        312.50	    19.365
  26.540        444.17	    23.087
  26.560        819.17	    31.353
  26.580       1587.50	    43.646
  26.600       2692.50	    56.842
  26.620       3274.17	    62.682
  26.640       2635.00	    56.232
  26.660       1951.67	    48.394
  26.680       1807.50	    46.573
  26.700       1492.50	    42.320
  26.720        835.00	    31.654
  26.740        390.83	    21.656
  26.760        301.67	    19.026
  26.780        272.50	    18.083
  26.800        279.17	    18.303
  26.820        398.33	    21.863
  26.840        680.00	    28.566
  26.860        696.67	    28.914
  26.880        602.50	    26.889
  26.900        546.67	    25.612
  26.920        569.17	    26.134
  26.940        431.67	    22.760
  26.960        281.67	    18.385
  26.980        237.50	    16.882
  27.000        235.83	    16.823
  27.020        284.17	    18.466
  27.040        444.17	    23.087
  27.060        582.50	    26.439
  27.080        562.50	    25.981
  27.100        410.00	    22.181
  27.120        339.17	    20.174
  27.140        317.50	    19.519
  27.160        233.33	    16.733
  27.180        125.83	    12.288
  27.200         78.33	     9.695
  27.220         80.83	     9.849
  27.240         71.67	     9.274
  27.260         85.83	    10.149
  27.280         74.17	     9.434
  27.300         74.17	     9.434
  27.320         69.17	     9.110
  27.340         70.83	     9.220
  27.360         74.17	     9.434
  27.380         75.83	     9.539
  27.400         80.00	     9.798
  27.420        109.17	    11.446
  27.440        107.50	    11.358
  27.460        109.17	    11.446
  27.480        122.50	    12.124
  27.500        114.17	    11.705
  27.520        106.67	    11.314
  27.540        100.00	    10.954
  27.560         93.33	    10.583
  27.580         77.50	     9.644
  27.600         85.83	    10.149
  27.620         86.67	    10.198
  27.640        102.50	    11.091
  27.660        115.00	    11.747
  27.680        125.83	    12.288
  27.700        165.83	    14.107
  27.720        157.50	    13.748
  27.740        170.83	    14.318
  27.760        140.00	    12.961
  27.780        172.50	    14.387
  27.800        144.17	    13.153
  27.820        141.67	    13.038
  27.840        178.33	    14.629
  27.860        210.00	    15.875
  27.880        238.33	    16.912
  27.900        273.33	    18.111
  27.920        297.50	    18.894
  27.940        275.83	    18.193
  27.960        239.17	    16.941
  27.980        201.67	    15.556
  28.000        171.67	    14.353
  28.020        140.00	    12.961
  28.040        109.17	    11.446
  28.060        115.83	    11.790
  28.080        143.33	    13.115
  28.100        175.00	    14.491
  28.120        210.83	    15.906
  28.140        169.17	    14.248
  28.160        149.17	    13.379
  28.180        136.67	    12.806
  28.200        150.00	    13.416
  28.220        109.17	    11.446
  28.240         89.17	    10.344
  28.260         80.83	     9.849
  28.280         73.33	     9.381
  28.300         82.50	     9.950
  28.320         86.67	    10.198
  28.340         79.17	     9.747
  28.360         77.50	     9.644
  28.380         62.50	     8.660
  28.400         53.33	     8.000
  28.420         60.83	     8.544
  28.440         51.67	     7.874
  28.460         55.83	     8.185
  28.480         62.50	     8.660
  28.500         58.33	     8.367
  28.520         60.00	     8.485
  28.540         72.50	     9.327
  28.560         87.50	    10.247
  28.580         83.33	    10.000
  28.600         77.50	     9.644
  28.620         71.67	     9.274
  28.640         80.83	     9.849
  28.660         74.17	     9.434
  28.680         45.00	     7.348
  28.700         63.33	     8.718
  28.720         61.67	     8.602
  28.740         60.83	     8.544
  28.760         67.50	     9.000
  28.780         51.67	     7.874
  28.800         54.17	     8.062
  28.820         58.33	     8.367
  28.840         59.17	     8.426
  28.860         48.33	     7.616
  28.880         47.50	     7.550
  28.900         56.67	     8.246
  28.920         58.33	     8.367
  28.940         50.83	     7.810
  28.960         45.00	     7.348
  28.980         40.00	     6.928
  29.000         39.17	     6.856
  29.020         40.00	     6.928
  29.040         49.17	     7.681
  29.060         47.50	     7.550
  29.080         52.50	     7.937
  29.100         43.33	     7.211
  29.120         50.00	     7.746
  29.140         45.00	     7.348
  29.160         49.17	     7.681
  29.180         51.67	     7.874
  29.200         50.83	     7.810
  29.220         50.00	     7.746
  29.240         60.00	     8.485
  29.260         35.83	     6.557
  29.280         31.67	     6.164
  29.300         50.83	     7.810
  29.320         46.67	     7.483
  29.340         45.83	     7.416
  29.360         44.17	     7.280
  29.380         29.17	     5.916
  29.400         38.33	     6.782
  29.420         41.67	     7.071
  29.440         54.17	     8.062
  29.460         49.17	     7.681
  29.480         46.67	     7.483
  29.500         40.83	     7.000
  29.520         70.00	     9.165
  29.540         45.83	     7.416
  29.560         68.33	     9.055
  29.580         58.33	     8.367
  29.600         38.33	     6.782
  29.620         45.83	     7.416
  29.640         56.67	     8.246
  29.660         47.50	     7.550
  29.680         51.67	     7.874
  29.700         56.67	     8.246
  29.720         55.00	     8.124
  29.740         57.50	     8.307
  29.760         60.83	     8.544
  29.780         74.17	     9.434
  29.800         73.33	     9.381
  29.820         76.67	     9.592
  29.840         77.50	     9.644
  29.860         85.83	    10.149
  29.880         87.50	    10.247
  29.900         71.67	     9.274
  29.920         74.17	     9.434
  29.940         78.33	     9.695
  29.960         90.00	    10.392
  29.980         58.33	     8.367
  30.000         66.67	     8.944
  30.020         59.17	     8.426
  30.040         56.67	     8.246
  30.060         85.83	    10.149
  30.080         72.50	     9.327
  30.100         69.17	     9.110
  30.120         75.83	     9.539
  30.140         76.67	     9.592
  30.160         82.50	     9.950
  30.180         77.50	     9.644
  30.200         84.17	    10.050
  30.220         70.83	     9.220
  30.240         75.83	     9.539
  30.260         66.67	     8.944
  30.280         75.83	     9.539
  30.300         71.67	     9.274
  30.320         78.33	     9.695
  30.340         76.67	     9.592
  30.360         94.17	    10.630
  30.380        104.17	    11.180
  30.400         90.83	    10.440
  30.420        105.00	    11.225
  30.440        126.67	    12.329
  30.460        124.17	    12.207
  30.480        114.17	    11.705
  30.500         84.17	    10.050
  30.520         82.50	     9.950
  30.540         66.67	     8.944
  30.560         80.00	     9.798
  30.580         70.83	     9.220
  30.600         52.50	     7.937
  30.620         53.33	     8.000
  30.640         50.83	     7.810
  30.660         43.33	     7.211
  30.680         51.67	     7.874
  30.700         50.00	     7.746
  30.720         49.17	     7.681
  30.740         55.00	     8.124
  30.760         51.67	     7.874
  30.780         55.00	     8.124
  30.800         47.50	     7.550
  30.820         52.50	     7.937
  30.840         45.83	     7.416
  30.860         62.50	     8.660
  30.880         56.67	     8.246
  30.900         42.50	     7.141
  30.920         44.17	     7.280
  30.940         48.33	     7.616
  30.960         61.67	     8.602
  30.980         55.83	     8.185
  31.000         50.00	     7.746
  31.020         41.67	     7.071
  31.040         65.83	     8.888
  31.060         47.50	     7.550
  31.080         58.33	     8.367
  31.100         51.67	     7.874
  31.120         47.50	     7.550
  31.140         55.83	     8.185
  31.160         72.50	     9.327
  31.180         70.00	     9.165
  31.200         73.33	     9.381
  31.220         68.33	     9.055
  31.240         62.50	     8.660
  31.260         67.50	     9.000
  31.280         73.33	     9.381
  31.300         70.83	     9.220
  31.320         56.67	     8.246
  31.340         69.17	     9.110
  31.360         51.67	     7.874
  31.380         44.17	     7.280
  31.400         48.33	     7.616
  31.420         50.00	     7.746
  31.440         40.00	     6.928
  31.460         48.33	     7.616
  31.480         52.50	     7.937
  31.500         51.67	     7.874
  31.520         55.00	     8.124
  31.540         50.00	     7.746
  31.560         62.50	     8.660
  31.580         33.33	     6.325
  31.600         56.67	     8.246
  31.620         56.67	     8.246
  31.640         45.00	     7.348
  31.660         46.67	     7.483
  31.680         30.83	     6.083
  31.700         43.33	     7.211
  31.720         40.00	     6.928
  31.740         35.83	     6.557
  31.760         40.00	     6.928
  31.780         49.17	     7.681
  31.800         55.00	     8.124
  31.820         42.50	     7.141
  31.840         33.33	     6.325
  31.860         44.17	     7.280
  31.880         40.00	     6.928
  31.900         48.33	     7.616
  31.920         41.67	     7.071
  31.940         53.33	     8.000
  31.960         54.17	     8.062
  31.980         53.33	     8.000
  32.000         50.00	     7.746
  32.020         52.50	     7.937
  32.040         64.17	     8.775
  32.060         66.67	     8.944
  32.080         60.83	     8.544
  32.100         66.67	     8.944
  32.120         70.00	     9.165
  32.140         58.33	     8.367
  32.160         55.00	     8.124
  32.180         44.17	     7.280
  32.200         45.00	     7.348
  32.220         47.50	     7.550
  32.240         42.50	     7.141
  32.260         47.50	     7.550
  32.280         50.00	     7.746
  32.300         45.83	     7.416
  32.320         41.67	     7.071
  32.340         37.50	     6.708
  32.360         42.50	     7.141
  32.380         42.50	     7.141
  32.400         30.83	     6.083
  32.420         37.50	     6.708
  32.440         50.83	     7.810
  32.460         40.83	     7.000
  32.480         49.17	     7.681
  32.500         45.83	     7.416
  32.520         44.17	     7.280
  32.540         35.83	     6.557
  32.560         43.33	     7.211
  32.580         30.83	     6.083
  32.600         43.33	     7.211
  32.620         35.00	     6.481
  32.640         45.83	     7.416
  32.660         37.50	     6.708
  32.680         31.67	     6.164
  32.700         27.50	     5.745
  32.720         42.50	     7.141
  32.740         29.17	     5.916
  32.760         36.67	     6.633
  32.780         38.33	     6.782
  32.800         44.17	     7.280
  32.820         30.00	     6.000
  32.840         43.33	     7.211
  32.860         42.50	     7.141
  32.880         34.17	     6.403
  32.900         58.33	     8.367
  32.920         35.00	     6.481
  32.940         49.17	     7.681
  32.960         35.00	     6.481
  32.980         35.83	     6.557
  33.000         39.17	     6.856
  33.020         43.33	     7.211
  33.040         29.17	     5.916
  33.060         51.67	     7.874
  33.080         39.17	     6.856
  33.100         53.33	     8.000
  33.120         43.33	     7.211
  33.140         35.83	     6.557
  33.160         30.00	     6.000
  33.180         40.00	     6.928
  33.200         31.67	     6.164
  33.220         32.50	     6.245
  33.240         41.67	     7.071
  33.260         25.83	     5.568
  33.280         35.00	     6.481
  33.300         26.67	     5.657
  33.320         34.17	     6.403
  33.340         43.33	     7.211
  33.360         41.67	     7.071
  33.380         40.83	     7.000
  33.400         45.00	     7.348
  33.420         33.33	     6.325
  33.440         35.83	     6.557
  33.460         31.67	     6.164
  33.480         31.67	     6.164
  33.500         40.00	     6.928
  33.520         36.67	     6.633
  33.540         40.83	     7.000
  33.560         35.83	     6.557
  33.580         39.17	     6.856
  33.600         53.33	     8.000
  33.620         50.83	     7.810
  33.640         37.50	     6.708
  33.660         45.83	     7.416
  33.680         40.00	     6.928
  33.700         40.83	     7.000
  33.720         35.83	     6.557
  33.740         39.17	     6.856
  33.760         33.33	     6.325
  33.780         37.50	     6.708
  33.800         35.83	     6.557
  33.820         51.67	     7.874
  33.840         42.50	     7.141
  33.860         46.67	     7.483
  33.880         44.17	     7.280
  33.900         48.33	     7.616
  33.920         46.67	     7.483
  33.940         48.33	     7.616
  33.960         47.50	     7.550
  33.980         35.83	     6.557
  34.000         53.33	     8.000
  34.020         41.67	     7.071
  34.040         51.67	     7.874
  34.060         50.83	     7.810
  34.080         35.00	     6.481
  34.100         34.17	     6.403
  34.120         39.17	     6.856
  34.140         45.83	     7.416
  34.160         39.17	     6.856
  34.180         45.83	     7.416
  34.200         42.50	     7.141
  34.220         39.17	     6.856
  34.240         45.00	     7.348
  34.260         42.50	     7.141
  34.280         40.00	     6.928
  34.300         48.33	     7.616
  34.320         57.50	     8.307
  34.340         49.17	     7.681
  34.360         52.50	     7.937
  34.380         47.50	     7.550
  34.400         41.67	     7.071
  34.420         44.17	     7.280
  34.440         55.00	     8.124
  34.460         54.17	     8.062
  34.480         60.00	     8.485
  34.500         76.67	     9.592
  34.520         63.33	     8.718
  34.540         52.50	     7.937
  34.560         65.00	     8.832
  34.580         55.83	     8.185
  34.600         80.00	     9.798
  34.620         69.17	     9.110
  34.640         64.17	     8.775
  34.660         47.50	     7.550
  34.680         56.67	     8.246
  34.700         47.50	     7.550
  34.720         66.67	     8.944
  34.740         75.00	     9.487
  34.760         54.17	     8.062
  34.780         60.83	     8.544
  34.800         57.50	     8.307
  34.820         71.67	     9.274
  34.840         58.33	     8.367
  34.860         82.50	     9.950
  34.880         64.17	     8.775
  34.900         61.67	     8.602
  34.920         60.00	     8.485
  34.940         69.17	     9.110
  34.960         82.50	     9.950
  34.980         78.33	     9.695
  35.000         80.83	     9.849
  35.020         79.17	     9.747
  35.040         74.17	     9.434
  35.060         54.17	     8.062
  35.080         73.33	     9.381
  35.100         74.17	     9.434
  35.120         46.67	     7.483
  35.140         52.50	     7.937
  35.160         44.17	     7.280
  35.180         50.83	     7.810
  35.200         45.00	     7.348
  35.220         53.33	     8.000
  35.240         47.50	     7.550
  35.260         45.83	     7.416
  35.280         53.33	     8.000
  35.300         38.33	     6.782
  35.320         55.83	     8.185
  35.340         47.50	     7.550
  35.360         46.67	     7.483
  35.380         64.17	     8.775
  35.400         55.00	     8.124
  35.420         35.83	     6.557
  35.440         63.33	     8.718
  35.460         68.33	     9.055
  35.480         82.50	     9.950
  35.500         65.00	     8.832
  35.520         60.00	     8.485
  35.540         81.67	     9.899
  35.560         64.17	     8.775
  35.580         45.00	     7.348
  35.600         53.33	     8.000
  35.620         62.50	     8.660
  35.640         56.67	     8.246
  35.660         60.00	     8.485
  35.680         50.00	     7.746
  35.700         50.00	     7.746
  35.720         43.33	     7.211
  35.740         55.83	     8.185
  35.760         62.50	     8.660
  35.780         56.67	     8.246
  35.800         44.17	     7.280
  35.820         40.00	     6.928
  35.840         56.67	     8.246
  35.860         34.17	     6.403
  35.880         45.83	     7.416
  35.900         47.50	     7.550
  35.920         60.83	     8.544
  35.940         40.83	     7.000
  35.960         56.67	     8.246
  35.980         45.00	     7.348
  36.000         62.50	     8.660
  36.020         54.17	     8.062
  36.040         61.67	     8.602
  36.060         82.50	     9.950
  36.080         88.33	    10.296
  36.100         86.67	    10.198
  36.120         60.00	     8.485
  36.140         68.33	     9.055
  36.160         67.50	     9.000
  36.180         71.67	     9.274
  36.200         51.67	     7.874
  36.220         36.67	     6.633
  36.240         56.67	     8.246
  36.260         52.50	     7.937
  36.280         50.83	     7.810
  36.300         54.17	     8.062
  36.320         50.00	     7.746
  36.340         63.33	     8.718
  36.360         50.00	     7.746
  36.380         65.83	     8.888
  36.400         57.50	     8.307
  36.420         69.17	     9.110
  36.440         87.50	    10.247
  36.460        125.83	    12.288
  36.480        174.17	    14.457
  36.500        305.00	    19.131
  36.520        465.00	    23.622
  36.540        475.00	    23.875
  36.560        339.17	    20.174
  36.580        265.00	    17.833
  36.600        273.33	    18.111
  36.620        280.83	    18.358
  36.640        245.00	    17.146
  36.660        191.67	    15.166
  36.680        127.50	    12.369
  36.700         99.17	    10.909
  36.720        100.00	    10.954
  36.740         85.00	    10.100
  36.760         80.00	     9.798
  36.780         63.33	     8.718
  36.800         74.17	     9.434
  36.820         71.67	     9.274
  36.840         74.17	     9.434
  36.860         63.33	     8.718
  36.880         52.50	     7.937
  36.900         43.33	     7.211
  36.920         38.33	     6.782
  36.940         35.83	     6.557
  36.960         37.50	     6.708
  36.980         49.17	     7.681
  37.000         45.00	     7.348
  37.020         38.33	     6.782
  37.040         40.00	     6.928
  37.060         30.83	     6.083
  37.080         41.67	     7.071
  37.100         45.00	     7.348
  37.120         46.67	     7.483
  37.140         42.50	     7.141
  37.160         37.50	     6.708
  37.180         39.17	     6.856
  37.200         35.83	     6.557
  37.220         39.17	     6.856
  37.240         37.50	     6.708
  37.260         50.83	     7.810
  37.280         49.17	     7.681
  37.300         40.83	     7.000
  37.320         34.17	     6.403
  37.340         34.17	     6.403
  37.360         43.33	     7.211
  37.380         37.50	     6.708
  37.400         58.33	     8.367
  37.420         50.00	     7.746
  37.440         50.83	     7.810
  37.460         45.00	     7.348
  37.480         54.17	     8.062
  37.500         72.50	     9.327
  37.520         45.83	     7.416
  37.540         60.83	     8.544
  37.560         52.50	     7.937
  37.580         56.67	     8.246
  37.600         65.00	     8.832
  37.620         67.50	     9.000
  37.640         69.17	     9.110
  37.660         65.83	     8.888
  37.680         46.67	     7.483
  37.700         50.83	     7.810
  37.720         58.33	     8.367
  37.740         54.17	     8.062
  37.760         58.33	     8.367
  37.780         47.50	     7.550
  37.800         45.83	     7.416
  37.820         49.17	     7.681
  37.840         40.00	     6.928
  37.860         46.67	     7.483
  37.880         40.00	     6.928
  37.900         30.83	     6.083
  37.920         38.33	     6.782
  37.940         37.50	     6.708
  37.960         30.00	     6.000
  37.980         36.67	     6.633
  38.000         36.67	     6.633
  38.020         35.83	     6.557
  38.040         32.50	     6.245
  38.060         34.17	     6.403
  38.080         40.83	     7.000
  38.100         30.00	     6.000
  38.120         23.33	     5.292
  38.140         31.67	     6.164
  38.160         40.00	     6.928
  38.180         44.17	     7.280
  38.200         40.00	     6.928
  38.220         45.00	     7.348
  38.240         35.00	     6.481
  38.260         45.83	     7.416
  38.280         32.50	     6.245
  38.300         32.50	     6.245
  38.320         35.83	     6.557
  38.340         25.83	     5.568
  38.360         35.83	     6.557
  38.380         40.00	     6.928
  38.400         40.00	     6.928
  38.420         24.17	     5.385
  38.440         42.50	     7.141
  38.460         36.67	     6.633
  38.480         28.33	     5.831
  38.500         38.33	     6.782
  38.520         37.50	     6.708
  38.540         42.50	     7.141
  38.560         31.67	     6.164
  38.580         50.83	     7.810
  38.600         39.17	     6.856
  38.620         32.50	     6.245
  38.640         35.00	     6.481
  38.660         32.50	     6.245
  38.680         26.67	     5.657
  38.700         34.17	     6.403
  38.720         36.67	     6.633
  38.740         36.67	     6.633
  38.760         43.33	     7.211
  38.780         33.33	     6.325
  38.800         48.33	     7.616
  38.820         44.17	     7.280
  38.840         42.50	     7.141
  38.860         33.33	     6.325
  38.880         35.00	     6.481
  38.900         39.17	     6.856
  38.920         34.17	     6.403
  38.940         39.17	     6.856
  38.960         35.00	     6.481
  38.980         40.00	     6.928
  39.000         35.00	     6.481
  39.020         38.33	     6.782
  39.040         43.33	     7.211
  39.060         29.17	     5.916
  39.080         35.00	     6.481
  39.100         35.83	     6.557
  39.120         28.33	     5.831
  39.140         26.67	     5.657
  39.160         33.33	     6.325
  39.180         30.00	     6.000
  39.200         25.83	     5.568
  39.220         42.50	     7.141
  39.240         40.83	     7.000
  39.260         45.00	     7.348
  39.280         42.50	     7.141
  39.300         39.17	     6.856
  39.320         44.17	     7.280
  39.340         45.00	     7.348
  39.360         62.50	     8.660
  39.380         81.67	     9.899
  39.400        113.33	    11.662
  39.420        170.00	    14.283
  39.440        165.00	    14.071
  39.460        167.50	    14.177
  39.480        131.67	    12.570
  39.500        115.00	    11.747
  39.520        125.00	    12.247
  39.540        112.50	    11.619
  39.560        105.00	    11.225
  39.580         95.83	    10.724
  39.600         69.17	     9.110
  39.620         58.33	     8.367
  39.640         50.83	     7.810
  39.660         44.17	     7.280
  39.680         45.83	     7.416
  39.700         47.50	     7.550
  39.720         36.67	     6.633
  39.740         42.50	     7.141
  39.760         40.83	     7.000
  39.780         43.33	     7.211
  39.800         46.67	     7.483
  39.820         38.33	     6.782
  39.840         33.33	     6.325
  39.860         28.33	     5.831
  39.880         42.50	     7.141
  39.900         28.33	     5.831
  39.920         35.00	     6.481
  39.940         42.50	     7.141
  39.960         32.50	     6.245
  39.980         35.83	     6.557
  40.000         43.33	     7.211
  40.020         35.83	     6.557
  40.040         50.83	     7.810
  40.060         44.17	     7.280
  40.080         45.83	     7.416
  40.100         45.00	     7.348
  40.120         42.50	     7.141
  40.140         44.17	     7.280
  40.160         48.33	     7.616
  40.180         50.83	     7.810
  40.200         60.83	     8.544
  40.220         79.17	     9.747
  40.240         80.00	     9.798
  40.260        134.17	    12.689
  40.280        103.33	    11.136
  40.300         74.17	     9.434
  40.320         72.50	     9.327
  40.340         70.00	     9.165
  40.360         87.50	    10.247
  40.380         75.83	     9.539
  40.400         75.00	     9.487
  40.420         58.33	     8.367
  40.440         39.17	     6.856
  40.460         32.50	     6.245
  40.480         48.33	     7.616
  40.500         35.83	     6.557
  40.520         45.00	     7.348
  40.540         37.50	     6.708
  40.560         34.17	     6.403
  40.580         32.50	     6.245
  40.600         21.67	     5.099
  40.620         33.33	     6.325
  40.640         28.33	     5.831
  40.660         34.17	     6.403
  40.680         46.67	     7.483
  40.700         32.50	     6.245
  40.720         33.33	     6.325
  40.740         30.83	     6.083
  40.760         35.00	     6.481
  40.780         56.67	     8.246
  40.800         38.33	     6.782
  40.820         34.17	     6.403
  40.840         42.50	     7.141
  40.860         34.17	     6.403
  40.880         30.83	     6.083
  40.900         36.67	     6.633
  40.920         37.50	     6.708
  40.940         32.50	     6.245
  40.960         40.00	     6.928
  40.980         34.17	     6.403
  41.000         28.33	     5.831
  41.020         36.67	     6.633
  41.040         48.33	     7.616
  41.060         53.33	     8.000
  41.080         42.50	     7.141
  41.100         47.50	     7.550
  41.120         50.83	     7.810
  41.140         36.67	     6.633
  41.160         55.83	     8.185
  41.180         38.33	     6.782
  41.200         45.83	     7.416
  41.220         40.00	     6.928
  41.240         51.67	     7.874
  41.260         40.00	     6.928
  41.280         58.33	     8.367
  41.300         46.67	     7.483
  41.320         37.50	     6.708
  41.340         44.17	     7.280
  41.360         47.50	     7.550
  41.380         40.83	     7.000
  41.400         41.67	     7.071
  41.420         34.17	     6.403
  41.440         33.33	     6.325
  41.460         40.00	     6.928
  41.480         43.33	     7.211
  41.500         32.50	     6.245
  41.520         39.17	     6.856
  41.540         40.83	     7.000
  41.560         38.33	     6.782
  41.580         53.33	     8.000
  41.600         39.17	     6.856
  41.620         43.33	     7.211
  41.640         51.67	     7.874
  41.660         56.67	     8.246
  41.680         59.17	     8.426
  41.700         54.17	     8.062
  41.720         51.67	     7.874
  41.740         49.17	     7.681
  41.760         57.50	     8.307
  41.780         51.67	     7.874
  41.800         62.50	     8.660
  41.820         45.00	     7.348
  41.840         55.83	     8.185
  41.860         46.67	     7.483
  41.880         44.17	     7.280
  41.900         35.83	     6.557
  41.920         44.17	     7.280
  41.940         48.33	     7.616
  41.960         43.33	     7.211
  41.980         33.33	     6.325
  42.000         48.33	     7.616
  42.020         48.33	     7.616
  42.040         44.17	     7.280
  42.060         35.00	     6.481
  42.080         38.33	     6.782
  42.100         40.00	     6.928
  42.120         40.00	     6.928
  42.140         49.17	     7.681
  42.160         49.17	     7.681
  42.180         48.33	     7.616
  42.200         61.67	     8.602
  42.220         39.17	     6.856
  42.240         64.17	     8.775
  42.260         46.67	     7.483
  42.280         56.67	     8.246
  42.300         55.83	     8.185
  42.320         60.83	     8.544
  42.340         70.83	     9.220
  42.360         80.00	     9.798
  42.380        121.67	    12.083
  42.400        189.17	    15.067
  42.420        228.33	    16.553
  42.440        218.33	    16.186
  42.460        185.00	    14.900
  42.480        125.00	    12.247
  42.500        126.67	    12.329
  42.520        116.67	    11.832
  42.540        145.00	    13.191
  42.560        148.33	    13.342
  42.580        114.17	    11.705
  42.600         66.67	     8.944
  42.620         61.67	     8.602
  42.640         58.33	     8.367
  42.660         60.00	     8.485
  42.680         50.83	     7.810
  42.700         50.00	     7.746
  42.720         46.67	     7.483
  42.740         50.83	     7.810
  42.760         54.17	     8.062
  42.780         45.83	     7.416
  42.800         64.17	     8.775
  42.820         54.17	     8.062
  42.840         61.67	     8.602
  42.860         64.17	     8.775
  42.880         49.17	     7.681
  42.900         56.67	     8.246
  42.920         50.00	     7.746
  42.940         50.00	     7.746
  42.960         53.33	     8.000
  42.980         58.33	     8.367
  43.000         54.17	     8.062
  43.020         51.67	     7.874
  43.040         55.83	     8.185
  43.060         55.83	     8.185
  43.080         44.17	     7.280
  43.100         66.67	     8.944
  43.120         65.83	     8.888
  43.140         48.33	     7.616
  43.160         69.17	     9.110
  43.180         66.67	     8.944
  43.200         71.67	     9.274
  43.220         80.00	     9.798
  43.240         86.67	    10.198
  43.260         86.67	    10.198
  43.280        100.83	    11.000
  43.300         94.17	    10.630
  43.320         88.33	    10.296
  43.340        118.33	    11.916
  43.360        108.33	    11.402
  43.380        127.50	    12.369
  43.400        123.33	    12.166
  43.420        137.50	    12.845
  43.440        132.50	    12.610
  43.460        123.33	    12.166
  43.480        155.00	    13.638
  43.500        141.67	    13.038
  43.520        139.17	    12.923
  43.540        140.00	    12.961
  43.560        152.50	    13.528
  43.580        132.50	    12.610
  43.600        141.67	    13.038
  43.620        131.67	    12.570
  43.640        131.67	    12.570
  43.660        124.17	    12.207
  43.680        117.50	    11.874
  43.700        115.00	    11.747
  43.720        103.33	    11.136
  43.740        115.00	    11.747
  43.760         92.50	    10.536
  43.780        123.33	    12.166
  43.800        100.83	    11.000
  43.820         91.67	    10.488
  43.840         71.67	     9.274
  43.860         65.83	     8.888
  43.880         73.33	     9.381
  43.900         77.50	     9.644
  43.920         68.33	     9.055
  43.940         56.67	     8.246
  43.960         59.17	     8.426
  43.980         55.00	     8.124
  44.000         61.67	     8.602
  44.020         61.67	     8.602
  44.040         70.83	     9.220
  44.060         53.33	     8.000
  44.080         60.00	     8.485
  44.100         67.50	     9.000
  44.120         52.50	     7.937
  44.140         51.67	     7.874
  44.160         47.50	     7.550
  44.180         52.50	     7.937
  44.200         47.50	     7.550
  44.220         39.17	     6.856
  44.240         47.50	     7.550
  44.260         46.67	     7.483
  44.280         30.83	     6.083
  44.300         37.50	     6.708
  44.320         35.00	     6.481
  44.340         28.33	     5.831
  44.360         40.83	     7.000
  44.380         29.17	     5.916
  44.400         41.67	     7.071
  44.420         44.17	     7.280
  44.440         33.33	     6.325
  44.460         34.17	     6.403
  44.480         35.83	     6.557
  44.500         48.33	     7.616
  44.520         35.83	     6.557
  44.540         33.33	     6.325
  44.560         38.33	     6.782
  44.580         40.83	     7.000
  44.600         57.50	     8.307
  44.620         38.33	     6.782
  44.640         43.33	     7.211
  44.660         40.83	     7.000
  44.680         42.50	     7.141
  44.700         48.33	     7.616
  44.720         36.67	     6.633
  44.740         49.17	     7.681
  44.760         46.67	     7.483
  44.780         34.17	     6.403
  44.800         35.00	     6.481
  44.820         35.83	     6.557
  44.840         35.00	     6.481
  44.860         39.17	     6.856
  44.880         53.33	     8.000
  44.900         41.67	     7.071
  44.920         41.67	     7.071
  44.940         40.83	     7.000
  44.960         42.50	     7.141
  44.980         50.83	     7.810
  45.000         45.83	     7.416
  45.020         47.50	     7.550
  45.040         50.00	     7.746
  45.060         45.83	     7.416
  45.080         55.83	     8.185
  45.100         48.33	     7.616
  45.120         47.50	     7.550
  45.140         45.83	     7.416
  45.160         41.67	     7.071
  45.180         39.17	     6.856
  45.200         40.00	     6.928
  45.220         42.50	     7.141
  45.240         36.67	     6.633
  45.260         35.83	     6.557
  45.280         51.67	     7.874
  45.300         58.33	     8.367
  45.320         56.67	     8.246
  45.340         38.33	     6.782
  45.360         52.50	     7.937
  45.380         65.83	     8.888
  45.400         61.67	     8.602
  45.420         65.83	     8.888
  45.440         72.50	     9.327
  45.460         74.17	     9.434
  45.480        106.67	    11.314
  45.500        131.67	    12.570
  45.520        222.50	    16.340
  45.540        255.83	    17.521
  45.560        257.50	    17.578
  45.580        212.50	    15.969
  45.600        200.00	    15.492
  45.620        200.00	    15.492
  45.640        223.33	    16.371
  45.660        248.33	    17.263
  45.680        211.67	    15.937
  45.700        145.83	    13.229
  45.720        155.00	    13.638
  45.740        146.67	    13.266
  45.760        190.00	    15.100
  45.780        187.50	    15.000
  45.800        114.17	    11.705
  45.820         90.83	    10.440
  45.840         85.83	    10.149
  45.860        111.67	    11.576
  45.880         85.83	    10.149
  45.900         84.17	    10.050
  45.920        101.67	    11.045
  45.940         70.00	     9.165
  45.960         63.33	     8.718
  45.980         45.83	     7.416
  46.000         42.50	     7.141
  46.020         54.17	     8.062
  46.040         38.33	     6.782
  46.060         40.00	     6.928
  46.080         45.00	     7.348
  46.100         41.67	     7.071
  46.120         39.17	     6.856
  46.140         27.50	     5.745
  46.160         40.00	     6.928
  46.180         35.83	     6.557
  46.200         30.00	     6.000
  46.220         38.33	     6.782
  46.240         29.17	     5.916
  46.260         34.17	     6.403
  46.280         37.50	     6.708
  46.300         35.00	     6.481
  46.320         35.00	     6.481
  46.340         28.33	     5.831
  46.360         20.00	     4.899
  46.380         35.00	     6.481
  46.400         25.00	     5.477
  46.420         32.50	     6.245
  46.440         28.33	     5.831
  46.460         30.83	     6.083
  46.480         44.17	     7.280
  46.500         25.83	     5.568
  46.520         35.00	     6.481
  46.540         38.33	     6.782
  46.560         38.33	     6.782
  46.580         35.83	     6.557
  46.600         38.33	     6.782
  46.620         33.33	     6.325
  46.640         41.67	     7.071
  46.660         41.67	     7.071
  46.680         37.50	     6.708
  46.700         33.33	     6.325
  46.720         26.67	     5.657
  46.740         31.67	     6.164
  46.760         26.67	     5.657
  46.780         31.67	     6.164
  46.800         27.50	     5.745
  46.820         35.83	     6.557
  46.840         40.83	     7.000
  46.860         31.67	     6.164
  46.880         24.17	     5.385
  46.900         30.00	     6.000
  46.920         29.17	     5.916
  46.940         35.83	     6.557
  46.960         34.17	     6.403
  46.980         35.00	     6.481
  47.000         34.17	     6.403
  47.020         33.33	     6.325
  47.040         32.50	     6.245
  47.060         35.83	     6.557
  47.080         37.50	     6.708
  47.100         34.17	     6.403
  47.120         35.83	     6.557
  47.140         40.00	     6.928
  47.160         36.67	     6.633
  47.180         25.83	     5.568
  47.200         40.83	     7.000
  47.220         27.50	     5.745
  47.240         22.50	     5.196
  47.260         34.17	     6.403
  47.280         26.67	     5.657
  47.300         22.50	     5.196
  47.320         31.67	     6.164
  47.340         39.17	     6.856
  47.360         31.67	     6.164
  47.380         30.00	     6.000
  47.400         24.17	     5.385
  47.420         30.83	     6.083
  47.440         30.83	     6.083
  47.460         37.50	     6.708
  47.480         35.00	     6.481
  47.500         27.50	     5.745
  47.520         19.17	     4.796
  47.540         29.17	     5.916
  47.560         18.33	     4.690
  47.580         21.67	     5.099
  47.600         25.00	     5.477
  47.620         30.00	     6.000
  47.640         30.83	     6.083
  47.660         28.33	     5.831
  47.680         24.17	     5.385
  47.700         31.67	     6.164
  47.720         35.83	     6.557
  47.740         35.83	     6.557
  47.760         36.67	     6.633
  47.780         36.67	     6.633
  47.800         35.00	     6.481
  47.820         24.17	     5.385
  47.840         41.67	     7.071
  47.860         34.17	     6.403
  47.880         38.33	     6.782
  47.900         25.83	     5.568
  47.920         35.00	     6.481
  47.940         55.83	     8.185
  47.960         44.17	     7.280
  47.980         40.83	     7.000
  48.000         25.00	     5.477
  48.020         40.83	     7.000
  48.040         38.33	     6.782
  48.060         48.33	     7.616
  48.080         45.00	     7.348
  48.100         42.50	     7.141
  48.120         41.67	     7.071
  48.140         44.17	     7.280
  48.160         41.67	     7.071
  48.180         37.50	     6.708
  48.200         43.33	     7.211
  48.220         34.17	     6.403
  48.240         44.17	     7.280
  48.260         43.33	     7.211
  48.280         38.33	     6.782
  48.300         34.17	     6.403
  48.320         35.00	     6.481
  48.340         28.33	     5.831
  48.360         40.83	     7.000
  48.380         35.83	     6.557
  48.400         37.50	     6.708
  48.420         33.33	     6.325
  48.440         30.00	     6.000
  48.460         28.33	     5.831
  48.480         40.00	     6.928
  48.500         35.00	     6.481
  48.520         30.00	     6.000
  48.540         40.00	     6.928
  48.560         31.67	     6.164
  48.580         44.17	     7.280
  48.600         45.83	     7.416
  48.620         31.67	     6.164
  48.640         40.00	     6.928
  48.660         44.17	     7.280
  48.680         46.67	     7.483
  48.700         60.00	     8.485
  48.720         81.67	     9.899
  48.740         45.00	     7.348
  48.760         50.00	     7.746
  48.780         52.50	     7.937
  48.800         37.50	     6.708
  48.820         36.67	     6.633
  48.840         60.83	     8.544
  48.860         58.33	     8.367
  48.880         56.67	     8.246
  48.900         43.33	     7.211
  48.920         45.83	     7.416
  48.940         50.83	     7.810
  48.960         40.83	     7.000
  48.980         39.17	     6.856
  49.000         41.67	     7.071
  49.020         41.67	     7.071
  49.040         50.83	     7.810
  49.060         31.67	     6.164
  49.080         30.00	     6.000
  49.100         30.83	     6.083
  49.120         39.17	     6.856
  49.140         40.83	     7.000
  49.160         43.33	     7.211
  49.180         63.33	     8.718
  49.200         60.00	     8.485
  49.220         48.33	     7.616
  49.240         55.00	     8.124
  49.260         40.83	     7.000
  49.280         48.33	     7.616
  49.300         47.50	     7.550
  49.320         44.17	     7.280
  49.340         57.50	     8.307
  49.360         38.33	     6.782
  49.380         61.67	     8.602
  49.400         35.83	     6.557
  49.420         39.17	     6.856
  49.440         40.00	     6.928
  49.460         49.17	     7.681
  49.480         35.00	     6.481
  49.500         33.33	     6.325
  49.520         39.17	     6.856
  49.540         30.83	     6.083
  49.560         40.00	     6.928
  49.580         40.00	     6.928
  49.600         50.83	     7.810
  49.620         41.67	     7.071
  49.640         43.33	     7.211
  49.660         56.67	     8.246
  49.680         46.67	     7.483
  49.700         50.00	     7.746
  49.720         45.00	     7.348
  49.740         42.50	     7.141
  49.760         57.50	     8.307
  49.780         80.83	     9.849
  49.800         76.67	     9.592
  49.820         68.33	     9.055
  49.840         69.17	     9.110
  49.860         73.33	     9.381
  49.880         70.83	     9.220
  49.900         81.67	     9.899
  49.920         72.50	     9.327
  49.940         87.50	    10.247
  49.960         89.17	    10.344
  49.980         84.17	    10.050
  50.000         96.67	    10.770
  50.020        106.67	    11.314
  50.040        149.17	    13.379
  50.060        176.67	    14.560
  50.080        269.17	    17.972
  50.100        370.83	    21.095
  50.120        394.17	    21.749
  50.140        298.33	    18.921
  50.160        234.17	    16.763
  50.180        158.33	    13.784
  50.200        160.83	    13.892
  50.220        176.67	    14.560
  50.240        238.33	    16.912
  50.260        215.83	    16.093
  50.280        155.00	    13.638
  50.300        110.00	    11.489
  50.320         90.00	    10.392
  50.340         79.17	     9.747
  50.360         70.83	     9.220
  50.380         63.33	     8.718
  50.400         64.17	     8.775
  50.420         67.50	     9.000
  50.440         66.67	     8.944
  50.460         76.67	     9.592
  50.480         75.83	     9.539
  50.500        101.67	    11.045
  50.520        109.17	    11.446
  50.540        119.17	    11.958
  50.560        114.17	    11.705
  50.580        131.67	    12.570
  50.600         91.67	    10.488
  50.620         96.67	    10.770
  50.640         89.17	    10.344
  50.660        106.67	    11.314
  50.680         94.17	    10.630
  50.700         65.83	     8.888
  50.720         80.00	     9.798
  50.740         79.17	     9.747
  50.760         56.67	     8.246
  50.780         56.67	     8.246
  50.800         50.83	     7.810
  50.820         58.33	     8.367
  50.840         55.83	     8.185
  50.860         62.50	     8.660
  50.880         59.17	     8.426
  50.900         71.67	     9.274
  50.920         45.00	     7.348
  50.940         50.00	     7.746
  50.960         60.83	     8.544
  50.980         51.67	     7.874
  51.000         47.50	     7.550
  51.020         66.67	     8.944
  51.040         50.83	     7.810
  51.060         75.83	     9.539
  51.080         84.17	    10.050
  51.100        151.67	    13.491
  51.120        195.83	    15.330
  51.140        165.83	    14.107
  51.160        120.83	    12.042
  51.180         81.67	     9.899
  51.200         88.33	    10.296
  51.220         84.17	    10.050
  51.240        100.00	    10.954
  51.260        122.50	    12.124
  51.280         94.17	    10.630
  51.300         74.17	     9.434
  51.320         60.83	     8.544
  51.340         51.67	     7.874
  51.360         45.83	     7.416
  51.380         40.00	     6.928
  51.400         48.33	     7.616
  51.420         35.00	     6.481
  51.440         35.83	     6.557
  51.460         35.83	     6.557
  51.480         32.50	     6.245
  51.500         49.17	     7.681
  51.520         50.00	     7.746
  51.540         42.50	     7.141
  51.560         33.33	     6.325
  51.580         31.67	     6.164
  51.600         52.50	     7.937
  51.620         37.50	     6.708
  51.640         38.33	     6.782
  51.660         36.67	     6.633
  51.680         44.17	     7.280
  51.700         40.00	     6.928
  51.720         35.00	     6.481
  51.740         30.00	     6.000
  51.760         28.33	     5.831
  51.780         38.33	     6.782
  51.800         27.50	     5.745
  51.820         32.50	     6.245
  51.840         38.33	     6.782
  51.860         26.67	     5.657
  51.880         25.00	     5.477
  51.900         31.67	     6.164
  51.920         30.00	     6.000
  51.940         27.50	     5.745
  51.960         27.50	     5.745
  51.980         23.33	     5.292
  52.000         25.83	     5.568
  52.020         36.67	     6.633
  52.040         34.17	     6.403
  52.060         29.17	     5.916
  52.080         40.83	     7.000
  52.100         47.50	     7.550
  52.120         40.00	     6.928
  52.140         55.83	     8.185
  52.160         40.00	     6.928
  52.180         42.50	     7.141
  52.200         49.17	     7.681
  52.220         35.00	     6.481
  52.240         48.33	     7.616
  52.260         52.50	     7.937
  52.280         50.00	     7.746
  52.300         35.00	     6.481
  52.320         28.33	     5.831
  52.340         64.17	     8.775
  52.360         44.17	     7.280
  52.380         33.33	     6.325
  52.400         41.67	     7.071
  52.420         31.67	     6.164
  52.440         44.17	     7.280
  52.460         35.00	     6.481
  52.480         46.67	     7.483
  52.500         48.33	     7.616
  52.520         41.67	     7.071
  52.540         48.33	     7.616
  52.560         38.33	     6.782
  52.580         45.00	     7.348
  52.600         45.00	     7.348
  52.620         40.83	     7.000
  52.640         35.83	     6.557
  52.660         36.67	     6.633
  52.680         36.67	     6.633
  52.700         33.33	     6.325
  52.720         42.50	     7.141
  52.740         33.33	     6.325
  52.760         37.50	     6.708
  52.780         32.50	     6.245
  52.800         28.33	     5.831
  52.820         30.00	     6.000
  52.840         26.67	     5.657
  52.860         44.17	     7.280
  52.880         45.00	     7.348
  52.900         27.50	     5.745
  52.920         35.83	     6.557
  52.940         30.83	     6.083
  52.960         38.33	     6.782
  52.980         20.83	     5.000
  53.000         32.50	     6.245
  53.020         31.67	     6.164
  53.040         31.67	     6.164
  53.060         39.17	     6.856
  53.080         35.83	     6.557
  53.100         40.83	     7.000
  53.120         38.33	     6.782
  53.140         45.83	     7.416
  53.160         40.83	     7.000
  53.180         55.00	     8.124
  53.200         44.17	     7.280
  53.220         45.83	     7.416
  53.240         49.17	     7.681
  53.260         40.83	     7.000
  53.280         37.50	     6.708
  53.300         44.17	     7.280
  53.320         33.33	     6.325
  53.340         30.83	     6.083
  53.360         37.50	     6.708
  53.380         37.50	     6.708
  53.400         30.83	     6.083
  53.420         29.17	     5.916
  53.440         36.67	     6.633
  53.460         30.00	     6.000
  53.480         39.17	     6.856
  53.500         30.00	     6.000
  53.520         25.00	     5.477
  53.540         23.33	     5.292
  53.560         39.17	     6.856
  53.580         30.83	     6.083
  53.600         36.67	     6.633
  53.620         39.17	     6.856
  53.640         27.50	     5.745
  53.660         30.00	     6.000
  53.680         33.33	     6.325
  53.700         41.67	     7.071
  53.720         26.67	     5.657
  53.740         30.00	     6.000
  53.760         26.67	     5.657
  53.780         32.50	     6.245
  53.800         35.83	     6.557
  53.820         42.50	     7.141
  53.840         36.67	     6.633
  53.860         35.83	     6.557
  53.880         30.83	     6.083
  53.900         24.17	     5.385
  53.920         30.00	     6.000
  53.940         32.50	     6.245
  53.960         37.50	     6.708
  53.980         40.00	     6.928
  54.000         34.17	     6.403
  54.020         35.00	     6.481
  54.040         34.17	     6.403
  54.060         35.00	     6.481
  54.080         39.17	     6.856
  54.100         30.83	     6.083
  54.120         35.83	     6.557
  54.140         25.00	     5.477
  54.160         34.17	     6.403
  54.180         31.67	     6.164
  54.200         31.67	     6.164
  54.220         34.17	     6.403
  54.240         35.83	     6.557
  54.260         39.17	     6.856
  54.280         34.17	     6.403
  54.300         47.50	     7.550
  54.320         50.83	     7.810
  54.340         47.50	     7.550
  54.360         35.00	     6.481
  54.380         27.50	     5.745
  54.400         37.50	     6.708
  54.420         31.67	     6.164
  54.440         53.33	     8.000
  54.460         43.33	     7.211
  54.480         37.50	     6.708
  54.500         35.00	     6.481
  54.520         45.83	     7.416
  54.540         37.50	     6.708
  54.560         28.33	     5.831
  54.580         43.33	     7.211
  54.600         24.17	     5.385
  54.620         35.00	     6.481
  54.640         39.17	     6.856
  54.660         40.83	     7.000
  54.680         42.50	     7.141
  54.700         44.17	     7.280
  54.720         45.83	     7.416
  54.740         61.67	     8.602
  54.760         61.67	     8.602
  54.780         80.83	     9.849
  54.800         99.17	    10.909
  54.820        144.17	    13.153
  54.840        152.50	    13.528
  54.860        177.50	    14.595
  54.880        135.00	    12.728
  54.900         99.17	    10.909
  54.920         75.83	     9.539
  54.940         71.67	     9.274
  54.960         87.50	    10.247
  54.980        105.83	    11.269
  55.000        116.67	    11.832
  55.020        105.83	    11.269
  55.040         73.33	     9.381
  55.060         56.67	     8.246
  55.080         60.00	     8.485
  55.100         42.50	     7.141
  55.120         44.17	     7.280
  55.140         40.83	     7.000
  55.160         51.67	     7.874
  55.180         41.67	     7.071
  55.200         39.17	     6.856
  55.220         55.00	     8.124
  55.240         56.67	     8.246
  55.260         56.67	     8.246
  55.280         85.00	    10.100
  55.300         74.17	     9.434
  55.320         97.50	    10.817
  55.340         80.83	     9.849
  55.360         68.33	     9.055
  55.380         63.33	     8.718
  55.400         54.17	     8.062
  55.420         54.17	     8.062
  55.440         71.67	     9.274
  55.460         76.67	     9.592
  55.480         70.83	     9.220
  55.500         54.17	     8.062
  55.520         56.67	     8.246
  55.540         41.67	     7.071
  55.560         42.50	     7.141
  55.580         37.50	     6.708
  55.600         41.67	     7.071
  55.620         40.00	     6.928
  55.640         35.00	     6.481
  55.660         40.83	     7.000
  55.680         50.00	     7.746
  55.700         50.83	     7.810
  55.720         42.50	     7.141
  55.740         49.17	     7.681
  55.760         43.33	     7.211
  55.780         60.00	     8.485
  55.800         56.67	     8.246
  55.820         50.83	     7.810
  55.840         50.00	     7.746
  55.860         61.67	     8.602
  55.880         41.67	     7.071
  55.900         46.67	     7.483
  55.920         35.83	     6.557
  55.940         51.67	     7.874
  55.960         50.00	     7.746
  55.980         45.83	     7.416
  56.000         40.83	     7.000
  56.020         45.00	     7.348
  56.040         39.17	     6.856
  56.060         37.50	     6.708
  56.080         40.83	     7.000
  56.100         38.33	     6.782
  56.120         35.83	     6.557
  56.140         35.83	     6.557
  56.160         39.17	     6.856
  56.180         33.33	     6.325
  56.200         30.00	     6.000
  56.220         30.00	     6.000
  56.240         35.83	     6.557
  56.260         32.50	     6.245
  56.280         30.83	     6.083
  56.300         34.17	     6.403
  56.320         37.50	     6.708
  56.340         27.50	     5.745
  56.360         31.67	     6.164
  56.380         29.17	     5.916
  56.400         35.83	     6.557
  56.420         32.50	     6.245
  56.440         32.50	     6.245
  56.460         34.17	     6.403
  56.480         29.17	     5.916
  56.500         22.50	     5.196
  56.520         32.50	     6.245
  56.540         31.67	     6.164
  56.560         51.67	     7.874
  56.580         37.50	     6.708
  56.600         29.17	     5.916
  56.620         40.83	     7.000
  56.640         33.33	     6.325
  56.660         39.17	     6.856
  56.680         37.50	     6.708
  56.700         39.17	     6.856
  56.720         39.17	     6.856
  56.740         40.00	     6.928
  56.760         25.83	     5.568
  56.780         40.83	     7.000
  56.800         26.67	     5.657
  56.820         32.50	     6.245
  56.840         39.17	     6.856
  56.860         37.50	     6.708
  56.880         34.17	     6.403
  56.900         36.67	     6.633
  56.920         30.00	     6.000
  56.940         38.33	     6.782
  56.960         40.83	     7.000
  56.980         36.67	     6.633
  57.000         33.33	     6.325
  57.020         34.17	     6.403
  57.040         32.50	     6.245
  57.060         40.00	     6.928
  57.080         25.83	     5.568
  57.100         40.83	     7.000
  57.120         36.67	     6.633
  57.140         28.33	     5.831
  57.160         60.00	     8.485
  57.180         51.67	     7.874
  57.200         55.00	     8.124
  57.220         51.67	     7.874
  57.240         46.67	     7.483
  57.260         35.00	     6.481
  57.280         37.50	     6.708
  57.300         47.50	     7.550
  57.320         51.67	     7.874
  57.340         54.17	     8.062
  57.360         61.67	     8.602
  57.380         50.00	     7.746
  57.400         31.67	     6.164
  57.420         37.50	     6.708
  57.440         36.67	     6.633
  57.460         30.83	     6.083
  57.480         33.33	     6.325
  57.500         33.33	     6.325
  57.520         28.33	     5.831
  57.540         44.17	     7.280
  57.560         42.50	     7.141
  57.580         36.67	     6.633
  57.600         33.33	     6.325
  57.620         38.33	     6.782
  57.640         32.50	     6.245
  57.660         35.83	     6.557
  57.680         38.33	     6.782
  57.700         33.33	     6.325
  57.720         36.67	     6.633
  57.740         26.67	     5.657
  57.760         37.50	     6.708
  57.780         31.67	     6.164
  57.800         30.83	     6.083
  57.820         33.33	     6.325
  57.840         25.00	     5.477
  57.860         30.00	     6.000
  57.880         26.67	     5.657
  57.900         30.83	     6.083
  57.920         26.67	     5.657
  57.940         26.67	     5.657
  57.960         35.00	     6.481
  57.980         34.17	     6.403
  58.000         32.50	     6.245
  58.020         26.67	     5.657
  58.040         39.17	     6.856
  58.060         20.83	     5.000
  58.080         33.33	     6.325
  58.100         40.83	     7.000
  58.120         35.00	     6.481
  58.140         35.83	     6.557
  58.160         33.33	     6.325
  58.180         27.50	     5.745
  58.200         23.33	     5.292
  58.220         24.17	     5.385
  58.240         28.33	     5.831
  58.260         35.83	     6.557
  58.280         38.33	     6.782
  58.300         30.00	     6.000
  58.320         31.67	     6.164
  58.340         34.17	     6.403
  58.360         39.17	     6.856
  58.380         33.33	     6.325
  58.400         30.00	     6.000
  58.420         40.83	     7.000
  58.440         47.50	     7.550
  58.460         45.83	     7.416
  58.480         54.17	     8.062
  58.500         57.50	     8.307
  58.520         48.33	     7.616
  58.540         50.83	     7.810
  58.560         45.00	     7.348
  58.580         50.83	     7.810
  58.600         41.67	     7.071
  58.620         55.00	     8.124
  58.640         63.33	     8.718
  58.660         70.00	     9.165
  58.680         55.00	     8.124
  58.700         51.67	     7.874
  58.720         46.67	     7.483
  58.740         52.50	     7.937
  58.760         49.17	     7.681
  58.780         40.83	     7.000
  58.800         43.33	     7.211
  58.820         25.83	     5.568
  58.840         43.33	     7.211
  58.860         35.83	     6.557
  58.880         27.50	     5.745
  58.900         50.83	     7.810
  58.920         42.50	     7.141
  58.940         35.83	     6.557
  58.960         45.83	     7.416
  58.980         40.00	     6.928
  59.000         39.17	     6.856
  59.020         42.50	     7.141
  59.040         50.00	     7.746
  59.060         40.83	     7.000
  59.080         44.17	     7.280
  59.100         30.83	     6.083
  59.120         44.17	     7.280
  59.140         35.83	     6.557
  59.160         57.50	     8.307
  59.180         39.17	     6.856
  59.200         42.50	     7.141
  59.220         43.33	     7.211
  59.240         49.17	     7.681
  59.260         30.00	     6.000
  59.280         48.33	     7.616
  59.300         39.17	     6.856
  59.320         46.67	     7.483
  59.340         24.17	     5.385
  59.360         27.50	     5.745
  59.380         43.33	     7.211
  59.400         33.33	     6.325
  59.420         41.67	     7.071
  59.440         32.50	     6.245
  59.460         35.00	     6.481
  59.480         42.50	     7.141
  59.500         32.50	     6.245
  59.520         39.17	     6.856
  59.540         43.33	     7.211
  59.560         25.00	     5.477
  59.580         38.33	     6.782
  59.600         41.67	     7.071
  59.620         41.67	     7.071
  59.640         35.83	     6.557
  59.660         48.33	     7.616
  59.680         45.00	     7.348
  59.700         38.33	     6.782
  59.720         48.33	     7.616
  59.740         51.67	     7.874
  59.760         56.67	     8.246
  59.780         58.33	     8.367
  59.800         71.67	     9.274
  59.820         93.33	    10.583
  59.840         84.17	    10.050
  59.860        151.67	    13.491
  59.880        181.67	    14.765
  59.900        285.00	    18.493
  59.920        394.17	    21.749
  59.940        460.00	    23.495
  59.960        398.33	    21.863
  59.980        280.83	    18.358
  60.000        164.17	    14.036
  60.020        145.00	    13.191
  60.040        136.67	    12.806
  60.060        160.83	    13.892
  60.080        230.00	    16.613
  60.100        272.50	    18.083
  60.120        235.83	    16.823
  60.140        180.83	    14.731
  60.160        112.50	    11.619
  60.180         88.33	    10.296
  60.200         50.00	     7.746
  60.220         52.50	     7.937
  60.240         50.00	     7.746
  60.260         45.83	     7.416
  60.280         45.00	     7.348
  60.300         33.33	     6.325
  60.320         50.00	     7.746
  60.340         49.17	     7.681
  60.360         41.67	     7.071
  60.380         46.67	     7.483
  60.400         44.17	     7.280
  60.420         47.50	     7.550
  60.440         50.83	     7.810
  60.460         51.67	     7.874
  60.480         52.50	     7.937
  60.500         39.17	     6.856
  60.520         33.33	     6.325
  60.540         43.33	     7.211
  60.560         33.33	     6.325
  60.580         45.00	     7.348
  60.600         42.50	     7.141
  60.620         30.83	     6.083
  60.640         32.50	     6.245
  60.660         41.67	     7.071
  60.680         20.83	     5.000
  60.700         34.17	     6.403
  60.720         37.50	     6.708
  60.740         26.67	     5.657
  60.760         50.00	     7.746
  60.780         49.17	     7.681
  60.800         45.00	     7.348
  60.820         44.17	     7.280
  60.840         32.50	     6.245
  60.860         47.50	     7.550
  60.880         35.00	     6.481
  60.900         31.67	     6.164
  60.920         39.17	     6.856
  60.940         35.83	     6.557
  60.960         53.33	     8.000
  60.980         34.17	     6.403
  61.000         45.83	     7.416
  61.020         35.83	     6.557
  61.040         50.00	     7.746
  61.060         48.33	     7.616
  61.080         42.50	     7.141
  61.100         26.67	     5.657
  61.120         43.33	     7.211
  61.140         45.00	     7.348
  61.160         50.00	     7.746
  61.180         40.00	     6.928
  61.200         30.83	     6.083
  61.220         40.83	     7.000
  61.240         53.33	     8.000
  61.260         34.17	     6.403
  61.280         40.83	     7.000
  61.300         51.67	     7.874
  61.320         40.83	     7.000
  61.340         40.83	     7.000
  61.360         41.67	     7.071
  61.380         47.50	     7.550
  61.400         56.67	     8.246
  61.420         73.33	     9.381
  61.440         95.00	    10.677
  61.460        127.50	    12.369
  61.480         89.17	    10.344
  61.500         74.17	     9.434
  61.520         69.17	     9.110
  61.540         50.00	     7.746
  61.560         59.17	     8.426
  61.580         45.00	     7.348
  61.600         63.33	     8.718
  61.620         71.67	     9.274
  61.640         72.50	     9.327
  61.660         68.33	     9.055
  61.680         66.67	     8.944
  61.700         55.00	     8.124
  61.720         41.67	     7.071
  61.740         52.50	     7.937
  61.760         56.67	     8.246
  61.780         33.33	     6.325
  61.800         37.50	     6.708
  61.820         45.83	     7.416
  61.840         53.33	     8.000
  61.860         42.50	     7.141
  61.880         47.50	     7.550
  61.900         44.17	     7.280
  61.920         43.33	     7.211
  61.940         43.33	     7.211
  61.960         50.00	     7.746
  61.980         53.33	     8.000
  62.000         33.33	     6.325
  62.020         38.33	     6.782
  62.040         47.50	     7.550
  62.060         50.00	     7.746
  62.080         54.17	     8.062
  62.100         37.50	     6.708
  62.120         43.33	     7.211
  62.140         34.17	     6.403
  62.160         36.67	     6.633
  62.180         34.17	     6.403
  62.200         38.33	     6.782
  62.220         30.83	     6.083
  62.240         24.17	     5.385
  62.260         35.00	     6.481
  62.280         32.50	     6.245
  62.300         30.00	     6.000
  62.320         35.00	     6.481
  62.340         32.50	     6.245
  62.360         26.67	     5.657
  62.380         30.83	     6.083
  62.400         32.50	     6.245
  62.420         35.83	     6.557
  62.440         35.00	     6.481
  62.460         34.17	     6.403
  62.480         25.83	     5.568
  62.500         33.33	     6.325
  62.520         32.50	     6.245
  62.540         40.00	     6.928
  62.560         27.50	     5.745
  62.580         25.83	     5.568
  62.600         35.00	     6.481
  62.620         34.17	     6.403
  62.640         35.00	     6.481
  62.660         31.67	     6.164
  62.680         33.33	     6.325
  62.700         28.33	     5.831
  62.720         36.67	     6.633
  62.740         27.50	     5.745
  62.760         32.50	     6.245
  62.780         39.17	     6.856
  62.800         30.83	     6.083
  62.820         21.67	     5.099
  62.840         43.33	     7.211
  62.860         32.50	     6.245
  62.880         25.83	     5.568
  62.900         29.17	     5.916
  62.920         30.83	     6.083
  62.940         30.00	     6.000
  62.960         37.50	     6.708
  62.980         35.00	     6.481
  63.000         25.83	     5.568
  63.020         32.50	     6.245
  63.040         28.33	     5.831
  63.060         35.83	     6.557
  63.080         37.50	     6.708
  63.100         44.17	     7.280
  63.120         29.17	     5.916
  63.140         30.83	     6.083
  63.160         37.50	     6.708
  63.180         40.83	     7.000
  63.200         30.00	     6.000
  63.220         31.67	     6.164
  63.240         38.33	     6.782
  63.260         30.83	     6.083
  63.280         30.83	     6.083
  63.300         42.50	     7.141
  63.320         40.00	     6.928
  63.340         35.83	     6.557
  63.360         39.17	     6.856
  63.380         37.50	     6.708
  63.400         41.67	     7.071
  63.420         36.67	     6.633
  63.440         40.00	     6.928
  63.460         42.50	     7.141
  63.480         38.33	     6.782
  63.500         41.67	     7.071
  63.520         34.17	     6.403
  63.540         40.00	     6.928
  63.560         45.00	     7.348
  63.580         37.50	     6.708
  63.600         37.50	     6.708
  63.620         43.33	     7.211
  63.640         25.83	     5.568
  63.660         43.33	     7.211
  63.680         42.50	     7.141
  63.700         45.83	     7.416
  63.720         50.83	     7.810
  63.740         51.67	     7.874
  63.760         48.33	     7.616
  63.780         45.00	     7.348
  63.800         52.50	     7.937
  63.820         72.50	     9.327
  63.840         78.33	     9.695
  63.860         50.83	     7.810
  63.880         55.83	     8.185
  63.900         45.83	     7.416
  63.920         58.33	     8.367
  63.940         54.17	     8.062
  63.960         65.00	     8.832
  63.980         82.50	     9.950
  64.000         75.00	     9.487
  64.020         69.17	     9.110
  64.040         55.83	     8.185
  64.060         61.67	     8.602
  64.080         60.00	     8.485
  64.100         61.67	     8.602
  64.120         48.33	     7.616
  64.140         55.00	     8.124
  64.160         55.00	     8.124
  64.180         66.67	     8.944
  64.200         53.33	     8.000
  64.220         55.83	     8.185
  64.240         47.50	     7.550
  64.260         44.17	     7.280
  64.280         48.33	     7.616
  64.300         30.00	     6.000
  64.320         39.17	     6.856
  64.340         41.67	     7.071
  64.360         50.00	     7.746
  64.380         38.33	     6.782
  64.400         45.83	     7.416
  64.420         32.50	     6.245
  64.440         38.33	     6.782
  64.460         20.83	     5.000
  64.480         28.33	     5.831
  64.500         37.50	     6.708
  64.520         33.33	     6.325
  64.540         44.17	     7.280
  64.560         51.67	     7.874
  64.580         45.00	     7.348
  64.600         46.67	     7.483
  64.620         43.33	     7.211
  64.640         35.00	     6.481
  64.660         49.17	     7.681
  64.680         35.00	     6.481
  64.700         41.67	     7.071
  64.720         52.50	     7.937
  64.740         45.00	     7.348
  64.760         56.67	     8.246
  64.780         46.67	     7.483
  64.800         55.00	     8.124
  64.820         37.50	     6.708
  64.840         49.17	     7.681
  64.860         35.00	     6.481
  64.880         40.00	     6.928
  64.900         30.00	     6.000
  64.920         40.00	     6.928
  64.940         45.83	     7.416
  64.960         44.17	     7.280
  64.980         38.33	     6.782
  65.000         42.50	     7.141
