
Filename:
	C:\Program Files\Thermo Electron\WinXRD\Datafiles\F_HERMAN\FIEN\4_22_FT.raw

File Created:
	October 01, 2019 - 03:08 PM

Specimen Id:
	4.22 FILTRE RT

Specimen Name:
	

Specimen Description:
	

Comment:
Scan Type: 2Theta Scan
Start Angle: 1 deg.
Stop Angle: 65 deg.
Num Points: 3201
Step Size: 0.02 deg.
Scan Rate: 1.000000
Scan Mode: Continuous
Wavelength: 1.540562
\Kalpha1: 1.540562	\Kalpha2: 1.544390	\Kbeta: 1.392218

Optics:
		Detector:
			 Type: Fixed Slits
		Tube: 
			 Type: Fixed Slits


Datas:
 Pos [deg]       Rate [CPS]      ESD [-]

Range 1 ---> Iteration 1
   1.000          0.00	     0.000
   1.020          0.00	     0.000
   1.040          0.00	     0.000
   1.060          0.00	     0.000
   1.080          0.00	     0.000
   1.100          0.00	     0.000
   1.120        132.50	    12.610
   1.140        252.50	    17.407
   1.160        405.00	    22.045
   1.180        510.00	    24.739
   1.200        466.67	    23.664
   1.220        176.67	    14.560
   1.240        211.67	    15.937
   1.260        356.67	    20.688
   1.280        336.67	    20.100
   1.300        355.83	    20.664
   1.320        238.33	    16.912
   1.340        399.17	    21.886
   1.360        352.50	    20.567
   1.380        375.00	    21.213
   1.400        630.83	    27.514
   1.420        866.67	    32.249
   1.440       1088.33	    36.139
   1.460       1503.33	    42.474
   1.480       2300.83	    52.545
   1.500       2736.67	    57.306
   1.520       2931.67	    59.313
   1.540       2723.33	    57.166
   1.560       2686.67	    56.780
   1.580       2691.67	    56.833
   1.600       2500.83	    54.781
   1.620       2311.67	    52.669
   1.640       2571.67	    55.552
   1.660       2509.17	    54.873
   1.680       2357.50	    53.188
   1.700       2400.00	    53.666
   1.720       2384.17	    53.488
   1.740       2394.17	    53.600
   1.760       2200.83	    51.391
   1.780       2132.50	    50.587
   1.800       2014.17	    49.163
   1.820       1887.50	    47.592
   1.840       1680.00	    44.900
   1.860       1513.33	    42.615
   1.880       1400.83	    41.000
   1.900       1287.50	    39.306
   1.920       1125.00	    36.742
   1.940       1034.17	    35.228
   1.960        910.83	    33.061
   1.980        829.17	    31.544
   2.000        792.50	    30.838
   2.020        857.50	    32.078
   2.040        819.17	    31.353
   2.060        786.67	    30.725
   2.080        795.83	    30.903
   2.100        772.50	    30.447
   2.120        770.83	    30.414
   2.140        765.83	    30.315
   2.160        712.50	    29.240
   2.180        740.83	    29.816
   2.200        685.83	    28.688
   2.220        711.67	    29.223
   2.240        721.67	    29.428
   2.260        715.83	    29.309
   2.280        705.00	    29.086
   2.300        667.50	    28.302
   2.320        695.83	    28.896
   2.340        678.33	    28.531
   2.360        693.33	    28.844
   2.380        661.67	    28.178
   2.400        668.33	    28.320
   2.420        590.00	    26.608
   2.440        695.00	    28.879
   2.460        654.17	    28.018
   2.480        650.83	    27.946
   2.500        604.17	    26.926
   2.520        579.17	    26.363
   2.540        587.50	    26.552
   2.560        588.33	    26.571
   2.580        578.33	    26.344
   2.600        545.83	    25.593
   2.620        575.83	    26.287
   2.640        567.50	    26.096
   2.660        535.00	    25.338
   2.680        619.17	    27.258
   2.700        590.00	    26.608
   2.720        570.00	    26.153
   2.740        519.17	    24.960
   2.760        523.33	    25.060
   2.780        537.50	    25.397
   2.800        581.67	    26.420
   2.820        544.17	    25.554
   2.840        528.33	    25.179
   2.860        545.83	    25.593
   2.880        503.33	    24.576
   2.900        512.50	    24.799
   2.920        511.67	    24.779
   2.940        496.67	    24.413
   2.960        468.33	    23.707
   2.980        476.67	    23.917
   3.000        505.83	    24.637
   3.020        508.33	    24.698
   3.040        515.83	    24.880
   3.060        442.50	    23.043
   3.080        455.00	    23.367
   3.100        457.50	    23.431
   3.120        471.67	    23.791
   3.140        470.00	    23.749
   3.160        449.17	    23.216
   3.180        412.50	    22.249
   3.200        445.00	    23.108
   3.220        440.00	    22.978
   3.240        427.50	    22.650
   3.260        456.67	    23.409
   3.280        431.67	    22.760
   3.300        449.17	    23.216
   3.320        425.00	    22.583
   3.340        435.83	    22.869
   3.360        434.17	    22.825
   3.380        420.00	    22.450
   3.400        410.83	    22.204
   3.420        405.83	    22.068
   3.440        410.00	    22.181
   3.460        420.83	    22.472
   3.480        415.83	    22.338
   3.500        367.50	    21.000
   3.520        430.00	    22.716
   3.540        408.33	    22.136
   3.560        421.67	    22.494
   3.580        400.83	    21.932
   3.600        413.33	    22.271
   3.620        396.67	    21.817
   3.640        420.83	    22.472
   3.660        389.17	    21.610
   3.680        390.83	    21.656
   3.700        395.83	    21.794
   3.720        350.00	    20.494
   3.740        369.17	    21.048
   3.760        391.67	    21.679
   3.780        387.50	    21.564
   3.800        366.67	    20.976
   3.820        381.67	    21.401
   3.840        336.67	    20.100
   3.860        349.17	    20.469
   3.880        336.67	    20.100
   3.900        410.83	    22.204
   3.920        350.00	    20.494
   3.940        357.50	    20.712
   3.960        337.50	    20.125
   3.980        366.67	    20.976
   4.000        340.00	    20.199
   4.020        357.50	    20.712
   4.040        338.33	    20.149
   4.060        335.00	    20.050
   4.080        330.83	    19.925
   4.100        328.33	    19.849
   4.120        348.33	    20.445
   4.140        348.33	    20.445
   4.160        325.00	    19.748
   4.180        325.00	    19.748
   4.200        321.67	    19.647
   4.220        313.33	    19.391
   4.240        299.17	    18.947
   4.260        309.17	    19.261
   4.280        356.67	    20.688
   4.300        336.67	    20.100
   4.320        295.83	    18.841
   4.340        317.50	    19.519
   4.360        339.17	    20.174
   4.380        319.17	    19.570
   4.400        300.00	    18.974
   4.420        325.00	    19.748
   4.440        310.83	    19.313
   4.460        297.50	    18.894
   4.480        279.17	    18.303
   4.500        299.17	    18.947
   4.520        306.67	    19.183
   4.540        285.83	    18.520
   4.560        265.00	    17.833
   4.580        299.17	    18.947
   4.600        279.17	    18.303
   4.620        300.83	    19.000
   4.640        275.00	    18.166
   4.660        307.50	    19.209
   4.680        255.83	    17.521
   4.700        290.83	    18.682
   4.720        289.17	    18.628
   4.740        294.17	    18.788
   4.760        277.50	    18.248
   4.780        272.50	    18.083
   4.800        304.17	    19.105
   4.820        294.17	    18.788
   4.840        251.67	    17.378
   4.860        266.67	    17.889
   4.880        266.67	    17.889
   4.900        276.67	    18.221
   4.920        303.33	    19.079
   4.940        295.83	    18.841
   4.960        261.67	    17.720
   4.980        235.83	    16.823
   5.000        240.00	    16.971
   5.020        261.67	    17.720
   5.040        260.83	    17.692
   5.060        273.33	    18.111
   5.080        272.50	    18.083
   5.100        247.50	    17.234
   5.120        275.00	    18.166
   5.140        263.33	    17.776
   5.160        250.00	    17.321
   5.180        263.33	    17.776
   5.200        270.00	    18.000
   5.220        270.00	    18.000
   5.240        260.83	    17.692
   5.260        273.33	    18.111
   5.280        271.67	    18.055
   5.300        240.00	    16.971
   5.320        260.83	    17.692
   5.340        229.17	    16.583
   5.360        290.00	    18.655
   5.380        232.50	    16.703
   5.400        250.83	    17.349
   5.420        279.17	    18.303
   5.440        272.50	    18.083
   5.460        265.83	    17.861
   5.480        243.33	    17.088
   5.500        258.33	    17.607
   5.520        238.33	    16.912
   5.540        239.17	    16.941
   5.560        229.17	    16.583
   5.580        250.00	    17.321
   5.600        265.00	    17.833
   5.620        270.83	    18.028
   5.640        255.83	    17.521
   5.660        269.17	    17.972
   5.680        277.50	    18.248
   5.700        273.33	    18.111
   5.720        303.33	    19.079
   5.740        293.33	    18.762
   5.760        306.67	    19.183
   5.780        335.83	    20.075
   5.800        378.33	    21.307
   5.820        405.83	    22.068
   5.840        380.83	    21.378
   5.860        363.33	    20.881
   5.880        271.67	    18.055
   5.900        274.17	    18.138
   5.920        265.00	    17.833
   5.940        267.50	    17.916
   5.960        282.50	    18.412
   5.980        268.33	    17.944
   6.000        272.50	    18.083
   6.020        268.33	    17.944
   6.040        265.00	    17.833
   6.060        250.83	    17.349
   6.080        260.00	    17.664
   6.100        292.50	    18.735
   6.120        277.50	    18.248
   6.140        278.33	    18.276
   6.160        240.00	    16.971
   6.180        238.33	    16.912
   6.200        230.83	    16.643
   6.220        220.00	    16.248
   6.240        230.83	    16.643
   6.260        227.50	    16.523
   6.280        211.67	    15.937
   6.300        230.83	    16.643
   6.320        215.00	    16.062
   6.340        209.17	    15.843
   6.360        195.00	    15.297
   6.380        213.33	    16.000
   6.400        205.83	    15.716
   6.420        194.17	    15.264
   6.440        200.00	    15.492
   6.460        225.00	    16.432
   6.480        197.50	    15.395
   6.500        206.67	    15.748
   6.520        212.50	    15.969
   6.540        214.17	    16.031
   6.560        205.83	    15.716
   6.580        211.67	    15.937
   6.600        186.67	    14.967
   6.620        203.33	    15.620
   6.640        210.83	    15.906
   6.660        203.33	    15.620
   6.680        183.33	    14.832
   6.700        198.33	    15.427
   6.720        193.33	    15.232
   6.740        214.17	    16.031
   6.760        183.33	    14.832
   6.780        207.50	    15.780
   6.800        171.67	    14.353
   6.820        206.67	    15.748
   6.840        182.50	    14.799
   6.860        176.67	    14.560
   6.880        210.00	    15.875
   6.900        182.50	    14.799
   6.920        165.83	    14.107
   6.940        178.33	    14.629
   6.960        195.83	    15.330
   6.980        203.33	    15.620
   7.000        189.17	    15.067
   7.020        194.17	    15.264
   7.040        175.00	    14.491
   7.060        210.00	    15.875
   7.080        185.00	    14.900
   7.100        190.83	    15.133
   7.120        168.33	    14.213
   7.140        184.17	    14.866
   7.160        175.83	    14.526
   7.180        216.67	    16.125
   7.200        177.50	    14.595
   7.220        178.33	    14.629
   7.240        170.83	    14.318
   7.260        180.83	    14.731
   7.280        185.00	    14.900
   7.300        173.33	    14.422
   7.320        170.83	    14.318
   7.340        192.50	    15.199
   7.360        157.50	    13.748
   7.380        163.33	    14.000
   7.400        169.17	    14.248
   7.420        165.83	    14.107
   7.440        168.33	    14.213
   7.460        170.00	    14.283
   7.480        162.50	    13.964
   7.500        153.33	    13.565
   7.520        165.00	    14.071
   7.540        161.67	    13.928
   7.560        162.50	    13.964
   7.580        165.00	    14.071
   7.600        170.00	    14.283
   7.620        175.83	    14.526
   7.640        154.17	    13.601
   7.660        150.00	    13.416
   7.680        165.00	    14.071
   7.700        157.50	    13.748
   7.720        157.50	    13.748
   7.740        172.50	    14.387
   7.760        188.33	    15.033
   7.780        180.00	    14.697
   7.800        173.33	    14.422
   7.820        150.83	    13.454
   7.840        175.00	    14.491
   7.860        151.67	    13.491
   7.880        150.00	    13.416
   7.900        145.00	    13.191
   7.920        163.33	    14.000
   7.940        157.50	    13.748
   7.960        166.67	    14.142
   7.980        143.33	    13.115
   8.000        150.00	    13.416
   8.020        150.83	    13.454
   8.040        160.83	    13.892
   8.060        158.33	    13.784
   8.080        151.67	    13.491
   8.100        145.83	    13.229
   8.120        163.33	    14.000
   8.140        152.50	    13.528
   8.160        173.33	    14.422
   8.180        158.33	    13.784
   8.200        162.50	    13.964
   8.220        165.00	    14.071
   8.240        160.83	    13.892
   8.260        150.83	    13.454
   8.280        155.83	    13.675
   8.300        160.00	    13.856
   8.320        171.67	    14.353
   8.340        176.67	    14.560
   8.360        156.67	    13.711
   8.380        149.17	    13.379
   8.400        168.33	    14.213
   8.420        152.50	    13.528
   8.440        165.00	    14.071
   8.460        190.00	    15.100
   8.480        181.67	    14.765
   8.500        192.50	    15.199
   8.520        170.83	    14.318
   8.540        189.17	    15.067
   8.560        208.33	    15.811
   8.580        229.17	    16.583
   8.600        230.83	    16.643
   8.620        280.83	    18.358
   8.640        314.17	    19.416
   8.660        363.33	    20.881
   8.680        433.33	    22.804
   8.700        524.17	    25.080
   8.720        663.33	    28.213
   8.740        683.33	    28.636
   8.760        684.17	    28.653
   8.780        523.33	    25.060
   8.800        406.67	    22.091
   8.820        266.67	    17.889
   8.840        212.50	    15.969
   8.860        172.50	    14.387
   8.880        164.17	    14.036
   8.900        162.50	    13.964
   8.920        156.67	    13.711
   8.940        176.67	    14.560
   8.960        155.83	    13.675
   8.980        173.33	    14.422
   9.000        204.17	    15.652
   9.020        197.50	    15.395
   9.040        195.00	    15.297
   9.060        185.00	    14.900
   9.080        180.83	    14.731
   9.100        166.67	    14.142
   9.120        155.00	    13.638
   9.140        150.83	    13.454
   9.160        133.33	    12.649
   9.180        124.17	    12.207
   9.200        121.67	    12.083
   9.220        146.67	    13.266
   9.240        128.33	    12.410
   9.260        143.33	    13.115
   9.280        144.17	    13.153
   9.300        122.50	    12.124
   9.320        123.33	    12.166
   9.340        145.83	    13.229
   9.360        147.50	    13.304
   9.380        120.83	    12.042
   9.400        143.33	    13.115
   9.420        153.33	    13.565
   9.440        128.33	    12.410
   9.460        120.83	    12.042
   9.480        146.67	    13.266
   9.500        113.33	    11.662
   9.520        126.67	    12.329
   9.540        125.00	    12.247
   9.560        139.17	    12.923
   9.580        129.17	    12.450
   9.600        139.17	    12.923
   9.620        108.33	    11.402
   9.640        124.17	    12.207
   9.660        116.67	    11.832
   9.680        117.50	    11.874
   9.700        144.17	    13.153
   9.720        152.50	    13.528
   9.740        115.83	    11.790
   9.760         90.83	    10.440
   9.780        127.50	    12.369
   9.800        106.67	    11.314
   9.820        113.33	    11.662
   9.840         93.33	    10.583
   9.860        129.17	    12.450
   9.880        133.33	    12.649
   9.900        123.33	    12.166
   9.920        110.83	    11.533
   9.940        110.83	    11.533
   9.960        119.17	    11.958
   9.980        128.33	    12.410
  10.000         93.33	    10.583
  10.020        107.50	    11.358
  10.040        112.50	    11.619
  10.060        123.33	    12.166
  10.080        107.50	    11.358
  10.100        112.50	    11.619
  10.120        102.50	    11.091
  10.140        140.00	    12.961
  10.160        124.17	    12.207
  10.180         89.17	    10.344
  10.200        129.17	    12.450
  10.220        113.33	    11.662
  10.240        106.67	    11.314
  10.260        110.00	    11.489
  10.280        108.33	    11.402
  10.300        113.33	    11.662
  10.320        117.50	    11.874
  10.340        132.50	    12.610
  10.360        167.50	    14.177
  10.380        157.50	    13.748
  10.400        153.33	    13.565
  10.420        145.00	    13.191
  10.440        117.50	    11.874
  10.460        104.17	    11.180
  10.480        110.83	    11.533
  10.500        100.83	    11.000
  10.520        115.00	    11.747
  10.540        126.67	    12.329
  10.560        114.17	    11.705
  10.580        100.00	    10.954
  10.600        115.83	    11.790
  10.620        115.00	    11.747
  10.640         97.50	    10.817
  10.660        105.83	    11.269
  10.680        110.00	    11.489
  10.700        101.67	    11.045
  10.720        116.67	    11.832
  10.740        101.67	    11.045
  10.760         95.00	    10.677
  10.780        100.83	    11.000
  10.800        114.17	    11.705
  10.820        105.00	    11.225
  10.840         95.83	    10.724
  10.860         90.00	    10.392
  10.880        115.83	    11.790
  10.900         90.83	    10.440
  10.920         92.50	    10.536
  10.940        102.50	    11.091
  10.960        104.17	    11.180
  10.980         93.33	    10.583
  11.000        100.83	    11.000
  11.020         98.33	    10.863
  11.040        102.50	    11.091
  11.060        108.33	    11.402
  11.080         95.00	    10.677
  11.100         95.00	    10.677
  11.120         95.83	    10.724
  11.140         98.33	    10.863
  11.160         95.83	    10.724
  11.180         87.50	    10.247
  11.200        105.00	    11.225
  11.220        113.33	    11.662
  11.240         99.17	    10.909
  11.260         94.17	    10.630
  11.280        103.33	    11.136
  11.300        112.50	    11.619
  11.320         97.50	    10.817
  11.340         89.17	    10.344
  11.360         86.67	    10.198
  11.380         82.50	     9.950
  11.400        105.00	    11.225
  11.420         99.17	    10.909
  11.440         95.83	    10.724
  11.460         75.83	     9.539
  11.480         98.33	    10.863
  11.500         88.33	    10.296
  11.520        108.33	    11.402
  11.540        112.50	    11.619
  11.560         89.17	    10.344
  11.580        101.67	    11.045
  11.600         88.33	    10.296
  11.620        102.50	    11.091
  11.640         90.83	    10.440
  11.660        100.00	    10.954
  11.680        115.00	    11.747
  11.700        113.33	    11.662
  11.720        108.33	    11.402
  11.740        101.67	    11.045
  11.760        110.00	    11.489
  11.780        119.17	    11.958
  11.800        120.00	    12.000
  11.820        117.50	    11.874
  11.840        105.83	    11.269
  11.860        115.83	    11.790
  11.880        100.00	    10.954
  11.900        112.50	    11.619
  11.920        145.00	    13.191
  11.940        162.50	    13.964
  11.960        165.83	    14.107
  11.980        205.00	    15.684
  12.000        273.33	    18.111
  12.020        241.67	    17.029
  12.040        269.17	    17.972
  12.060        264.17	    17.804
  12.080        229.17	    16.583
  12.100        191.67	    15.166
  12.120        181.67	    14.765
  12.140        163.33	    14.000
  12.160        156.67	    13.711
  12.180        165.83	    14.107
  12.200        180.00	    14.697
  12.220        164.17	    14.036
  12.240        193.33	    15.232
  12.260        201.67	    15.556
  12.280        220.83	    16.279
  12.300        312.50	    19.365
  12.320        325.00	    19.748
  12.340        375.83	    21.237
  12.360        407.50	    22.113
  12.380        482.50	    24.062
  12.400        469.17	    23.728
  12.420        390.00	    21.633
  12.440        229.17	    16.583
  12.460        155.00	    13.638
  12.480        109.17	    11.446
  12.500        100.83	    11.000
  12.520        103.33	    11.136
  12.540        111.67	    11.576
  12.560        102.50	    11.091
  12.580        104.17	    11.180
  12.600        108.33	    11.402
  12.620         92.50	    10.536
  12.640         91.67	    10.488
  12.660         70.83	     9.220
  12.680         95.83	    10.724
  12.700         77.50	     9.644
  12.720         98.33	    10.863
  12.740         90.83	    10.440
  12.760         80.83	     9.849
  12.780         95.83	    10.724
  12.800         86.67	    10.198
  12.820         94.17	    10.630
  12.840         70.83	     9.220
  12.860         87.50	    10.247
  12.880         76.67	     9.592
  12.900         79.17	     9.747
  12.920         79.17	     9.747
  12.940         80.00	     9.798
  12.960         87.50	    10.247
  12.980         85.00	    10.100
  13.000         82.50	     9.950
  13.020         77.50	     9.644
  13.040         72.50	     9.327
  13.060         85.83	    10.149
  13.080         72.50	     9.327
  13.100         76.67	     9.592
  13.120         91.67	    10.488
  13.140         78.33	     9.695
  13.160         85.83	    10.149
  13.180         70.00	     9.165
  13.200         90.83	    10.440
  13.220         80.83	     9.849
  13.240         72.50	     9.327
  13.260         79.17	     9.747
  13.280         92.50	    10.536
  13.300         79.17	     9.747
  13.320         66.67	     8.944
  13.340         81.67	     9.899
  13.360         76.67	     9.592
  13.380         71.67	     9.274
  13.400         80.00	     9.798
  13.420         86.67	    10.198
  13.440         71.67	     9.274
  13.460         84.17	    10.050
  13.480        105.00	    11.225
  13.500        102.50	    11.091
  13.520        103.33	    11.136
  13.540        120.83	    12.042
  13.560        143.33	    13.115
  13.580        125.83	    12.288
  13.600         96.67	    10.770
  13.620         93.33	    10.583
  13.640        118.33	    11.916
  13.660        181.67	    14.765
  13.680        260.00	    17.664
  13.700        276.67	    18.221
  13.720        224.17	    16.401
  13.740        200.00	    15.492
  13.760        152.50	    13.528
  13.780        105.00	    11.225
  13.800        110.83	    11.533
  13.820         95.00	    10.677
  13.840         77.50	     9.644
  13.860        117.50	    11.874
  13.880         92.50	    10.536
  13.900         86.67	    10.198
  13.920         80.83	     9.849
  13.940         78.33	     9.695
  13.960         79.17	     9.747
  13.980         61.67	     8.602
  14.000         73.33	     9.381
  14.020         75.83	     9.539
  14.040         71.67	     9.274
  14.060         78.33	     9.695
  14.080         69.17	     9.110
  14.100         75.00	     9.487
  14.120         76.67	     9.592
  14.140         64.17	     8.775
  14.160         75.00	     9.487
  14.180         70.00	     9.165
  14.200         76.67	     9.592
  14.220         74.17	     9.434
  14.240         79.17	     9.747
  14.260         79.17	     9.747
  14.280         72.50	     9.327
  14.300         65.83	     8.888
  14.320         61.67	     8.602
  14.340         72.50	     9.327
  14.360         72.50	     9.327
  14.380         85.83	    10.149
  14.400         68.33	     9.055
  14.420         71.67	     9.274
  14.440         65.83	     8.888
  14.460         72.50	     9.327
  14.480         61.67	     8.602
  14.500         69.17	     9.110
  14.520         65.00	     8.832
  14.540         49.17	     7.681
  14.560         65.00	     8.832
  14.580         55.83	     8.185
  14.600         70.83	     9.220
  14.620         66.67	     8.944
  14.640         56.67	     8.246
  14.660         64.17	     8.775
  14.680         65.83	     8.888
  14.700         72.50	     9.327
  14.720         70.83	     9.220
  14.740         66.67	     8.944
  14.760         67.50	     9.000
  14.780         80.83	     9.849
  14.800         72.50	     9.327
  14.820         69.17	     9.110
  14.840         74.17	     9.434
  14.860         89.17	    10.344
  14.880         74.17	     9.434
  14.900         90.00	    10.392
  14.920         72.50	     9.327
  14.940         80.83	     9.849
  14.960         54.17	     8.062
  14.980         67.50	     9.000
  15.000         76.67	     9.592
  15.020         68.33	     9.055
  15.040         68.33	     9.055
  15.060         63.33	     8.718
  15.080         74.17	     9.434
  15.100         53.33	     8.000
  15.120         64.17	     8.775
  15.140         58.33	     8.367
  15.160         48.33	     7.616
  15.180         61.67	     8.602
  15.200         69.17	     9.110
  15.220         56.67	     8.246
  15.240         66.67	     8.944
  15.260         59.17	     8.426
  15.280         69.17	     9.110
  15.300         65.83	     8.888
  15.320         55.00	     8.124
  15.340         60.00	     8.485
  15.360         66.67	     8.944
  15.380         54.17	     8.062
  15.400         65.00	     8.832
  15.420         60.00	     8.485
  15.440         65.83	     8.888
  15.460         64.17	     8.775
  15.480         69.17	     9.110
  15.500         55.83	     8.185
  15.520         59.17	     8.426
  15.540         68.33	     9.055
  15.560         75.00	     9.487
  15.580         57.50	     8.307
  15.600         65.83	     8.888
  15.620         56.67	     8.246
  15.640         61.67	     8.602
  15.660         55.83	     8.185
  15.680         60.00	     8.485
  15.700         60.00	     8.485
  15.720         81.67	     9.899
  15.740         70.83	     9.220
  15.760         66.67	     8.944
  15.780         65.00	     8.832
  15.800         57.50	     8.307
  15.820         53.33	     8.000
  15.840         62.50	     8.660
  15.860         42.50	     7.141
  15.880         50.00	     7.746
  15.900         63.33	     8.718
  15.920         58.33	     8.367
  15.940         55.00	     8.124
  15.960         57.50	     8.307
  15.980         65.00	     8.832
  16.000         55.00	     8.124
  16.020         55.00	     8.124
  16.040         61.67	     8.602
  16.060         44.17	     7.280
  16.080         59.17	     8.426
  16.100         61.67	     8.602
  16.120         70.00	     9.165
  16.140         60.00	     8.485
  16.160         55.00	     8.124
  16.180         45.00	     7.348
  16.200         60.83	     8.544
  16.220         64.17	     8.775
  16.240         59.17	     8.426
  16.260         54.17	     8.062
  16.280         68.33	     9.055
  16.300         55.00	     8.124
  16.320         45.83	     7.416
  16.340         68.33	     9.055
  16.360         54.17	     8.062
  16.380         57.50	     8.307
  16.400         59.17	     8.426
  16.420         60.00	     8.485
  16.440         58.33	     8.367
  16.460         60.83	     8.544
  16.480         51.67	     7.874
  16.500         56.67	     8.246
  16.520         73.33	     9.381
  16.540         48.33	     7.616
  16.560         53.33	     8.000
  16.580         57.50	     8.307
  16.600         58.33	     8.367
  16.620         66.67	     8.944
  16.640         56.67	     8.246
  16.660         53.33	     8.000
  16.680         43.33	     7.211
  16.700         65.83	     8.888
  16.720         63.33	     8.718
  16.740         55.00	     8.124
  16.760         60.00	     8.485
  16.780         52.50	     7.937
  16.800         48.33	     7.616
  16.820         50.00	     7.746
  16.840         49.17	     7.681
  16.860         55.83	     8.185
  16.880         77.50	     9.644
  16.900         60.00	     8.485
  16.920         60.00	     8.485
  16.940         58.33	     8.367
  16.960         57.50	     8.307
  16.980         70.83	     9.220
  17.000         69.17	     9.110
  17.020         59.17	     8.426
  17.040         59.17	     8.426
  17.060         47.50	     7.550
  17.080         61.67	     8.602
  17.100         50.83	     7.810
  17.120         65.83	     8.888
  17.140         52.50	     7.937
  17.160         55.83	     8.185
  17.180         48.33	     7.616
  17.200         39.17	     6.856
  17.220         42.50	     7.141
  17.240         68.33	     9.055
  17.260         55.00	     8.124
  17.280         60.83	     8.544
  17.300         67.50	     9.000
  17.320         49.17	     7.681
  17.340         50.00	     7.746
  17.360         59.17	     8.426
  17.380         63.33	     8.718
  17.400         76.67	     9.592
  17.420         69.17	     9.110
  17.440         70.83	     9.220
  17.460         73.33	     9.381
  17.480         77.50	     9.644
  17.500         83.33	    10.000
  17.520        104.17	    11.180
  17.540        137.50	    12.845
  17.560        156.67	    13.711
  17.580        181.67	    14.765
  17.600        237.50	    16.882
  17.620        297.50	    18.894
  17.640        353.33	    20.591
  17.660        427.50	    22.650
  17.680        454.17	    23.345
  17.700        419.17	    22.428
  17.720        383.33	    21.448
  17.740        280.00	    18.330
  17.760        191.67	    15.166
  17.780        130.00	    12.490
  17.800         95.00	    10.677
  17.820         91.67	    10.488
  17.840         66.67	     8.944
  17.860         68.33	     9.055
  17.880         75.00	     9.487
  17.900         54.17	     8.062
  17.920         68.33	     9.055
  17.940         60.83	     8.544
  17.960         66.67	     8.944
  17.980         58.33	     8.367
  18.000         58.33	     8.367
  18.020         57.50	     8.307
  18.040         50.83	     7.810
  18.060         66.67	     8.944
  18.080         53.33	     8.000
  18.100         65.83	     8.888
  18.120         60.83	     8.544
  18.140         77.50	     9.644
  18.160         43.33	     7.211
  18.180         66.67	     8.944
  18.200         87.50	    10.247
  18.220         84.17	    10.050
  18.240        110.83	    11.533
  18.260        107.50	    11.358
  18.280        114.17	    11.705
  18.300         84.17	    10.050
  18.320         98.33	    10.863
  18.340         97.50	    10.817
  18.360         82.50	     9.950
  18.380         82.50	     9.950
  18.400        101.67	    11.045
  18.420        124.17	    12.207
  18.440        297.50	    18.894
  18.460        553.33	    25.768
  18.480        524.17	    25.080
  18.500        398.33	    21.863
  18.520        294.17	    18.788
  18.540        158.33	    13.784
  18.560        116.67	    11.832
  18.580        125.00	    12.247
  18.600        160.00	    13.856
  18.620        154.17	    13.601
  18.640        185.83	    14.933
  18.660        239.17	    16.941
  18.680        266.67	    17.889
  18.700        227.50	    16.523
  18.720        213.33	    16.000
  18.740        123.33	    12.166
  18.760        114.17	    11.705
  18.780         94.17	    10.630
  18.800         61.67	     8.602
  18.820         58.33	     8.367
  18.840         87.50	    10.247
  18.860         70.00	     9.165
  18.880         63.33	     8.718
  18.900         45.83	     7.416
  18.920         64.17	     8.775
  18.940         70.83	     9.220
  18.960         61.67	     8.602
  18.980         66.67	     8.944
  19.000         50.83	     7.810
  19.020         75.00	     9.487
  19.040         69.17	     9.110
  19.060         71.67	     9.274
  19.080         60.83	     8.544
  19.100         53.33	     8.000
  19.120         62.50	     8.660
  19.140         75.00	     9.487
  19.160         63.33	     8.718
  19.180         57.50	     8.307
  19.200         52.50	     7.937
  19.220         55.00	     8.124
  19.240         52.50	     7.937
  19.260         62.50	     8.660
  19.280         57.50	     8.307
  19.300         57.50	     8.307
  19.320         63.33	     8.718
  19.340         39.17	     6.856
  19.360         45.00	     7.348
  19.380         57.50	     8.307
  19.400         68.33	     9.055
  19.420         59.17	     8.426
  19.440         55.83	     8.185
  19.460         78.33	     9.695
  19.480         57.50	     8.307
  19.500         75.83	     9.539
  19.520         52.50	     7.937
  19.540         75.83	     9.539
  19.560         72.50	     9.327
  19.580         63.33	     8.718
  19.600         80.00	     9.798
  19.620         77.50	     9.644
  19.640         64.17	     8.775
  19.660         89.17	    10.344
  19.680         92.50	    10.536
  19.700        110.83	    11.533
  19.720         82.50	     9.950
  19.740         85.83	    10.149
  19.760         80.83	     9.849
  19.780         85.00	    10.100
  19.800         59.17	     8.426
  19.820         70.00	     9.165
  19.840         75.83	     9.539
  19.860         70.83	     9.220
  19.880         52.50	     7.937
  19.900         47.50	     7.550
  19.920         56.67	     8.246
  19.940         51.67	     7.874
  19.960         67.50	     9.000
  19.980         64.17	     8.775
  20.000         54.17	     8.062
  20.020         60.83	     8.544
  20.040         68.33	     9.055
  20.060         51.67	     7.874
  20.080         59.17	     8.426
  20.100         63.33	     8.718
  20.120         55.00	     8.124
  20.140         47.50	     7.550
  20.160         61.67	     8.602
  20.180         52.50	     7.937
  20.200         34.17	     6.403
  20.220         53.33	     8.000
  20.240         49.17	     7.681
  20.260         58.33	     8.367
  20.280         64.17	     8.775
  20.300         44.17	     7.280
  20.320         57.50	     8.307
  20.340         61.67	     8.602
  20.360         49.17	     7.681
  20.380         50.83	     7.810
  20.400         47.50	     7.550
  20.420         59.17	     8.426
  20.440         58.33	     8.367
  20.460         43.33	     7.211
  20.480         59.17	     8.426
  20.500         84.17	    10.050
  20.520         60.83	     8.544
  20.540         64.17	     8.775
  20.560         77.50	     9.644
  20.580         97.50	    10.817
  20.600        113.33	    11.662
  20.620        164.17	    14.036
  20.640        266.67	    17.889
  20.660        395.00	    21.772
  20.680        497.50	    24.434
  20.700        638.33	    27.677
  20.720        808.33	    31.145
  20.740        927.50	    33.362
  20.760        768.33	    30.364
  20.780        606.67	    26.981
  20.800        464.17	    23.601
  20.820        330.00	    19.900
  20.840        181.67	    14.765
  20.860        116.67	    11.832
  20.880        135.00	    12.728
  20.900        100.00	    10.954
  20.920        100.83	    11.000
  20.940         80.83	     9.849
  20.960         95.00	    10.677
  20.980         74.17	     9.434
  21.000         60.00	     8.485
  21.020         63.33	     8.718
  21.040         47.50	     7.550
  21.060         49.17	     7.681
  21.080         46.67	     7.483
  21.100         52.50	     7.937
  21.120         53.33	     8.000
  21.140         54.17	     8.062
  21.160         40.00	     6.928
  21.180         55.83	     8.185
  21.200         48.33	     7.616
  21.220         45.83	     7.416
  21.240         55.83	     8.185
  21.260         49.17	     7.681
  21.280         38.33	     6.782
  21.300         50.00	     7.746
  21.320         45.00	     7.348
  21.340         57.50	     8.307
  21.360         63.33	     8.718
  21.380         65.00	     8.832
  21.400         45.00	     7.348
  21.420         57.50	     8.307
  21.440         54.17	     8.062
  21.460         62.50	     8.660
  21.480         57.50	     8.307
  21.500         65.83	     8.888
  21.520         46.67	     7.483
  21.540         52.50	     7.937
  21.560         54.17	     8.062
  21.580         54.17	     8.062
  21.600         61.67	     8.602
  21.620         58.33	     8.367
  21.640         47.50	     7.550
  21.660         55.83	     8.185
  21.680         57.50	     8.307
  21.700         60.83	     8.544
  21.720         55.83	     8.185
  21.740         41.67	     7.071
  21.760         51.67	     7.874
  21.780         60.00	     8.485
  21.800         65.83	     8.888
  21.820         85.00	    10.100
  21.840         97.50	    10.817
  21.860        122.50	    12.124
  21.880        145.83	    13.229
  21.900        175.83	    14.526
  21.920        163.33	    14.000
  21.940        173.33	    14.422
  21.960        151.67	    13.491
  21.980        142.50	    13.077
  22.000        133.33	    12.649
  22.020         96.67	    10.770
  22.040         90.83	    10.440
  22.060         75.83	     9.539
  22.080         74.17	     9.434
  22.100         55.00	     8.124
  22.120         68.33	     9.055
  22.140         64.17	     8.775
  22.160         60.00	     8.485
  22.180         63.33	     8.718
  22.200         70.00	     9.165
  22.220         63.33	     8.718
  22.240         65.83	     8.888
  22.260         64.17	     8.775
  22.280         76.67	     9.592
  22.300         65.83	     8.888
  22.320         60.00	     8.485
  22.340         72.50	     9.327
  22.360         99.17	    10.909
  22.380        129.17	    12.450
  22.400        122.50	    12.124
  22.420        130.83	    12.530
  22.440        100.00	    10.954
  22.460         89.17	    10.344
  22.480         75.00	     9.487
  22.500         65.83	     8.888
  22.520         59.17	     8.426
  22.540         36.67	     6.633
  22.560         60.00	     8.485
  22.580         60.00	     8.485
  22.600         42.50	     7.141
  22.620         44.17	     7.280
  22.640         51.67	     7.874
  22.660         58.33	     8.367
  22.680         60.00	     8.485
  22.700         60.83	     8.544
  22.720         70.83	     9.220
  22.740         74.17	     9.434
  22.760         69.17	     9.110
  22.780         82.50	     9.950
  22.800         95.00	    10.677
  22.820         91.67	    10.488
  22.840         74.17	     9.434
  22.860         75.00	     9.487
  22.880         77.50	     9.644
  22.900         75.83	     9.539
  22.920        105.00	    11.225
  22.940        120.83	    12.042
  22.960        185.83	    14.933
  22.980        155.83	    13.675
  23.000        127.50	    12.369
  23.020        114.17	    11.705
  23.040         95.00	    10.677
  23.060         64.17	     8.775
  23.080         69.17	     9.110
  23.100         39.17	     6.856
  23.120         55.00	     8.124
  23.140         57.50	     8.307
  23.160         35.83	     6.557
  23.180         49.17	     7.681
  23.200         49.17	     7.681
  23.220         45.83	     7.416
  23.240         60.83	     8.544
  23.260         63.33	     8.718
  23.280         73.33	     9.381
  23.300         90.00	    10.392
  23.320        124.17	    12.207
  23.340        333.33	    20.000
  23.360        547.50	    25.632
  23.380        603.33	    26.907
  23.400        405.00	    22.045
  23.420        430.00	    22.716
  23.440        429.17	    22.694
  23.460        321.67	    19.647
  23.480        245.00	    17.146
  23.500        210.83	    15.906
  23.520        138.33	    12.884
  23.540        116.67	    11.832
  23.560         99.17	    10.909
  23.580         83.33	    10.000
  23.600         72.50	     9.327
  23.620         75.00	     9.487
  23.640         74.17	     9.434
  23.660         84.17	    10.050
  23.680         89.17	    10.344
  23.700         78.33	     9.695
  23.720         78.33	     9.695
  23.740         98.33	    10.863
  23.760         98.33	    10.863
  23.780        114.17	    11.705
  23.800        118.33	    11.916
  23.820        110.83	    11.533
  23.840        118.33	    11.916
  23.860        106.67	    11.314
  23.880         95.00	    10.677
  23.900         95.00	    10.677
  23.920        100.00	    10.954
  23.940        145.83	    13.229
  23.960        119.17	    11.958
  23.980         85.83	    10.149
  24.000        120.00	    12.000
  24.020        135.83	    12.767
  24.040        120.00	    12.000
  24.060        106.67	    11.314
  24.080        131.67	    12.570
  24.100        160.00	    13.856
  24.120        162.50	    13.964
  24.140        167.50	    14.177
  24.160        179.17	    14.663
  24.180        228.33	    16.553
  24.200        265.83	    17.861
  24.220        230.83	    16.643
  24.240        150.00	    13.416
  24.260        150.00	    13.416
  24.280        136.67	    12.806
  24.300        110.00	    11.489
  24.320        113.33	    11.662
  24.340        112.50	    11.619
  24.360        121.67	    12.083
  24.380        164.17	    14.036
  24.400        186.67	    14.967
  24.420        204.17	    15.652
  24.440        195.00	    15.297
  24.460        227.50	    16.523
  24.480        210.83	    15.906
  24.500        196.67	    15.362
  24.520        165.00	    14.071
  24.540        170.83	    14.318
  24.560        155.83	    13.675
  24.580        135.00	    12.728
  24.600        146.67	    13.266
  24.620        140.00	    12.961
  24.640        120.00	    12.000
  24.660        122.50	    12.124
  24.680        104.17	    11.180
  24.700        100.83	    11.000
  24.720        105.00	    11.225
  24.740        111.67	    11.576
  24.760        115.00	    11.747
  24.780        104.17	    11.180
  24.800         97.50	    10.817
  24.820        114.17	    11.705
  24.840        126.67	    12.329
  24.860        123.33	    12.166
  24.880        132.50	    12.610
  24.900        170.83	    14.318
  24.920        176.67	    14.560
  24.940        212.50	    15.969
  24.960        295.00	    18.815
  24.980        388.33	    21.587
  25.000        495.00	    24.372
  25.020        566.67	    26.077
  25.040        641.67	    27.749
  25.060        636.67	    27.641
  25.080        458.33	    23.452
  25.100        372.50	    21.142
  25.120        336.67	    20.100
  25.140        215.00	    16.062
  25.160        138.33	    12.884
  25.180        120.00	    12.000
  25.200        120.83	    12.042
  25.220        120.83	    12.042
  25.240        111.67	    11.576
  25.260        143.33	    13.115
  25.280        141.67	    13.038
  25.300        134.17	    12.689
  25.320        150.00	    13.416
  25.340        156.67	    13.711
  25.360        156.67	    13.711
  25.380        167.50	    14.177
  25.400        186.67	    14.967
  25.420        165.00	    14.071
  25.440        143.33	    13.115
  25.460        132.50	    12.610
  25.480        130.83	    12.530
  25.500        112.50	    11.619
  25.520        104.17	    11.180
  25.540         88.33	    10.296
  25.560         85.83	    10.149
  25.580         91.67	    10.488
  25.600         87.50	    10.247
  25.620         64.17	     8.775
  25.640         98.33	    10.863
  25.660         85.00	    10.100
  25.680         90.00	    10.392
  25.700         70.00	     9.165
  25.720         66.67	     8.944
  25.740         75.83	     9.539
  25.760         77.50	     9.644
  25.780         58.33	     8.367
  25.800         57.50	     8.307
  25.820         64.17	     8.775
  25.840         70.83	     9.220
  25.860         71.67	     9.274
  25.880         72.50	     9.327
  25.900         62.50	     8.660
  25.920         69.17	     9.110
  25.940         80.00	     9.798
  25.960         76.67	     9.592
  25.980         84.17	    10.050
  26.000         80.00	     9.798
  26.020         80.83	     9.849
  26.040         94.17	    10.630
  26.060         97.50	    10.817
  26.080        105.83	    11.269
  26.100        100.83	    11.000
  26.120         95.00	    10.677
  26.140        117.50	    11.874
  26.160        133.33	    12.649
  26.180        118.33	    11.916
  26.200        139.17	    12.923
  26.220        189.17	    15.067
  26.240        315.00	    19.442
  26.260        550.83	    25.710
  26.280        565.00	    26.038
  26.300        410.83	    22.204
  26.320        452.50	    23.302
  26.340        490.83	    24.269
  26.360        445.00	    23.108
  26.380        422.50	    22.517
  26.400        527.50	    25.159
  26.420        846.67	    31.875
  26.440       1610.83	    43.966
  26.460       2363.33	    53.254
  26.480       3310.00	    63.024
  26.500       4376.67	    72.471
  26.520       4492.50	    73.423
  26.540       3550.00	    65.269
  26.560       2710.83	    57.035
  26.580       2350.83	    53.113
  26.600       2035.00	    49.417
  26.620       1325.83	    39.887
  26.640        975.00	    34.205
  26.660       1030.83	    35.171
  26.680       1290.00	    39.345
  26.700       1388.33	    40.817
  26.720       1481.67	    42.166
  26.740       1668.33	    44.744
  26.760       1525.83	    42.790
  26.780       1211.67	    38.131
  26.800        958.33	    33.912
  26.820        725.83	    29.513
  26.840        540.83	    25.475
  26.860        350.83	    20.518
  26.880        243.33	    17.088
  26.900        159.17	    13.820
  26.920        135.00	    12.728
  26.940        142.50	    13.077
  26.960        115.00	    11.747
  26.980        118.33	    11.916
  27.000        110.00	    11.489
  27.020        105.83	    11.269
  27.040         95.83	    10.724
  27.060        100.83	    11.000
  27.080         94.17	    10.630
  27.100         91.67	    10.488
  27.120        113.33	    11.662
  27.140        115.00	    11.747
  27.160        116.67	    11.832
  27.180        103.33	    11.136
  27.200        124.17	    12.207
  27.220        145.00	    13.191
  27.240        152.50	    13.528
  27.260        182.50	    14.799
  27.280        258.33	    17.607
  27.300        442.50	    23.043
  27.320        599.17	    26.814
  27.340        724.17	    29.479
  27.360        785.00	    30.692
  27.380        919.17	    33.211
  27.400        745.83	    29.917
  27.420        590.83	    26.627
  27.440        474.17	    23.854
  27.460        410.83	    22.204
  27.480        269.17	    17.972
  27.500        188.33	    15.033
  27.520        191.67	    15.166
  27.540        210.83	    15.906
  27.560        270.83	    18.028
  27.580        366.67	    20.976
  27.600        453.33	    23.324
  27.620        379.17	    21.331
  27.640        410.00	    22.181
  27.660        402.50	    21.977
  27.680        406.67	    22.091
  27.700        434.17	    22.825
  27.720        658.33	    28.107
  27.740        890.83	    32.696
  27.760        990.83	    34.482
  27.780        972.50	    34.161
  27.800        930.83	    33.422
  27.820        872.50	    32.357
  27.840        755.83	    30.116
  27.860        595.83	    26.739
  27.880        444.17	    23.087
  27.900        360.83	    20.809
  27.920        345.00	    20.347
  27.940        265.83	    17.861
  27.960        205.83	    15.716
  27.980        250.83	    17.349
  28.000        215.83	    16.093
  28.020        195.83	    15.330
  28.040        165.00	    14.071
  28.060        172.50	    14.387
  28.080        144.17	    13.153
  28.100        138.33	    12.884
  28.120        119.17	    11.958
  28.140        125.83	    12.288
  28.160        146.67	    13.266
  28.180        146.67	    13.266
  28.200        120.83	    12.042
  28.220        147.50	    13.304
  28.240        121.67	    12.083
  28.260        117.50	    11.874
  28.280         90.00	    10.392
  28.300         98.33	    10.863
  28.320         66.67	     8.944
  28.340         71.67	     9.274
  28.360         91.67	    10.488
  28.380        102.50	    11.091
  28.400        101.67	    11.045
  28.420        126.67	    12.329
  28.440        125.00	    12.247
  28.460        104.17	    11.180
  28.480        105.00	    11.225
  28.500        110.00	    11.489
  28.520         98.33	    10.863
  28.540        100.00	    10.954
  28.560         76.67	     9.592
  28.580         82.50	     9.950
  28.600         80.00	     9.798
  28.620         91.67	    10.488
  28.640         90.00	    10.392
  28.660         91.67	    10.488
  28.680         74.17	     9.434
  28.700         68.33	     9.055
  28.720         69.17	     9.110
  28.740         59.17	     8.426
  28.760         60.00	     8.485
  28.780         41.67	     7.071
  28.800         67.50	     9.000
  28.820         57.50	     8.307
  28.840         55.00	     8.124
  28.860         62.50	     8.660
  28.880         42.50	     7.141
  28.900         53.33	     8.000
  28.920         55.00	     8.124
  28.940         46.67	     7.483
  28.960         52.50	     7.937
  28.980         63.33	     8.718
  29.000         65.00	     8.832
  29.020         58.33	     8.367
  29.040         45.83	     7.416
  29.060         54.17	     8.062
  29.080         64.17	     8.775
  29.100         60.83	     8.544
  29.120         56.67	     8.246
  29.140         51.67	     7.874
  29.160         50.83	     7.810
  29.180         56.67	     8.246
  29.200         40.83	     7.000
  29.220         45.83	     7.416
  29.240         51.67	     7.874
  29.260         46.67	     7.483
  29.280         46.67	     7.483
  29.300         36.67	     6.633
  29.320         60.83	     8.544
  29.340         57.50	     8.307
  29.360         59.17	     8.426
  29.380         52.50	     7.937
  29.400         56.67	     8.246
  29.420         52.50	     7.937
  29.440         55.00	     8.124
  29.460         60.83	     8.544
  29.480         77.50	     9.644
  29.500         80.00	     9.798
  29.520         88.33	    10.296
  29.540        102.50	    11.091
  29.560         98.33	    10.863
  29.580         95.83	    10.724
  29.600        106.67	    11.314
  29.620        115.00	    11.747
  29.640        115.83	    11.790
  29.660        152.50	    13.528
  29.680        279.17	    18.303
  29.700        572.50	    26.211
  29.720        905.83	    32.970
  29.740        702.50	    29.034
  29.760        530.00	    25.219
  29.780        711.67	    29.223
  29.800        805.00	    31.081
  29.820        521.67	    25.020
  29.840        359.17	    20.761
  29.860        340.83	    20.224
  29.880        332.50	    19.975
  29.900        255.00	    17.493
  29.920        258.33	    17.607
  29.940        198.33	    15.427
  29.960        160.83	    13.892
  29.980        175.00	    14.491
  30.000        155.00	    13.638
  30.020        131.67	    12.570
  30.040        133.33	    12.649
  30.060        125.00	    12.247
  30.080        108.33	    11.402
  30.100         90.83	    10.440
  30.120         77.50	     9.644
  30.140         96.67	    10.770
  30.160         77.50	     9.644
  30.180         72.50	     9.327
  30.200         75.83	     9.539
  30.220        104.17	    11.180
  30.240         98.33	    10.863
  30.260         80.83	     9.849
  30.280        100.00	    10.954
  30.300        115.83	    11.790
  30.320        112.50	    11.619
  30.340        107.50	    11.358
  30.360         89.17	    10.344
  30.380        116.67	    11.832
  30.400        110.00	    11.489
  30.420        129.17	    12.450
  30.440        124.17	    12.207
  30.460        111.67	    11.576
  30.480         68.33	     9.055
  30.500        103.33	    11.136
  30.520        109.17	    11.446
  30.540         62.50	     8.660
  30.560         64.17	     8.775
  30.580         85.83	    10.149
  30.600         99.17	    10.909
  30.620        150.00	    13.416
  30.640        247.50	    17.234
  30.660        190.00	    15.100
  30.680        204.17	    15.652
  30.700        171.67	    14.353
  30.720        170.00	    14.283
  30.740        180.00	    14.697
  30.760        123.33	    12.166
  30.780         67.50	     9.000
  30.800         75.83	     9.539
  30.820         89.17	    10.344
  30.840         75.00	     9.487
  30.860         70.00	     9.165
  30.880         59.17	     8.426
  30.900         50.00	     7.746
  30.920         54.17	     8.062
  30.940         73.33	     9.381
  30.960         60.00	     8.485
  30.980         55.83	     8.185
  31.000         66.67	     8.944
  31.020         80.83	     9.849
  31.040        100.83	    11.000
  31.060         93.33	    10.583
  31.080        105.83	    11.269
  31.100        109.17	    11.446
  31.120        110.83	    11.533
  31.140        112.50	    11.619
  31.160        104.17	    11.180
  31.180         85.00	    10.100
  31.200        105.00	    11.225
  31.220         74.17	     9.434
  31.240         79.17	     9.747
  31.260         64.17	     8.775
  31.280         63.33	     8.718
  31.300         45.83	     7.416
  31.320         56.67	     8.246
  31.340         55.00	     8.124
  31.360         79.17	     9.747
  31.380         98.33	    10.863
  31.400         85.83	    10.149
  31.420        114.17	    11.705
  31.440        118.33	    11.916
  31.460        152.50	    13.528
  31.480        165.00	    14.071
  31.500        155.00	    13.638
  31.520        113.33	    11.662
  31.540         99.17	    10.909
  31.560        110.83	    11.533
  31.580         90.83	    10.440
  31.600         56.67	     8.246
  31.620         58.33	     8.367
  31.640         43.33	     7.211
  31.660         48.33	     7.616
  31.680         47.50	     7.550
  31.700         60.83	     8.544
  31.720         47.50	     7.550
  31.740         53.33	     8.000
  31.760         50.00	     7.746
  31.780         55.83	     8.185
  31.800         51.67	     7.874
  31.820         44.17	     7.280
  31.840         54.17	     8.062
  31.860         59.17	     8.426
  31.880         55.83	     8.185
  31.900         53.33	     8.000
  31.920         83.33	    10.000
  31.940         70.83	     9.220
  31.960         57.50	     8.307
  31.980         85.83	    10.149
  32.000         72.50	     9.327
  32.020         59.17	     8.426
  32.040         55.00	     8.124
  32.060         50.00	     7.746
  32.080         40.83	     7.000
  32.100         33.33	     6.325
  32.120         43.33	     7.211
  32.140         43.33	     7.211
  32.160         33.33	     6.325
  32.180         35.83	     6.557
  32.200         37.50	     6.708
  32.220         31.67	     6.164
  32.240         25.00	     5.477
  32.260         38.33	     6.782
  32.280         27.50	     5.745
  32.300         44.17	     7.280
  32.320         37.50	     6.708
  32.340         35.00	     6.481
  32.360         37.50	     6.708
  32.380         34.17	     6.403
  32.400         39.17	     6.856
  32.420         35.00	     6.481
  32.440         38.33	     6.782
  32.460         40.83	     7.000
  32.480         32.50	     6.245
  32.500         40.00	     6.928
  32.520         33.33	     6.325
  32.540         41.67	     7.071
  32.560         48.33	     7.616
  32.580         50.83	     7.810
  32.600         52.50	     7.937
  32.620         37.50	     6.708
  32.640         43.33	     7.211
  32.660         45.00	     7.348
  32.680         42.50	     7.141
  32.700         38.33	     6.782
  32.720         39.17	     6.856
  32.740         30.83	     6.083
  32.760         37.50	     6.708
  32.780         32.50	     6.245
  32.800         32.50	     6.245
  32.820         35.83	     6.557
  32.840         43.33	     7.211
  32.860         36.67	     6.633
  32.880         70.00	     9.165
  32.900         75.83	     9.539
  32.920         65.00	     8.832
  32.940         79.17	     9.747
  32.960        153.33	    13.565
  32.980        167.50	    14.177
  33.000        143.33	    13.115
  33.020        112.50	    11.619
  33.040         88.33	    10.296
  33.060        115.83	    11.790
  33.080         96.67	    10.770
  33.100         65.00	     8.832
  33.120         50.83	     7.810
  33.140         54.17	     8.062
  33.160         44.17	     7.280
  33.180         37.50	     6.708
  33.200         20.83	     5.000
  33.220         33.33	     6.325
  33.240         31.67	     6.164
  33.260         36.67	     6.633
  33.280         26.67	     5.657
  33.300         40.00	     6.928
  33.320         64.17	     8.775
  33.340         52.50	     7.937
  33.360         40.83	     7.000
  33.380         35.83	     6.557
  33.400         46.67	     7.483
  33.420         54.17	     8.062
  33.440         41.67	     7.071
  33.460         30.83	     6.083
  33.480         34.17	     6.403
  33.500         31.67	     6.164
  33.520         37.50	     6.708
  33.540         32.50	     6.245
  33.560         30.83	     6.083
  33.580         31.67	     6.164
  33.600         32.50	     6.245
  33.620         34.17	     6.403
  33.640         38.33	     6.782
  33.660         34.17	     6.403
  33.680         31.67	     6.164
  33.700         40.00	     6.928
  33.720         45.00	     7.348
  33.740         49.17	     7.681
  33.760         42.50	     7.141
  33.780         50.83	     7.810
  33.800         41.67	     7.071
  33.820         45.83	     7.416
  33.840         50.83	     7.810
  33.860         59.17	     8.426
  33.880         40.00	     6.928
  33.900         37.50	     6.708
  33.920         47.50	     7.550
  33.940         40.83	     7.000
  33.960         46.67	     7.483
  33.980         47.50	     7.550
  34.000         43.33	     7.211
  34.020         34.17	     6.403
  34.040         44.17	     7.280
  34.060         33.33	     6.325
  34.080         40.00	     6.928
  34.100         30.83	     6.083
  34.120         34.17	     6.403
  34.140         40.83	     7.000
  34.160         54.17	     8.062
  34.180         55.83	     8.185
  34.200         42.50	     7.141
  34.220         46.67	     7.483
  34.240         48.33	     7.616
  34.260         38.33	     6.782
  34.280         55.00	     8.124
  34.300         71.67	     9.274
  34.320        100.83	    11.000
  34.340        125.83	    12.288
  34.360        130.83	    12.530
  34.380        130.00	    12.490
  34.400        125.83	    12.288
  34.420        125.00	    12.247
  34.440        140.83	    13.000
  34.460        126.67	    12.329
  34.480        115.83	    11.790
  34.500        118.33	    11.916
  34.520         90.83	    10.440
  34.540         74.17	     9.434
  34.560         71.67	     9.274
  34.580         65.00	     8.832
  34.600         83.33	    10.000
  34.620         60.00	     8.485
  34.640         64.17	     8.775
  34.660         65.83	     8.888
  34.680         85.83	    10.149
  34.700         64.17	     8.775
  34.720         85.00	    10.100
  34.740         84.17	    10.050
  34.760         99.17	    10.909
  34.780         97.50	    10.817
  34.800         98.33	    10.863
  34.820         94.17	    10.630
  34.840        120.83	    12.042
  34.860        100.83	    11.000
  34.880        126.67	    12.329
  34.900        186.67	    14.967
  34.920        210.00	    15.875
  34.940        207.50	    15.780
  34.960        169.17	    14.248
  34.980        155.00	    13.638
  35.000        135.83	    12.767
  35.020        150.00	    13.416
  35.040        119.17	    11.958
  35.060         90.00	    10.392
  35.080         79.17	     9.747
  35.100         70.83	     9.220
  35.120         70.00	     9.165
  35.140         54.17	     8.062
  35.160         50.83	     7.810
  35.180         57.50	     8.307
  35.200         54.17	     8.062
  35.220         64.17	     8.775
  35.240         59.17	     8.426
  35.260         64.17	     8.775
  35.280         63.33	     8.718
  35.300         78.33	     9.695
  35.320         64.17	     8.775
  35.340         86.67	    10.198
  35.360         80.83	     9.849
  35.380         94.17	    10.630
  35.400         95.00	    10.677
  35.420         81.67	     9.899
  35.440        115.00	    11.747
  35.460        108.33	    11.402
  35.480         98.33	    10.863
  35.500         94.17	    10.630
  35.520         74.17	     9.434
  35.540         65.83	     8.888
  35.560         77.50	     9.644
  35.580         78.33	     9.695
  35.600         69.17	     9.110
  35.620         63.33	     8.718
  35.640         66.67	     8.944
  35.660         60.83	     8.544
  35.680         56.67	     8.246
  35.700         66.67	     8.944
  35.720         60.83	     8.544
  35.740         63.33	     8.718
  35.760         61.67	     8.602
  35.780         88.33	    10.296
  35.800         81.67	     9.899
  35.820        105.83	    11.269
  35.840        126.67	    12.329
  35.860        124.17	    12.207
  35.880        118.33	    11.916
  35.900        120.83	    12.042
  35.920        139.17	    12.923
  35.940        143.33	    13.115
  35.960        138.33	    12.884
  35.980        138.33	    12.884
  36.000        144.17	    13.153
  36.020        130.00	    12.490
  36.040        129.17	    12.450
  36.060         80.00	     9.798
  36.080         96.67	    10.770
  36.100         70.00	     9.165
  36.120         63.33	     8.718
  36.140         60.83	     8.544
  36.160         45.83	     7.416
  36.180         57.50	     8.307
  36.200         37.50	     6.708
  36.220         45.83	     7.416
  36.240         64.17	     8.775
  36.260         65.00	     8.832
  36.280         80.83	     9.849
  36.300         88.33	    10.296
  36.320        105.00	    11.225
  36.340        120.00	    12.000
  36.360        141.67	    13.038
  36.380        159.17	    13.820
  36.400        239.17	    16.941
  36.420        267.50	    17.916
  36.440        197.50	    15.395
  36.460        170.00	    14.283
  36.480        116.67	    11.832
  36.500        143.33	    13.115
  36.520        137.50	    12.845
  36.540        125.00	    12.247
  36.560         99.17	    10.909
  36.580         82.50	     9.950
  36.600         81.67	     9.899
  36.620         90.83	    10.440
  36.640         80.00	     9.798
  36.660         67.50	     9.000
  36.680         57.50	     8.307
  36.700         49.17	     7.681
  36.720         74.17	     9.434
  36.740         55.83	     8.185
  36.760         47.50	     7.550
  36.780         55.83	     8.185
  36.800         55.00	     8.124
  36.820         31.67	     6.164
  36.840         36.67	     6.633
  36.860         47.50	     7.550
  36.880         37.50	     6.708
  36.900         53.33	     8.000
  36.920         49.17	     7.681
  36.940         47.50	     7.550
  36.960         55.00	     8.124
  36.980         55.83	     8.185
  37.000         54.17	     8.062
  37.020         54.17	     8.062
  37.040         49.17	     7.681
  37.060         42.50	     7.141
  37.080         56.67	     8.246
  37.100         56.67	     8.246
  37.120         65.00	     8.832
  37.140         51.67	     7.874
  37.160         50.00	     7.746
  37.180         60.00	     8.485
  37.200         80.00	     9.798
  37.220         66.67	     8.944
  37.240         65.00	     8.832
  37.260         65.83	     8.888
  37.280         85.83	    10.149
  37.300         90.83	    10.440
  37.320        119.17	    11.958
  37.340        130.83	    12.530
  37.360        117.50	    11.874
  37.380        100.83	    11.000
  37.400         91.67	    10.488
  37.420        114.17	    11.705
  37.440         80.00	     9.798
  37.460        110.83	    11.533
  37.480        143.33	    13.115
  37.500        185.83	    14.933
  37.520        161.67	    13.928
  37.540        132.50	    12.610
  37.560        139.17	    12.923
  37.580        139.17	    12.923
  37.600        150.00	    13.416
  37.620        139.17	    12.923
  37.640        134.17	    12.689
  37.660        138.33	    12.884
  37.680        119.17	    11.958
  37.700        130.00	    12.490
  37.720        117.50	    11.874
  37.740        101.67	    11.045
  37.760        140.83	    13.000
  37.780        125.00	    12.247
  37.800        125.83	    12.288
  37.820        155.83	    13.675
  37.840        160.00	    13.856
  37.860        206.67	    15.748
  37.880        289.17	    18.628
  37.900        455.83	    23.388
  37.920        863.33	    32.187
  37.940       1714.17	    45.354
  37.960       2555.00	    55.371
  37.980       2868.33	    58.669
  38.000       2298.33	    52.517
  38.020       1460.00	    41.857
  38.040       1274.17	    39.102
  38.060       1476.67	    42.095
  38.080       1527.50	    42.814
  38.100       1150.00	    37.148
  38.120        584.17	    26.476
  38.140        291.67	    18.708
  38.160        211.67	    15.937
  38.180        154.17	    13.601
  38.200        107.50	    11.358
  38.220         90.83	    10.440
  38.240         75.83	     9.539
  38.260         86.67	    10.198
  38.280         85.83	    10.149
  38.300         68.33	     9.055
  38.320         54.17	     8.062
  38.340         59.17	     8.426
  38.360         68.33	     9.055
  38.380         53.33	     8.000
  38.400         54.17	     8.062
  38.420         45.83	     7.416
  38.440         55.00	     8.124
  38.460         57.50	     8.307
  38.480         42.50	     7.141
  38.500         44.17	     7.280
  38.520         34.17	     6.403
  38.540         43.33	     7.211
  38.560         45.00	     7.348
  38.580         40.00	     6.928
  38.600         40.00	     6.928
  38.620         59.17	     8.426
  38.640         72.50	     9.327
  38.660         65.83	     8.888
  38.680         55.83	     8.185
  38.700         62.50	     8.660
  38.720         49.17	     7.681
  38.740         53.33	     8.000
  38.760         55.00	     8.124
  38.780         56.67	     8.246
  38.800         42.50	     7.141
  38.820         42.50	     7.141
  38.840         41.67	     7.071
  38.860         44.17	     7.280
  38.880         40.83	     7.000
  38.900         50.83	     7.810
  38.920         45.83	     7.416
  38.940         53.33	     8.000
  38.960         55.00	     8.124
  38.980         41.67	     7.071
  39.000         31.67	     6.164
  39.020         41.67	     7.071
  39.040         40.83	     7.000
  39.060         30.00	     6.000
  39.080         43.33	     7.211
  39.100         60.00	     8.485
  39.120         40.00	     6.928
  39.140         54.17	     8.062
  39.160         60.00	     8.485
  39.180         62.50	     8.660
  39.200         50.83	     7.810
  39.220         70.00	     9.165
  39.240         90.00	    10.392
  39.260        137.50	    12.845
  39.280        180.83	    14.731
  39.300        284.17	    18.466
  39.320        425.83	    22.605
  39.340        442.50	    23.043
  39.360        330.83	    19.925
  39.380        240.00	    16.971
  39.400        208.33	    15.811
  39.420        260.83	    17.692
  39.440        270.00	    18.000
  39.460        200.83	    15.524
  39.480        126.67	    12.329
  39.500         80.00	     9.798
  39.520         67.50	     9.000
  39.540         55.00	     8.124
  39.560         50.83	     7.810
  39.580         49.17	     7.681
  39.600         46.67	     7.483
  39.620         60.00	     8.485
  39.640         47.50	     7.550
  39.660         37.50	     6.708
  39.680         36.67	     6.633
  39.700         53.33	     8.000
  39.720         56.67	     8.246
  39.740         42.50	     7.141
  39.760         50.83	     7.810
  39.780         30.00	     6.000
  39.800         40.00	     6.928
  39.820         37.50	     6.708
  39.840         37.50	     6.708
  39.860         40.83	     7.000
  39.880         45.00	     7.348
  39.900         42.50	     7.141
  39.920         47.50	     7.550
  39.940         48.33	     7.616
  39.960         51.67	     7.874
  39.980         56.67	     8.246
  40.000         55.00	     8.124
  40.020         50.83	     7.810
  40.040         41.67	     7.071
  40.060         50.00	     7.746
  40.080         70.00	     9.165
  40.100         78.33	     9.695
  40.120        142.50	    13.077
  40.140        208.33	    15.811
  40.160        254.17	    17.464
  40.180        182.50	    14.799
  40.200        168.33	    14.213
  40.220        115.83	    11.790
  40.240        132.50	    12.610
  40.260        141.67	    13.038
  40.280        136.67	    12.806
  40.300        102.50	    11.091
  40.320         69.17	     9.110
  40.340         65.83	     8.888
  40.360         39.17	     6.856
  40.380         46.67	     7.483
  40.400         40.83	     7.000
  40.420         35.83	     6.557
  40.440         30.00	     6.000
  40.460         43.33	     7.211
  40.480         38.33	     6.782
  40.500         41.67	     7.071
  40.520         35.00	     6.481
  40.540         33.33	     6.325
  40.560         41.67	     7.071
  40.580         45.83	     7.416
  40.600         40.00	     6.928
  40.620         36.67	     6.633
  40.640         38.33	     6.782
  40.660         29.17	     5.916
  40.680         35.00	     6.481
  40.700         29.17	     5.916
  40.720         26.67	     5.657
  40.740         35.83	     6.557
  40.760         35.83	     6.557
  40.780         40.00	     6.928
  40.800         40.00	     6.928
  40.820         40.83	     7.000
  40.840         29.17	     5.916
  40.860         35.83	     6.557
  40.880         30.00	     6.000
  40.900         31.67	     6.164
  40.920         30.83	     6.083
  40.940         35.83	     6.557
  40.960         38.33	     6.782
  40.980         26.67	     5.657
  41.000         27.50	     5.745
  41.020         30.83	     6.083
  41.040         40.83	     7.000
  41.060         40.00	     6.928
  41.080         46.67	     7.483
  41.100         32.50	     6.245
  41.120         50.00	     7.746
  41.140         40.00	     6.928
  41.160         36.67	     6.633
  41.180         45.83	     7.416
  41.200         50.00	     7.746
  41.220         47.50	     7.550
  41.240         41.67	     7.071
  41.260         42.50	     7.141
  41.280         36.67	     6.633
  41.300         40.83	     7.000
  41.320         35.00	     6.481
  41.340         30.83	     6.083
  41.360         45.00	     7.348
  41.380         36.67	     6.633
  41.400         38.33	     6.782
  41.420         38.33	     6.782
  41.440         46.67	     7.483
  41.460         30.83	     6.083
  41.480         33.33	     6.325
  41.500         42.50	     7.141
  41.520         40.83	     7.000
  41.540         32.50	     6.245
  41.560         42.50	     7.141
  41.580         48.33	     7.616
  41.600         28.33	     5.831
  41.620         45.00	     7.348
  41.640         46.67	     7.483
  41.660         40.83	     7.000
  41.680         54.17	     8.062
  41.700         45.00	     7.348
  41.720         52.50	     7.937
  41.740         68.33	     9.055
  41.760         94.17	    10.630
  41.780         64.17	     8.775
  41.800         60.83	     8.544
  41.820         54.17	     8.062
  41.840         54.17	     8.062
  41.860         76.67	     9.592
  41.880         84.17	    10.050
  41.900         59.17	     8.426
  41.920         53.33	     8.000
  41.940         43.33	     7.211
  41.960         40.83	     7.000
  41.980         40.00	     6.928
  42.000         49.17	     7.681
  42.020         52.50	     7.937
  42.040         53.33	     8.000
  42.060         35.00	     6.481
  42.080         39.17	     6.856
  42.100         50.00	     7.746
  42.120         35.83	     6.557
  42.140         52.50	     7.937
  42.160         65.83	     8.888
  42.180         54.17	     8.062
  42.200         53.33	     8.000
  42.220         71.67	     9.274
  42.240         95.83	    10.724
  42.260         92.50	    10.536
  42.280        117.50	    11.874
  42.300        170.00	    14.283
  42.320        223.33	    16.371
  42.340        228.33	    16.553
  42.360        181.67	    14.765
  42.380        150.00	    13.416
  42.400        135.00	    12.728
  42.420        134.17	    12.689
  42.440        147.50	    13.304
  42.460        128.33	    12.410
  42.480        105.83	    11.269
  42.500         81.67	     9.899
  42.520         52.50	     7.937
  42.540         44.17	     7.280
  42.560         70.00	     9.165
  42.580         71.67	     9.274
  42.600         62.50	     8.660
  42.620         65.00	     8.832
  42.640         57.50	     8.307
  42.660         47.50	     7.550
  42.680         50.83	     7.810
  42.700         53.33	     8.000
  42.720         53.33	     8.000
  42.740         49.17	     7.681
  42.760         47.50	     7.550
  42.780         45.83	     7.416
  42.800         34.17	     6.403
  42.820         40.83	     7.000
  42.840         35.83	     6.557
  42.860         37.50	     6.708
  42.880         45.00	     7.348
  42.900         45.00	     7.348
  42.920         57.50	     8.307
  42.940         38.33	     6.782
  42.960         38.33	     6.782
  42.980         37.50	     6.708
  43.000         34.17	     6.403
  43.020         26.67	     5.657
  43.040         33.33	     6.325
  43.060         31.67	     6.164
  43.080         26.67	     5.657
  43.100         46.67	     7.483
  43.120         22.50	     5.196
  43.140         39.17	     6.856
  43.160         25.00	     5.477
  43.180         31.67	     6.164
  43.200         34.17	     6.403
  43.220         37.50	     6.708
  43.240         41.67	     7.071
  43.260         30.00	     6.000
  43.280         30.00	     6.000
  43.300         30.83	     6.083
  43.320         34.17	     6.403
  43.340         39.17	     6.856
  43.360         35.00	     6.481
  43.380         45.00	     7.348
  43.400         49.17	     7.681
  43.420         42.50	     7.141
  43.440         41.67	     7.071
  43.460         56.67	     8.246
  43.480         43.33	     7.211
  43.500         51.67	     7.874
  43.520         62.50	     8.660
  43.540         45.83	     7.416
  43.560         51.67	     7.874
  43.580         64.17	     8.775
  43.600         60.00	     8.485
  43.620         70.00	     9.165
  43.640         53.33	     8.000
  43.660         53.33	     8.000
  43.680         65.83	     8.888
  43.700         55.00	     8.124
  43.720         50.00	     7.746
  43.740         49.17	     7.681
  43.760         45.83	     7.416
  43.780         43.33	     7.211
  43.800         44.17	     7.280
  43.820         36.67	     6.633
  43.840         45.83	     7.416
  43.860         53.33	     8.000
  43.880         54.17	     8.062
  43.900         75.00	     9.487
  43.920         64.17	     8.775
  43.940         62.50	     8.660
  43.960         79.17	     9.747
  43.980         84.17	    10.050
  44.000         90.83	    10.440
  44.020         93.33	    10.583
  44.040        113.33	    11.662
  44.060        159.17	    13.820
  44.080        202.50	    15.588
  44.100        338.33	    20.149
  44.120        639.17	    27.695
  44.140       1270.83	    39.051
  44.160       1793.33	    46.390
  44.180       1692.50	    45.067
  44.200       1073.33	    35.889
  44.220        740.83	    29.816
  44.240        572.50	    26.211
  44.260        807.50	    31.129
  44.280        950.00	    33.764
  44.300        865.00	    32.218
  44.320        531.67	    25.259
  44.340        289.17	    18.628
  44.360        193.33	    15.232
  44.380        108.33	    11.402
  44.400         95.00	    10.677
  44.420         79.17	     9.747
  44.440         53.33	     8.000
  44.460         71.67	     9.274
  44.480         56.67	     8.246
  44.500         49.17	     7.681
  44.520         58.33	     8.367
  44.540         41.67	     7.071
  44.560         45.00	     7.348
  44.580         50.00	     7.746
  44.600         55.00	     8.124
  44.620         47.50	     7.550
  44.640         52.50	     7.937
  44.660         50.83	     7.810
  44.680         65.83	     8.888
  44.700         65.00	     8.832
  44.720         67.50	     9.000
  44.740         60.83	     8.544
  44.760         59.17	     8.426
  44.780         58.33	     8.367
  44.800         58.33	     8.367
  44.820         66.67	     8.944
  44.840         63.33	     8.718
  44.860         45.83	     7.416
  44.880         50.83	     7.810
  44.900         55.83	     8.185
  44.920         45.00	     7.348
  44.940         50.00	     7.746
  44.960         50.00	     7.746
  44.980         48.33	     7.616
  45.000         41.67	     7.071
  45.020         38.33	     6.782
  45.040         52.50	     7.937
  45.060         51.67	     7.874
  45.080         60.83	     8.544
  45.100         62.50	     8.660
  45.120         63.33	     8.718
  45.140         81.67	     9.899
  45.160         79.17	     9.747
  45.180        135.83	    12.767
  45.200        177.50	    14.595
  45.220        183.33	    14.832
  45.240        171.67	    14.353
  45.260        177.50	    14.595
  45.280        204.17	    15.652
  45.300        289.17	    18.628
  45.320        348.33	    20.445
  45.340        414.17	    22.293
  45.360        501.67	    24.536
  45.380        571.67	    26.192
  45.400        547.50	    25.632
  45.420        583.33	    26.458
  45.440        574.17	    26.249
  45.460        556.67	    25.846
  45.480        548.33	    25.652
  45.500        530.00	    25.219
  45.520        431.67	    22.760
  45.540        362.50	    20.857
  45.560        350.83	    20.518
  45.580        320.00	    19.596
  45.600        291.67	    18.708
  45.620        284.17	    18.466
  45.640        370.00	    21.071
  45.660        380.83	    21.378
  45.680        364.17	    20.905
  45.700        247.50	    17.234
  45.720        212.50	    15.969
  45.740        155.83	    13.675
  45.760        191.67	    15.166
  45.780        227.50	    16.523
  45.800        218.33	    16.186
  45.820        175.00	    14.491
  45.840        159.17	    13.820
  45.860        110.83	    11.533
  45.880        100.83	    11.000
  45.900        108.33	    11.402
  45.920         88.33	    10.296
  45.940         68.33	     9.055
  45.960         80.00	     9.798
  45.980         60.00	     8.485
  46.000         62.50	     8.660
  46.020         64.17	     8.775
  46.040         42.50	     7.141
  46.060         38.33	     6.782
  46.080         36.67	     6.633
  46.100         52.50	     7.937
  46.120         31.67	     6.164
  46.140         37.50	     6.708
  46.160         40.00	     6.928
  46.180         27.50	     5.745
  46.200         25.00	     5.477
  46.220         32.50	     6.245
  46.240         31.67	     6.164
  46.260         29.17	     5.916
  46.280         35.83	     6.557
  46.300         48.33	     7.616
  46.320         25.00	     5.477
  46.340         30.83	     6.083
  46.360         23.33	     5.292
  46.380         22.50	     5.196
  46.400         20.00	     4.899
  46.420         30.83	     6.083
  46.440         29.17	     5.916
  46.460         35.00	     6.481
  46.480         25.00	     5.477
  46.500         32.50	     6.245
  46.520         29.17	     5.916
  46.540         25.83	     5.568
  46.560         30.00	     6.000
  46.580         15.83	     4.359
  46.600         34.17	     6.403
  46.620         28.33	     5.831
  46.640         24.17	     5.385
  46.660         30.00	     6.000
  46.680         23.33	     5.292
  46.700         31.67	     6.164
  46.720         20.83	     5.000
  46.740         30.00	     6.000
  46.760         25.83	     5.568
  46.780         32.50	     6.245
  46.800         35.83	     6.557
  46.820         31.67	     6.164
  46.840         31.67	     6.164
  46.860         30.83	     6.083
  46.880         33.33	     6.325
  46.900         35.83	     6.557
  46.920         36.67	     6.633
  46.940         48.33	     7.616
  46.960         42.50	     7.141
  46.980         47.50	     7.550
  47.000         67.50	     9.000
  47.020         75.00	     9.487
  47.040         68.33	     9.055
  47.060         58.33	     8.367
  47.080         51.67	     7.874
  47.100         58.33	     8.367
  47.120         59.17	     8.426
  47.140         60.83	     8.544
  47.160         42.50	     7.141
  47.180         30.83	     6.083
  47.200         40.83	     7.000
  47.220         46.67	     7.483
  47.240         40.83	     7.000
  47.260         35.00	     6.481
  47.280         32.50	     6.245
  47.300         18.33	     4.690
  47.320         30.83	     6.083
  47.340         39.17	     6.856
  47.360         30.00	     6.000
  47.380         29.17	     5.916
  47.400         28.33	     5.831
  47.420         23.33	     5.292
  47.440         20.00	     4.899
  47.460         22.50	     5.196
  47.480         29.17	     5.916
  47.500         31.67	     6.164
  47.520         37.50	     6.708
  47.540         25.00	     5.477
  47.560         23.33	     5.292
  47.580         26.67	     5.657
  47.600         30.83	     6.083
  47.620         34.17	     6.403
  47.640         35.00	     6.481
  47.660         32.50	     6.245
  47.680         27.50	     5.745
  47.700         28.33	     5.831
  47.720         26.67	     5.657
  47.740         33.33	     6.325
  47.760         22.50	     5.196
  47.780         33.33	     6.325
  47.800         35.00	     6.481
  47.820         32.50	     6.245
  47.840         35.00	     6.481
  47.860         44.17	     7.280
  47.880         40.00	     6.928
  47.900         35.83	     6.557
  47.920         33.33	     6.325
  47.940         31.67	     6.164
  47.960         25.00	     5.477
  47.980         46.67	     7.483
  48.000         40.83	     7.000
  48.020         57.50	     8.307
  48.040         45.83	     7.416
  48.060         53.33	     8.000
  48.080         45.00	     7.348
  48.100         40.83	     7.000
  48.120         29.17	     5.916
  48.140         48.33	     7.616
  48.160         44.17	     7.280
  48.180         37.50	     6.708
  48.200         31.67	     6.164
  48.220         29.17	     5.916
  48.240         28.33	     5.831
  48.260         30.83	     6.083
  48.280         32.50	     6.245
  48.300         40.83	     7.000
  48.320         36.67	     6.633
  48.340         19.17	     4.796
  48.360         37.50	     6.708
  48.380         13.33	     4.000
  48.400         24.17	     5.385
  48.420         31.67	     6.164
  48.440         30.83	     6.083
  48.460         28.33	     5.831
  48.480         21.67	     5.099
  48.500         21.67	     5.099
  48.520         31.67	     6.164
  48.540         29.17	     5.916
  48.560         28.33	     5.831
  48.580         25.00	     5.477
  48.600         32.50	     6.245
  48.620         24.17	     5.385
  48.640         26.67	     5.657
  48.660         30.00	     6.000
  48.680         20.00	     4.899
  48.700         19.17	     4.796
  48.720         27.50	     5.745
  48.740         31.67	     6.164
  48.760         25.83	     5.568
  48.780         31.67	     6.164
  48.800         25.83	     5.568
  48.820         30.83	     6.083
  48.840         30.00	     6.000
  48.860         35.83	     6.557
  48.880         36.67	     6.633
  48.900         29.17	     5.916
  48.920         26.67	     5.657
  48.940         26.67	     5.657
  48.960         35.83	     6.557
  48.980         38.33	     6.782
  49.000         24.17	     5.385
  49.020         35.00	     6.481
  49.040         41.67	     7.071
  49.060         40.83	     7.000
  49.080         26.67	     5.657
  49.100         26.67	     5.657
  49.120         35.83	     6.557
  49.140         36.67	     6.633
  49.160         26.67	     5.657
  49.180         25.83	     5.568
  49.200         31.67	     6.164
  49.220         37.50	     6.708
  49.240         30.83	     6.083
  49.260         27.50	     5.745
  49.280         30.83	     6.083
  49.300         24.17	     5.385
  49.320         35.83	     6.557
  49.340         40.00	     6.928
  49.360         29.17	     5.916
  49.380         34.17	     6.403
  49.400         30.83	     6.083
  49.420         21.67	     5.099
  49.440         28.33	     5.831
  49.460         30.83	     6.083
  49.480         25.00	     5.477
  49.500         30.00	     6.000
  49.520         34.17	     6.403
  49.540         28.33	     5.831
  49.560         32.50	     6.245
  49.580         40.83	     7.000
  49.600         38.33	     6.782
  49.620         51.67	     7.874
  49.640         47.50	     7.550
  49.660         65.00	     8.832
  49.680         60.00	     8.485
  49.700         82.50	     9.950
  49.720         74.17	     9.434
  49.740         46.67	     7.483
  49.760         51.67	     7.874
  49.780         77.50	     9.644
  49.800         63.33	     8.718
  49.820         73.33	     9.381
  49.840         70.00	     9.165
  49.860         61.67	     8.602
  49.880         67.50	     9.000
  49.900         67.50	     9.000
  49.920         89.17	    10.344
  49.940        127.50	    12.369
  49.960        189.17	    15.067
  49.980        405.00	    22.045
  50.000        630.83	    27.514
  50.020        746.67	    29.933
  50.040        521.67	    25.020
  50.060        278.33	    18.276
  50.080        208.33	    15.811
  50.100        208.33	    15.811
  50.120        273.33	    18.111
  50.140        404.17	    22.023
  50.160        377.50	    21.284
  50.180        269.17	    17.972
  50.200        148.33	    13.342
  50.220         98.33	    10.863
  50.240         61.67	     8.602
  50.260         38.33	     6.782
  50.280         45.00	     7.348
  50.300         36.67	     6.633
  50.320         49.17	     7.681
  50.340         33.33	     6.325
  50.360         27.50	     5.745
  50.380         36.67	     6.633
  50.400         36.67	     6.633
  50.420         40.00	     6.928
  50.440         38.33	     6.782
  50.460         47.50	     7.550
  50.480         39.17	     6.856
  50.500         54.17	     8.062
  50.520         38.33	     6.782
  50.540         50.00	     7.746
  50.560         36.67	     6.633
  50.580         47.50	     7.550
  50.600         38.33	     6.782
  50.620         40.83	     7.000
  50.640         41.67	     7.071
  50.660         39.17	     6.856
  50.680         47.50	     7.550
  50.700         35.00	     6.481
  50.720         28.33	     5.831
  50.740         25.83	     5.568
  50.760         26.67	     5.657
  50.780         30.83	     6.083
  50.800         35.00	     6.481
  50.820         25.83	     5.568
  50.840         24.17	     5.385
  50.860         16.67	     4.472
  50.880         22.50	     5.196
  50.900         28.33	     5.831
  50.920         25.00	     5.477
  50.940         26.67	     5.657
  50.960         28.33	     5.831
  50.980         29.17	     5.916
  51.000         25.83	     5.568
  51.020         22.50	     5.196
  51.040         32.50	     6.245
  51.060         22.50	     5.196
  51.080         40.00	     6.928
  51.100         26.67	     5.657
  51.120         26.67	     5.657
  51.140         29.17	     5.916
  51.160         24.17	     5.385
  51.180         24.17	     5.385
  51.200         26.67	     5.657
  51.220         35.00	     6.481
  51.240         31.67	     6.164
  51.260         30.00	     6.000
  51.280         17.50	     4.583
  51.300         25.83	     5.568
  51.320         28.33	     5.831
  51.340         25.00	     5.477
  51.360         31.67	     6.164
  51.380         33.33	     6.325
  51.400         23.33	     5.292
  51.420         25.00	     5.477
  51.440         25.83	     5.568
  51.460         27.50	     5.745
  51.480         22.50	     5.196
  51.500         16.67	     4.472
  51.520         20.00	     4.899
  51.540         18.33	     4.690
  51.560         21.67	     5.099
  51.580         23.33	     5.292
  51.600         15.00	     4.243
  51.620         23.33	     5.292
  51.640         25.00	     5.477
  51.660         21.67	     5.099
  51.680         28.33	     5.831
  51.700         16.67	     4.472
  51.720         24.17	     5.385
  51.740         25.00	     5.477
  51.760         28.33	     5.831
  51.780         25.83	     5.568
  51.800         13.33	     4.000
  51.820         18.33	     4.690
  51.840         31.67	     6.164
  51.860         21.67	     5.099
  51.880         17.50	     4.583
  51.900         30.83	     6.083
  51.920         34.17	     6.403
  51.940         23.33	     5.292
  51.960         30.00	     6.000
  51.980         35.83	     6.557
  52.000         41.67	     7.071
  52.020         40.83	     7.000
  52.040         46.67	     7.483
  52.060         38.33	     6.782
  52.080         21.67	     5.099
  52.100         30.00	     6.000
  52.120         31.67	     6.164
  52.140         39.17	     6.856
  52.160         35.00	     6.481
  52.180         20.00	     4.899
  52.200         29.17	     5.916
  52.220         25.83	     5.568
  52.240         28.33	     5.831
  52.260         43.33	     7.211
  52.280         30.83	     6.083
  52.300         29.17	     5.916
  52.320         25.00	     5.477
  52.340         26.67	     5.657
  52.360         30.00	     6.000
  52.380         32.50	     6.245
  52.400         25.83	     5.568
  52.420         35.83	     6.557
  52.440         26.67	     5.657
  52.460         33.33	     6.325
  52.480         35.00	     6.481
  52.500         36.67	     6.633
  52.520         30.83	     6.083
  52.540         38.33	     6.782
  52.560         32.50	     6.245
  52.580         31.67	     6.164
  52.600         29.17	     5.916
  52.620         35.00	     6.481
  52.640         28.33	     5.831
  52.660         30.00	     6.000
  52.680         39.17	     6.856
  52.700         34.17	     6.403
  52.720         38.33	     6.782
  52.740         44.17	     7.280
  52.760         33.33	     6.325
  52.780         31.67	     6.164
  52.800         26.67	     5.657
  52.820         36.67	     6.633
  52.840         39.17	     6.856
  52.860         44.17	     7.280
  52.880         31.67	     6.164
  52.900         39.17	     6.856
  52.920         29.17	     5.916
  52.940         33.33	     6.325
  52.960         35.00	     6.481
  52.980         40.00	     6.928
  53.000         38.33	     6.782
  53.020         37.50	     6.708
  53.040         25.83	     5.568
  53.060         40.83	     7.000
  53.080         26.67	     5.657
  53.100         34.17	     6.403
  53.120         32.50	     6.245
  53.140         43.33	     7.211
  53.160         20.00	     4.899
  53.180         32.50	     6.245
  53.200         19.17	     4.796
  53.220         25.83	     5.568
  53.240         24.17	     5.385
  53.260         25.83	     5.568
  53.280         26.67	     5.657
  53.300         34.17	     6.403
  53.320         24.17	     5.385
  53.340         16.67	     4.472
  53.360         24.17	     5.385
  53.380         28.33	     5.831
  53.400         24.17	     5.385
  53.420         12.50	     3.873
  53.440         20.83	     5.000
  53.460         21.67	     5.099
  53.480         27.50	     5.745
  53.500         35.00	     6.481
  53.520         16.67	     4.472
  53.540         30.83	     6.083
  53.560         15.83	     4.359
  53.580         22.50	     5.196
  53.600         27.50	     5.745
  53.620         21.67	     5.099
  53.640         25.83	     5.568
  53.660         35.00	     6.481
  53.680         28.33	     5.831
  53.700         20.00	     4.899
  53.720         30.00	     6.000
  53.740         33.33	     6.325
  53.760         50.83	     7.810
  53.780         62.50	     8.660
  53.800         45.83	     7.416
  53.820         35.00	     6.481
  53.840         35.83	     6.557
  53.860         31.67	     6.164
  53.880         27.50	     5.745
  53.900         26.67	     5.657
  53.920         34.17	     6.403
  53.940         31.67	     6.164
  53.960         27.50	     5.745
  53.980         21.67	     5.099
  54.000         30.00	     6.000
  54.020         29.17	     5.916
  54.040         26.67	     5.657
  54.060         20.83	     5.000
  54.080         14.17	     4.123
  54.100         24.17	     5.385
  54.120         18.33	     4.690
  54.140         25.83	     5.568
  54.160         34.17	     6.403
  54.180         31.67	     6.164
  54.200         31.67	     6.164
  54.220         39.17	     6.856
  54.240         40.83	     7.000
  54.260         30.00	     6.000
  54.280         30.83	     6.083
  54.300         33.33	     6.325
  54.320         33.33	     6.325
  54.340         32.50	     6.245
  54.360         34.17	     6.403
  54.380         31.67	     6.164
  54.400         25.00	     5.477
  54.420         34.17	     6.403
  54.440         28.33	     5.831
  54.460         47.50	     7.550
  54.480         22.50	     5.196
  54.500         34.17	     6.403
  54.520         32.50	     6.245
  54.540         25.00	     5.477
  54.560         34.17	     6.403
  54.580         26.67	     5.657
  54.600         33.33	     6.325
  54.620         36.67	     6.633
  54.640         40.83	     7.000
  54.660         44.17	     7.280
  54.680         60.83	     8.544
  54.700         99.17	    10.909
  54.720        149.17	    13.379
  54.740        140.00	    12.961
  54.760        119.17	    11.958
  54.780         86.67	    10.198
  54.800         70.00	     9.165
  54.820         38.33	     6.782
  54.840         54.17	     8.062
  54.860         68.33	     9.055
  54.880         94.17	    10.630
  54.900         85.83	    10.149
  54.920         59.17	     8.426
  54.940         48.33	     7.616
  54.960         35.00	     6.481
  54.980         35.00	     6.481
  55.000         42.50	     7.141
  55.020         20.83	     5.000
  55.040         28.33	     5.831
  55.060         31.67	     6.164
  55.080         30.83	     6.083
  55.100         27.50	     5.745
  55.120         25.00	     5.477
  55.140         34.17	     6.403
  55.160         40.83	     7.000
  55.180         51.67	     7.874
  55.200         51.67	     7.874
  55.220         62.50	     8.660
  55.240         30.83	     6.083
  55.260         45.00	     7.348
  55.280         45.83	     7.416
  55.300         45.83	     7.416
  55.320         35.00	     6.481
  55.340         60.83	     8.544
  55.360         37.50	     6.708
  55.380         46.67	     7.483
  55.400         30.83	     6.083
  55.420         27.50	     5.745
  55.440         27.50	     5.745
  55.460         29.17	     5.916
  55.480         35.00	     6.481
  55.500         32.50	     6.245
  55.520         29.17	     5.916
  55.540         39.17	     6.856
  55.560         35.00	     6.481
  55.580         35.00	     6.481
  55.600         28.33	     5.831
  55.620         40.83	     7.000
  55.640         34.17	     6.403
  55.660         40.83	     7.000
  55.680         50.00	     7.746
  55.700         44.17	     7.280
  55.720         36.67	     6.633
  55.740         47.50	     7.550
  55.760         45.00	     7.348
  55.780         40.00	     6.928
  55.800         39.17	     6.856
  55.820         35.83	     6.557
  55.840         35.00	     6.481
  55.860         30.00	     6.000
  55.880         38.33	     6.782
  55.900         42.50	     7.141
  55.920         35.00	     6.481
  55.940         38.33	     6.782
  55.960         40.83	     7.000
  55.980         42.50	     7.141
  56.000         42.50	     7.141
  56.020         33.33	     6.325
  56.040         31.67	     6.164
  56.060         30.00	     6.000
  56.080         38.33	     6.782
  56.100         27.50	     5.745
  56.120         24.17	     5.385
  56.140         26.67	     5.657
  56.160         24.17	     5.385
  56.180         38.33	     6.782
  56.200         23.33	     5.292
  56.220         36.67	     6.633
  56.240         33.33	     6.325
  56.260         25.83	     5.568
  56.280         25.00	     5.477
  56.300         28.33	     5.831
  56.320         18.33	     4.690
  56.340         26.67	     5.657
  56.360         18.33	     4.690
  56.380         20.00	     4.899
  56.400         23.33	     5.292
  56.420         20.83	     5.000
  56.440         18.33	     4.690
  56.460         15.00	     4.243
  56.480         19.17	     4.796
  56.500         18.33	     4.690
  56.520         18.33	     4.690
  56.540         19.17	     4.796
  56.560         21.67	     5.099
  56.580         21.67	     5.099
  56.600         21.67	     5.099
  56.620         27.50	     5.745
  56.640         28.33	     5.831
  56.660         25.83	     5.568
  56.680         15.00	     4.243
  56.700         16.67	     4.472
  56.720         18.33	     4.690
  56.740         23.33	     5.292
  56.760         25.00	     5.477
  56.780         15.00	     4.243
  56.800         20.83	     5.000
  56.820         22.50	     5.196
  56.840         22.50	     5.196
  56.860         16.67	     4.472
  56.880         20.83	     5.000
  56.900         25.00	     5.477
  56.920         20.83	     5.000
  56.940         24.17	     5.385
  56.960         17.50	     4.583
  56.980         22.50	     5.196
  57.000         18.33	     4.690
  57.020         25.00	     5.477
  57.040         20.83	     5.000
  57.060         22.50	     5.196
  57.080         30.83	     6.083
  57.100         24.17	     5.385
  57.120         28.33	     5.831
  57.140         33.33	     6.325
  57.160         25.00	     5.477
  57.180         22.50	     5.196
  57.200         25.83	     5.568
  57.220         18.33	     4.690
  57.240         14.17	     4.123
  57.260         32.50	     6.245
  57.280         32.50	     6.245
  57.300         24.17	     5.385
  57.320         29.17	     5.916
  57.340         35.00	     6.481
  57.360         31.67	     6.164
  57.380         25.83	     5.568
  57.400         30.00	     6.000
  57.420         21.67	     5.099
  57.440         31.67	     6.164
  57.460         45.83	     7.416
  57.480         26.67	     5.657
  57.500         33.33	     6.325
  57.520         35.83	     6.557
  57.540         25.83	     5.568
  57.560         39.17	     6.856
  57.580         30.83	     6.083
  57.600         40.00	     6.928
  57.620         35.00	     6.481
  57.640         27.50	     5.745
  57.660         37.50	     6.708
  57.680         28.33	     5.831
  57.700         25.83	     5.568
  57.720         24.17	     5.385
  57.740         21.67	     5.099
  57.760         31.67	     6.164
  57.780         32.50	     6.245
  57.800         26.67	     5.657
  57.820         33.33	     6.325
  57.840         15.00	     4.243
  57.860         25.83	     5.568
  57.880         30.00	     6.000
  57.900         27.50	     5.745
  57.920         20.00	     4.899
  57.940         29.17	     5.916
  57.960         29.17	     5.916
  57.980         28.33	     5.831
  58.000         30.00	     6.000
  58.020         16.67	     4.472
  58.040         24.17	     5.385
  58.060         27.50	     5.745
  58.080         34.17	     6.403
  58.100         27.50	     5.745
  58.120         35.00	     6.481
  58.140         42.50	     7.141
  58.160         47.50	     7.550
  58.180         38.33	     6.782
  58.200         40.83	     7.000
  58.220         39.17	     6.856
  58.240         35.00	     6.481
  58.260         27.50	     5.745
  58.280         43.33	     7.211
  58.300         39.17	     6.856
  58.320         36.67	     6.633
  58.340         35.00	     6.481
  58.360         34.17	     6.403
  58.380         38.33	     6.782
  58.400         40.00	     6.928
  58.420         35.83	     6.557
  58.440         35.83	     6.557
  58.460         45.00	     7.348
  58.480         49.17	     7.681
  58.500         47.50	     7.550
  58.520         42.50	     7.141
  58.540         39.17	     6.856
  58.560         45.83	     7.416
  58.580         49.17	     7.681
  58.600         41.67	     7.071
  58.620         50.00	     7.746
  58.640         47.50	     7.550
  58.660         45.83	     7.416
  58.680         36.67	     6.633
  58.700         34.17	     6.403
  58.720         35.83	     6.557
  58.740         26.67	     5.657
  58.760         34.17	     6.403
  58.780         31.67	     6.164
  58.800         27.50	     5.745
  58.820         30.83	     6.083
  58.840         36.67	     6.633
  58.860         33.33	     6.325
  58.880         33.33	     6.325
  58.900         33.33	     6.325
  58.920         32.50	     6.245
  58.940         35.83	     6.557
  58.960         24.17	     5.385
  58.980         29.17	     5.916
  59.000         29.17	     5.916
  59.020         57.50	     8.307
  59.040         24.17	     5.385
  59.060         36.67	     6.633
  59.080         30.83	     6.083
  59.100         29.17	     5.916
  59.120         30.83	     6.083
  59.140         29.17	     5.916
  59.160         34.17	     6.403
  59.180         44.17	     7.280
  59.200         29.17	     5.916
  59.220         38.33	     6.782
  59.240         42.50	     7.141
  59.260         29.17	     5.916
  59.280         24.17	     5.385
  59.300         27.50	     5.745
  59.320         27.50	     5.745
  59.340         26.67	     5.657
  59.360         25.83	     5.568
  59.380         30.83	     6.083
  59.400         21.67	     5.099
  59.420         26.67	     5.657
  59.440         25.00	     5.477
  59.460         29.17	     5.916
  59.480         40.00	     6.928
  59.500         28.33	     5.831
  59.520         34.17	     6.403
  59.540         34.17	     6.403
  59.560         27.50	     5.745
  59.580         25.83	     5.568
  59.600         37.50	     6.708
  59.620         40.00	     6.928
  59.640         36.67	     6.633
  59.660         40.83	     7.000
  59.680         45.00	     7.348
  59.700         49.17	     7.681
  59.720         40.83	     7.000
  59.740         50.00	     7.746
  59.760         70.83	     9.220
  59.780        116.67	    11.832
  59.800        232.50	    16.703
  59.820        300.00	    18.974
  59.840        305.00	    19.131
  59.860        340.00	    20.199
  59.880        250.00	    17.321
  59.900        164.17	    14.036
  59.920        126.67	    12.329
  59.940        105.00	    11.225
  59.960        121.67	    12.083
  59.980        181.67	    14.765
  60.000        177.50	    14.595
  60.020        184.17	    14.866
  60.040        150.83	    13.454
  60.060        115.00	    11.747
  60.080         65.83	     8.888
  60.100         65.00	     8.832
  60.120         50.00	     7.746
  60.140         42.50	     7.141
  60.160         35.83	     6.557
  60.180         52.50	     7.937
  60.200         35.00	     6.481
  60.220         38.33	     6.782
  60.240         34.17	     6.403
  60.260         31.67	     6.164
  60.280         36.67	     6.633
  60.300         30.83	     6.083
  60.320         32.50	     6.245
  60.340         37.50	     6.708
  60.360         30.83	     6.083
  60.380         30.83	     6.083
  60.400         20.83	     5.000
  60.420         40.83	     7.000
  60.440         27.50	     5.745
  60.460         30.00	     6.000
  60.480         28.33	     5.831
  60.500         27.50	     5.745
  60.520         26.67	     5.657
  60.540         25.00	     5.477
  60.560         40.00	     6.928
  60.580         31.67	     6.164
  60.600         38.33	     6.782
  60.620         37.50	     6.708
  60.640         32.50	     6.245
  60.660         36.67	     6.633
  60.680         45.83	     7.416
  60.700         30.83	     6.083
  60.720         35.00	     6.481
  60.740         42.50	     7.141
  60.760         35.83	     6.557
  60.780         46.67	     7.483
  60.800         34.17	     6.403
  60.820         36.67	     6.633
  60.840         32.50	     6.245
  60.860         32.50	     6.245
  60.880         34.17	     6.403
  60.900         27.50	     5.745
  60.920         35.83	     6.557
  60.940         38.33	     6.782
  60.960         37.50	     6.708
  60.980         40.83	     7.000
  61.000         30.00	     6.000
  61.020         32.50	     6.245
  61.040         29.17	     5.916
  61.060         49.17	     7.681
  61.080         35.83	     6.557
  61.100         30.00	     6.000
  61.120         33.33	     6.325
  61.140         45.00	     7.348
  61.160         30.00	     6.000
  61.180         30.00	     6.000
  61.200         34.17	     6.403
  61.220         26.67	     5.657
  61.240         36.67	     6.633
  61.260         34.17	     6.403
  61.280         39.17	     6.856
  61.300         48.33	     7.616
  61.320         43.33	     7.211
  61.340         34.17	     6.403
  61.360         35.00	     6.481
  61.380         38.33	     6.782
  61.400         40.83	     7.000
  61.420         41.67	     7.071
  61.440         43.33	     7.211
  61.460         37.50	     6.708
  61.480         56.67	     8.246
  61.500         46.67	     7.483
  61.520         50.00	     7.746
  61.540         28.33	     5.831
  61.560         46.67	     7.483
  61.580         40.83	     7.000
  61.600         48.33	     7.616
  61.620         31.67	     6.164
  61.640         32.50	     6.245
  61.660         34.17	     6.403
  61.680         30.00	     6.000
  61.700         39.17	     6.856
  61.720         36.67	     6.633
  61.740         30.83	     6.083
  61.760         34.17	     6.403
  61.780         25.83	     5.568
  61.800         30.83	     6.083
  61.820         40.83	     7.000
  61.840         28.33	     5.831
  61.860         25.83	     5.568
  61.880         31.67	     6.164
  61.900         26.67	     5.657
  61.920         30.83	     6.083
  61.940         35.83	     6.557
  61.960         30.00	     6.000
  61.980         33.33	     6.325
  62.000         40.00	     6.928
  62.020         28.33	     5.831
  62.040         29.17	     5.916
  62.060         31.67	     6.164
  62.080         35.83	     6.557
  62.100         34.17	     6.403
  62.120         28.33	     5.831
  62.140         33.33	     6.325
  62.160         21.67	     5.099
  62.180         26.67	     5.657
  62.200         29.17	     5.916
  62.220         35.00	     6.481
  62.240         29.17	     5.916
  62.260         25.83	     5.568
  62.280         23.33	     5.292
  62.300         30.83	     6.083
  62.320         23.33	     5.292
  62.340         32.50	     6.245
  62.360         30.00	     6.000
  62.380         30.83	     6.083
  62.400         20.00	     4.899
  62.420         35.83	     6.557
  62.440         22.50	     5.196
  62.460         22.50	     5.196
  62.480         26.67	     5.657
  62.500         27.50	     5.745
  62.520         28.33	     5.831
  62.540         45.83	     7.416
  62.560         36.67	     6.633
  62.580         31.67	     6.164
  62.600         38.33	     6.782
  62.620         24.17	     5.385
  62.640         35.00	     6.481
  62.660         38.33	     6.782
  62.680         22.50	     5.196
  62.700         30.00	     6.000
  62.720         30.83	     6.083
  62.740         24.17	     5.385
  62.760         32.50	     6.245
  62.780         21.67	     5.099
  62.800         23.33	     5.292
  62.820         20.83	     5.000
  62.840         29.17	     5.916
  62.860         25.00	     5.477
  62.880         23.33	     5.292
  62.900         30.00	     6.000
  62.920         25.83	     5.568
  62.940         22.50	     5.196
  62.960         26.67	     5.657
  62.980         30.00	     6.000
  63.000         20.83	     5.000
  63.020         18.33	     4.690
  63.040         28.33	     5.831
  63.060         34.17	     6.403
  63.080         29.17	     5.916
  63.100         25.83	     5.568
  63.120         23.33	     5.292
  63.140         32.50	     6.245
  63.160         30.00	     6.000
  63.180         28.33	     5.831
  63.200         32.50	     6.245
  63.220         28.33	     5.831
  63.240         23.33	     5.292
  63.260         24.17	     5.385
  63.280         31.67	     6.164
  63.300         38.33	     6.782
  63.320         21.67	     5.099
  63.340         33.33	     6.325
  63.360         25.83	     5.568
  63.380         29.17	     5.916
  63.400         38.33	     6.782
  63.420         30.83	     6.083
  63.440         34.17	     6.403
  63.460         30.83	     6.083
  63.480         40.83	     7.000
  63.500         35.00	     6.481
  63.520         35.83	     6.557
  63.540         32.50	     6.245
  63.560         31.67	     6.164
  63.580         33.33	     6.325
  63.600         48.33	     7.616
  63.620         36.67	     6.633
  63.640         37.50	     6.708
  63.660         35.00	     6.481
  63.680         41.67	     7.071
  63.700         44.17	     7.280
  63.720         41.67	     7.071
  63.740         56.67	     8.246
  63.760         29.17	     5.916
  63.780         47.50	     7.550
  63.800         35.83	     6.557
  63.820         34.17	     6.403
  63.840         46.67	     7.483
  63.860         48.33	     7.616
  63.880         64.17	     8.775
  63.900         70.00	     9.165
  63.920         78.33	     9.695
  63.940         84.17	    10.050
  63.960         70.83	     9.220
  63.980         63.33	     8.718
  64.000         63.33	     8.718
  64.020         80.83	     9.849
  64.040         64.17	     8.775
  64.060         65.83	     8.888
  64.080         86.67	    10.198
  64.100         93.33	    10.583
  64.120         88.33	    10.296
  64.140         94.17	    10.630
  64.160         90.83	    10.440
  64.180         95.83	    10.724
  64.200        105.83	    11.269
  64.220        131.67	    12.570
  64.240        208.33	    15.811
  64.260        333.33	    20.000
  64.280        634.17	    27.586
  64.300       1076.67	    35.944
  64.320       1180.00	    37.630
  64.340        865.00	    32.218
  64.360        508.33	    24.698
  64.380        273.33	    18.111
  64.400        207.50	    15.780
  64.420        207.50	    15.780
  64.440        259.17	    17.635
  64.460        411.67	    22.226
  64.480        597.50	    26.777
  64.500        664.17	    28.231
  64.520        483.33	    24.083
  64.540        265.83	    17.861
  64.560        155.83	    13.675
  64.580        132.50	    12.610
  64.600        107.50	    11.358
  64.620         79.17	     9.747
  64.640         68.33	     9.055
  64.660         77.50	     9.644
  64.680         90.00	    10.392
  64.700         76.67	     9.592
  64.720         94.17	    10.630
  64.740         70.00	     9.165
  64.760         63.33	     8.718
  64.780         49.17	     7.681
  64.800         42.50	     7.141
  64.820         35.00	     6.481
  64.840         39.17	     6.856
  64.860         44.17	     7.280
  64.880         42.50	     7.141
  64.900         45.83	     7.416
  64.920         42.50	     7.141
  64.940         38.33	     6.782
  64.960         30.00	     6.000
  64.980         50.00	     7.746
  65.000         49.17	     7.681
