
Filename:
	C:\Program Files\Thermo Electron\WinXRD\Datafiles\F_HERMAN\FIEN\4A_FT.raw

File Created:
	October 01, 2019 - 05:18 PM

Specimen Id:
	4A FT

Specimen Name:
	

Specimen Description:
	

Comment:
Scan Type: 2Theta Scan
Start Angle: 1 deg.
Stop Angle: 65 deg.
Num Points: 3201
Step Size: 0.02 deg.
Scan Rate: 1.000000
Scan Mode: Continuous
Wavelength: 1.540562
\Kalpha1: 1.540562	\Kalpha2: 1.544390	\Kbeta: 1.392218

Optics:
		Detector:
			 Type: Fixed Slits
		Tube: 
			 Type: Fixed Slits


Datas:
 Pos [deg]       Rate [CPS]      ESD [-]

Range 1 ---> Iteration 1
   1.000          0.00	     0.000
   1.020          0.00	     0.000
   1.040          0.00	     0.000
   1.060          0.00	     0.000
   1.080          0.00	     0.000
   1.100         57.50	     8.307
   1.120        126.67	    12.329
   1.140        976.67	    34.234
   1.160        305.83	    19.157
   1.180        571.67	    26.192
   1.200        188.33	    15.033
   1.220        295.83	    18.841
   1.240        318.33	    19.545
   1.260        290.83	    18.682
   1.280        271.67	    18.055
   1.300        319.17	    19.570
   1.320        331.67	    19.950
   1.340        380.00	    21.354
   1.360        370.83	    21.095
   1.380        431.67	    22.760
   1.400        585.00	    26.495
   1.420        850.83	    31.953
   1.440       1138.33	    36.959
   1.460       1524.17	    42.767
   1.480       2127.50	    50.527
   1.500       2695.00	    56.868
   1.520       2568.33	    55.516
   1.540       2801.67	    57.983
   1.560       2716.67	    57.096
   1.580       2633.33	    56.214
   1.600       2681.67	    56.727
   1.620       2484.17	    54.599
   1.640       2515.83	    54.945
   1.660       2515.00	    54.936
   1.680       2454.17	    54.268
   1.700       2376.67	    53.404
   1.720       2524.17	    55.036
   1.740       2275.83	    52.259
   1.760       2294.17	    52.469
   1.780       2108.33	    50.299
   1.800       1920.83	    48.010
   1.820       1907.50	    47.843
   1.840       1777.50	    46.184
   1.860       1565.83	    43.347
   1.880       1344.17	    40.162
   1.900       1276.67	    39.141
   1.920       1130.83	    36.837
   1.940        974.17	    34.191
   1.960        897.50	    32.818
   1.980        842.50	    31.796
   2.000        840.83	    31.765
   2.020        822.50	    31.417
   2.040        855.00	    32.031
   2.060        840.83	    31.765
   2.080        768.33	    30.364
   2.100        735.83	    29.715
   2.120        777.50	    30.545
   2.140        766.67	    30.332
   2.160        758.33	    30.166
   2.180        735.83	    29.715
   2.200        747.50	    29.950
   2.220        730.83	    29.614
   2.240        716.67	    29.326
   2.260        670.00	    28.355
   2.280        694.17	    28.862
   2.300        698.33	    28.948
   2.320        669.17	    28.337
   2.340        647.50	    27.875
   2.360        730.83	    29.614
   2.380        634.17	    27.586
   2.400        682.50	    28.618
   2.420        619.17	    27.258
   2.440        642.50	    27.767
   2.460        675.00	    28.460
   2.480        630.83	    27.514
   2.500        610.83	    27.074
   2.520        610.83	    27.074
   2.540        624.17	    27.368
   2.560        570.00	    26.153
   2.580        592.50	    26.665
   2.600        595.83	    26.739
   2.620        549.17	    25.671
   2.640        573.33	    26.230
   2.660        557.50	    25.865
   2.680        566.67	    26.077
   2.700        572.50	    26.211
   2.720        589.17	    26.589
   2.740        588.33	    26.571
   2.760        525.83	    25.120
   2.780        519.17	    24.960
   2.800        508.33	    24.698
   2.820        555.83	    25.826
   2.840        511.67	    24.779
   2.860        542.50	    25.515
   2.880        499.17	    24.474
   2.900        500.00	    24.495
   2.920        523.33	    25.060
   2.940        510.83	    24.759
   2.960        518.33	    24.940
   2.980        480.83	    24.021
   3.000        475.83	    23.896
   3.020        461.67	    23.537
   3.040        485.00	    24.125
   3.060        472.50	    23.812
   3.080        459.17	    23.473
   3.100        460.83	    23.516
   3.120        475.00	    23.875
   3.140        455.83	    23.388
   3.160        455.83	    23.388
   3.180        435.00	    22.847
   3.200        450.00	    23.238
   3.220        474.17	    23.854
   3.240        445.83	    23.130
   3.260        439.17	    22.956
   3.280        450.00	    23.238
   3.300        455.83	    23.388
   3.320        440.00	    22.978
   3.340        456.67	    23.409
   3.360        414.17	    22.293
   3.380        435.83	    22.869
   3.400        418.33	    22.405
   3.420        418.33	    22.405
   3.440        394.17	    21.749
   3.460        391.67	    21.679
   3.480        413.33	    22.271
   3.500        382.50	    21.424
   3.520        427.50	    22.650
   3.540        370.83	    21.095
   3.560        397.50	    21.840
   3.580        424.17	    22.561
   3.600        425.83	    22.605
   3.620        382.50	    21.424
   3.640        413.33	    22.271
   3.660        384.17	    21.471
   3.680        419.17	    22.428
   3.700        372.50	    21.142
   3.720        371.67	    21.119
   3.740        368.33	    21.024
   3.760        395.00	    21.772
   3.780        395.83	    21.794
   3.800        375.83	    21.237
   3.820        390.00	    21.633
   3.840        369.17	    21.048
   3.860        328.33	    19.849
   3.880        400.00	    21.909
   3.900        364.17	    20.905
   3.920        381.67	    21.401
   3.940        355.00	    20.640
   3.960        351.67	    20.543
   3.980        358.33	    20.736
   4.000        369.17	    21.048
   4.020        370.00	    21.071
   4.040        345.83	    20.372
   4.060        368.33	    21.024
   4.080        347.50	    20.421
   4.100        327.50	    19.824
   4.120        340.00	    20.199
   4.140        323.33	    19.698
   4.160        377.50	    21.284
   4.180        342.50	    20.273
   4.200        312.50	    19.365
   4.220        331.67	    19.950
   4.240        289.17	    18.628
   4.260        323.33	    19.698
   4.280        339.17	    20.174
   4.300        326.67	    19.799
   4.320        330.83	    19.925
   4.340        339.17	    20.174
   4.360        306.67	    19.183
   4.380        303.33	    19.079
   4.400        347.50	    20.421
   4.420        343.33	    20.298
   4.440        310.83	    19.313
   4.460        310.83	    19.313
   4.480        315.00	    19.442
   4.500        325.83	    19.774
   4.520        296.67	    18.868
   4.540        300.83	    19.000
   4.560        286.67	    18.547
   4.580        328.33	    19.849
   4.600        288.33	    18.601
   4.620        287.50	    18.574
   4.640        309.17	    19.261
   4.660        290.00	    18.655
   4.680        291.67	    18.708
   4.700        288.33	    18.601
   4.720        275.83	    18.193
   4.740        310.00	    19.287
   4.760        308.33	    19.235
   4.780        264.17	    17.804
   4.800        287.50	    18.574
   4.820        305.83	    19.157
   4.840        260.00	    17.664
   4.860        283.33	    18.439
   4.880        260.00	    17.664
   4.900        298.33	    18.921
   4.920        230.83	    16.643
   4.940        255.83	    17.521
   4.960        312.50	    19.365
   4.980        272.50	    18.083
   5.000        290.00	    18.655
   5.020        290.83	    18.682
   5.040        241.67	    17.029
   5.060        276.67	    18.221
   5.080        275.83	    18.193
   5.100        271.67	    18.055
   5.120        267.50	    17.916
   5.140        271.67	    18.055
   5.160        262.50	    17.748
   5.180        272.50	    18.083
   5.200        274.17	    18.138
   5.220        267.50	    17.916
   5.240        235.83	    16.823
   5.260        273.33	    18.111
   5.280        268.33	    17.944
   5.300        282.50	    18.412
   5.320        264.17	    17.804
   5.340        240.00	    16.971
   5.360        250.00	    17.321
   5.380        242.50	    17.059
   5.400        294.17	    18.788
   5.420        255.83	    17.521
   5.440        255.83	    17.521
   5.460        237.50	    16.882
   5.480        235.00	    16.793
   5.500        256.67	    17.550
   5.520        226.67	    16.492
   5.540        258.33	    17.607
   5.560        240.83	    17.000
   5.580        266.67	    17.889
   5.600        254.17	    17.464
   5.620        248.33	    17.263
   5.640        263.33	    17.776
   5.660        268.33	    17.944
   5.680        271.67	    18.055
   5.700        282.50	    18.412
   5.720        283.33	    18.439
   5.740        270.00	    18.000
   5.760        310.00	    19.287
   5.780        314.17	    19.416
   5.800        315.00	    19.442
   5.820        300.83	    19.000
   5.840        311.67	    19.339
   5.860        296.67	    18.868
   5.880        332.50	    19.975
   5.900        295.00	    18.815
   5.920        269.17	    17.972
   5.940        313.33	    19.391
   5.960        305.83	    19.157
   5.980        322.50	    19.672
   6.000        310.00	    19.287
   6.020        321.67	    19.647
   6.040        357.50	    20.712
   6.060        333.33	    20.000
   6.080        375.83	    21.237
   6.100        361.67	    20.833
   6.120        384.17	    21.471
   6.140        352.50	    20.567
   6.160        360.83	    20.809
   6.180        355.83	    20.664
   6.200        305.00	    19.131
   6.220        287.50	    18.574
   6.240        281.67	    18.385
   6.260        240.00	    16.971
   6.280        225.83	    16.462
   6.300        235.00	    16.793
   6.320        202.50	    15.588
   6.340        220.83	    16.279
   6.360        225.83	    16.462
   6.380        250.83	    17.349
   6.400        252.50	    17.407
   6.420        233.33	    16.733
   6.440        221.67	    16.310
   6.460        240.83	    17.000
   6.480        230.83	    16.643
   6.500        228.33	    16.553
   6.520        243.33	    17.088
   6.540        235.83	    16.823
   6.560        236.67	    16.852
   6.580        230.83	    16.643
   6.600        204.17	    15.652
   6.620        211.67	    15.937
   6.640        227.50	    16.523
   6.660        218.33	    16.186
   6.680        243.33	    17.088
   6.700        209.17	    15.843
   6.720        226.67	    16.492
   6.740        229.17	    16.583
   6.760        231.67	    16.673
   6.780        230.83	    16.643
   6.800        220.83	    16.279
   6.820        223.33	    16.371
   6.840        213.33	    16.000
   6.860        178.33	    14.629
   6.880        203.33	    15.620
   6.900        212.50	    15.969
   6.920        190.00	    15.100
   6.940        186.67	    14.967
   6.960        200.83	    15.524
   6.980        177.50	    14.595
   7.000        192.50	    15.199
   7.020        179.17	    14.663
   7.040        186.67	    14.967
   7.060        185.83	    14.933
   7.080        170.00	    14.283
   7.100        205.83	    15.716
   7.120        185.83	    14.933
   7.140        185.83	    14.933
   7.160        211.67	    15.937
   7.180        186.67	    14.967
   7.200        185.00	    14.900
   7.220        196.67	    15.362
   7.240        194.17	    15.264
   7.260        201.67	    15.556
   7.280        182.50	    14.799
   7.300        203.33	    15.620
   7.320        185.00	    14.900
   7.340        178.33	    14.629
   7.360        165.00	    14.071
   7.380        193.33	    15.232
   7.400        178.33	    14.629
   7.420        164.17	    14.036
   7.440        167.50	    14.177
   7.460        185.83	    14.933
   7.480        170.00	    14.283
   7.500        170.00	    14.283
   7.520        156.67	    13.711
   7.540        172.50	    14.387
   7.560        197.50	    15.395
   7.580        185.83	    14.933
   7.600        162.50	    13.964
   7.620        180.83	    14.731
   7.640        179.17	    14.663
   7.660        188.33	    15.033
   7.680        161.67	    13.928
   7.700        183.33	    14.832
   7.720        161.67	    13.928
   7.740        176.67	    14.560
   7.760        154.17	    13.601
   7.780        158.33	    13.784
   7.800        165.83	    14.107
   7.820        157.50	    13.748
   7.840        173.33	    14.422
   7.860        180.00	    14.697
   7.880        160.83	    13.892
   7.900        162.50	    13.964
   7.920        189.17	    15.067
   7.940        188.33	    15.033
   7.960        145.83	    13.229
   7.980        144.17	    13.153
   8.000        151.67	    13.491
   8.020        170.00	    14.283
   8.040        141.67	    13.038
   8.060        173.33	    14.422
   8.080        145.00	    13.191
   8.100        163.33	    14.000
   8.120        169.17	    14.248
   8.140        140.83	    13.000
   8.160        172.50	    14.387
   8.180        170.00	    14.283
   8.200        154.17	    13.601
   8.220        180.83	    14.731
   8.240        170.00	    14.283
   8.260        177.50	    14.595
   8.280        195.00	    15.297
   8.300        180.00	    14.697
   8.320        175.00	    14.491
   8.340        179.17	    14.663
   8.360        163.33	    14.000
   8.380        209.17	    15.843
   8.400        185.83	    14.933
   8.420        185.00	    14.900
   8.440        190.83	    15.133
   8.460        185.83	    14.933
   8.480        189.17	    15.067
   8.500        215.00	    16.062
   8.520        200.83	    15.524
   8.540        250.83	    17.349
   8.560        242.50	    17.059
   8.580        266.67	    17.889
   8.600        260.00	    17.664
   8.620        278.33	    18.276
   8.640        309.17	    19.261
   8.660        335.83	    20.075
   8.680        341.67	    20.248
   8.700        372.50	    21.142
   8.720        428.33	    22.672
   8.740        502.50	    24.556
   8.760        516.67	    24.900
   8.780        515.00	    24.860
   8.800        557.50	    25.865
   8.820        515.83	    24.880
   8.840        472.50	    23.812
   8.860        298.33	    18.921
   8.880        229.17	    16.583
   8.900        190.83	    15.133
   8.920        171.67	    14.353
   8.940        187.50	    15.000
   8.960        160.83	    13.892
   8.980        184.17	    14.866
   9.000        167.50	    14.177
   9.020        175.00	    14.491
   9.040        135.00	    12.728
   9.060        144.17	    13.153
   9.080        159.17	    13.820
   9.100        160.83	    13.892
   9.120        143.33	    13.115
   9.140        149.17	    13.379
   9.160        163.33	    14.000
   9.180        157.50	    13.748
   9.200        168.33	    14.213
   9.220        145.83	    13.229
   9.240        150.00	    13.416
   9.260        156.67	    13.711
   9.280        164.17	    14.036
   9.300        168.33	    14.213
   9.320        220.83	    16.279
   9.340        232.50	    16.703
   9.360        218.33	    16.186
   9.380        221.67	    16.310
   9.400        192.50	    15.199
   9.420        151.67	    13.491
   9.440        125.83	    12.288
   9.460        146.67	    13.266
   9.480        137.50	    12.845
   9.500        133.33	    12.649
   9.520        140.00	    12.961
   9.540        145.00	    13.191
   9.560        150.00	    13.416
   9.580        112.50	    11.619
   9.600        138.33	    12.884
   9.620        149.17	    13.379
   9.640        114.17	    11.705
   9.660        125.00	    12.247
   9.680        144.17	    13.153
   9.700        145.00	    13.191
   9.720        152.50	    13.528
   9.740        149.17	    13.379
   9.760        132.50	    12.610
   9.780        120.83	    12.042
   9.800        110.83	    11.533
   9.820        105.00	    11.225
   9.840        120.83	    12.042
   9.860        110.83	    11.533
   9.880        120.83	    12.042
   9.900        114.17	    11.705
   9.920        113.33	    11.662
   9.940        118.33	    11.916
   9.960        115.00	    11.747
   9.980        102.50	    11.091
  10.000        108.33	    11.402
  10.020        110.00	    11.489
  10.040        132.50	    12.610
  10.060        131.67	    12.570
  10.080        127.50	    12.369
  10.100        104.17	    11.180
  10.120        110.83	    11.533
  10.140        122.50	    12.124
  10.160        126.67	    12.329
  10.180        106.67	    11.314
  10.200        119.17	    11.958
  10.220        121.67	    12.083
  10.240        127.50	    12.369
  10.260        140.83	    13.000
  10.280        125.00	    12.247
  10.300        125.00	    12.247
  10.320        148.33	    13.342
  10.340        127.50	    12.369
  10.360        156.67	    13.711
  10.380        181.67	    14.765
  10.400        210.83	    15.906
  10.420        237.50	    16.882
  10.440        261.67	    17.720
  10.460        214.17	    16.031
  10.480        175.00	    14.491
  10.500        161.67	    13.928
  10.520        143.33	    13.115
  10.540        130.00	    12.490
  10.560        112.50	    11.619
  10.580        117.50	    11.874
  10.600        103.33	    11.136
  10.620        113.33	    11.662
  10.640        106.67	    11.314
  10.660        121.67	    12.083
  10.680        107.50	    11.358
  10.700        116.67	    11.832
  10.720        104.17	    11.180
  10.740        115.83	    11.790
  10.760        110.83	    11.533
  10.780        106.67	    11.314
  10.800        110.00	    11.489
  10.820         85.83	    10.149
  10.840        101.67	    11.045
  10.860        119.17	    11.958
  10.880        110.83	    11.533
  10.900        116.67	    11.832
  10.920        111.67	    11.576
  10.940        105.83	    11.269
  10.960         95.83	    10.724
  10.980        117.50	    11.874
  11.000         87.50	    10.247
  11.020        119.17	    11.958
  11.040        111.67	    11.576
  11.060        100.00	    10.954
  11.080         93.33	    10.583
  11.100         88.33	    10.296
  11.120        100.83	    11.000
  11.140         87.50	    10.247
  11.160        119.17	    11.958
  11.180         85.00	    10.100
  11.200         95.83	    10.724
  11.220         93.33	    10.583
  11.240         94.17	    10.630
  11.260        101.67	    11.045
  11.280        100.83	    11.000
  11.300        108.33	    11.402
  11.320        135.00	    12.728
  11.340         97.50	    10.817
  11.360        121.67	    12.083
  11.380         95.00	    10.677
  11.400        114.17	    11.705
  11.420        101.67	    11.045
  11.440         93.33	    10.583
  11.460         88.33	    10.296
  11.480         99.17	    10.909
  11.500        104.17	    11.180
  11.520        118.33	    11.916
  11.540        105.83	    11.269
  11.560        120.83	    12.042
  11.580        115.00	    11.747
  11.600        108.33	    11.402
  11.620        127.50	    12.369
  11.640        136.67	    12.806
  11.660        114.17	    11.705
  11.680        100.00	    10.954
  11.700        100.00	    10.954
  11.720        115.83	    11.790
  11.740        117.50	    11.874
  11.760        128.33	    12.410
  11.780        132.50	    12.610
  11.800        100.83	    11.000
  11.820        135.83	    12.767
  11.840        125.00	    12.247
  11.860        131.67	    12.570
  11.880        170.83	    14.318
  11.900        165.83	    14.107
  11.920        185.83	    14.933
  11.940        190.83	    15.133
  11.960        231.67	    16.673
  11.980        292.50	    18.735
  12.000        410.83	    22.204
  12.020        547.50	    25.632
  12.040        700.00	    28.983
  12.060        855.83	    32.047
  12.080       1099.17	    36.318
  12.100       1172.50	    37.510
  12.120       1148.33	    37.121
  12.140       1034.17	    35.228
  12.160        799.17	    30.968
  12.180        575.00	    26.268
  12.200        491.67	    24.290
  12.220        423.33	    22.539
  12.240        426.67	    22.627
  12.260        472.50	    23.812
  12.280        468.33	    23.707
  12.300        395.83	    21.794
  12.320        445.00	    23.108
  12.340        443.33	    23.065
  12.360        516.67	    24.900
  12.380        548.33	    25.652
  12.400        566.67	    26.077
  12.420        519.17	    24.960
  12.440        470.83	    23.770
  12.460        330.83	    19.925
  12.480        243.33	    17.088
  12.500        195.00	    15.297
  12.520        150.83	    13.454
  12.540        131.67	    12.570
  12.560        133.33	    12.649
  12.580        115.00	    11.747
  12.600        104.17	    11.180
  12.620        111.67	    11.576
  12.640         93.33	    10.583
  12.660        103.33	    11.136
  12.680        106.67	    11.314
  12.700         95.00	    10.677
  12.720         90.00	    10.392
  12.740        114.17	    11.705
  12.760        115.00	    11.747
  12.780        102.50	    11.091
  12.800        108.33	    11.402
  12.820        102.50	    11.091
  12.840         89.17	    10.344
  12.860         88.33	    10.296
  12.880         95.83	    10.724
  12.900         82.50	     9.950
  12.920         90.83	    10.440
  12.940         94.17	    10.630
  12.960         99.17	    10.909
  12.980         88.33	    10.296
  13.000         83.33	    10.000
  13.020        100.00	    10.954
  13.040         79.17	     9.747
  13.060         95.83	    10.724
  13.080         91.67	    10.488
  13.100         85.00	    10.100
  13.120         95.00	    10.677
  13.140         86.67	    10.198
  13.160         92.50	    10.536
  13.180         95.83	    10.724
  13.200         81.67	     9.899
  13.220         90.83	    10.440
  13.240        101.67	    11.045
  13.260         97.50	    10.817
  13.280         83.33	    10.000
  13.300         90.00	    10.392
  13.320         87.50	    10.247
  13.340         91.67	    10.488
  13.360         90.83	    10.440
  13.380         94.17	    10.630
  13.400         90.00	    10.392
  13.420         87.50	    10.247
  13.440         90.00	    10.392
  13.460         92.50	    10.536
  13.480         87.50	    10.247
  13.500         91.67	    10.488
  13.520         76.67	     9.592
  13.540         89.17	    10.344
  13.560         75.83	     9.539
  13.580         95.83	    10.724
  13.600         77.50	     9.644
  13.620         91.67	    10.488
  13.640         75.83	     9.539
  13.660         79.17	     9.747
  13.680        100.00	    10.954
  13.700        107.50	    11.358
  13.720         92.50	    10.536
  13.740         98.33	    10.863
  13.760        107.50	    11.358
  13.780        111.67	    11.576
  13.800        121.67	    12.083
  13.820        108.33	    11.402
  13.840         91.67	    10.488
  13.860        100.83	    11.000
  13.880         76.67	     9.592
  13.900         82.50	     9.950
  13.920         87.50	    10.247
  13.940         78.33	     9.695
  13.960         77.50	     9.644
  13.980         70.83	     9.220
  14.000         81.67	     9.899
  14.020         77.50	     9.644
  14.040         75.83	     9.539
  14.060         73.33	     9.381
  14.080         62.50	     8.660
  14.100         80.00	     9.798
  14.120         75.83	     9.539
  14.140         75.83	     9.539
  14.160         68.33	     9.055
  14.180         80.83	     9.849
  14.200         65.83	     8.888
  14.220         70.83	     9.220
  14.240         75.83	     9.539
  14.260         65.83	     8.888
  14.280         75.00	     9.487
  14.300         66.67	     8.944
  14.320         54.17	     8.062
  14.340         90.00	    10.392
  14.360         69.17	     9.110
  14.380         76.67	     9.592
  14.400         71.67	     9.274
  14.420         75.00	     9.487
  14.440         72.50	     9.327
  14.460         66.67	     8.944
  14.480         78.33	     9.695
  14.500         70.00	     9.165
  14.520         73.33	     9.381
  14.540         67.50	     9.000
  14.560         71.67	     9.274
  14.580         74.17	     9.434
  14.600         69.17	     9.110
  14.620         59.17	     8.426
  14.640         72.50	     9.327
  14.660         60.00	     8.485
  14.680         54.17	     8.062
  14.700         63.33	     8.718
  14.720         64.17	     8.775
  14.740         72.50	     9.327
  14.760         78.33	     9.695
  14.780         60.00	     8.485
  14.800         68.33	     9.055
  14.820         79.17	     9.747
  14.840         83.33	    10.000
  14.860         81.67	     9.899
  14.880         85.00	    10.100
  14.900         83.33	    10.000
  14.920         71.67	     9.274
  14.940         88.33	    10.296
  14.960         67.50	     9.000
  14.980         89.17	    10.344
  15.000         75.83	     9.539
  15.020         69.17	     9.110
  15.040         70.00	     9.165
  15.060         66.67	     8.944
  15.080         55.00	     8.124
  15.100         70.00	     9.165
  15.120         68.33	     9.055
  15.140         69.17	     9.110
  15.160         62.50	     8.660
  15.180         74.17	     9.434
  15.200         79.17	     9.747
  15.220         70.00	     9.165
  15.240         72.50	     9.327
  15.260         64.17	     8.775
  15.280         70.83	     9.220
  15.300         65.83	     8.888
  15.320         56.67	     8.246
  15.340         82.50	     9.950
  15.360         63.33	     8.718
  15.380         57.50	     8.307
  15.400         73.33	     9.381
  15.420         60.00	     8.485
  15.440         59.17	     8.426
  15.460         57.50	     8.307
  15.480         56.67	     8.246
  15.500         57.50	     8.307
  15.520         70.83	     9.220
  15.540         71.67	     9.274
  15.560         68.33	     9.055
  15.580         68.33	     9.055
  15.600         81.67	     9.899
  15.620         59.17	     8.426
  15.640         54.17	     8.062
  15.660         50.00	     7.746
  15.680         71.67	     9.274
  15.700         58.33	     8.367
  15.720         76.67	     9.592
  15.740         70.00	     9.165
  15.760         80.00	     9.798
  15.780         56.67	     8.246
  15.800         68.33	     9.055
  15.820         62.50	     8.660
  15.840         76.67	     9.592
  15.860         60.00	     8.485
  15.880         46.67	     7.483
  15.900         63.33	     8.718
  15.920         65.83	     8.888
  15.940         64.17	     8.775
  15.960         60.83	     8.544
  15.980         51.67	     7.874
  16.000         55.00	     8.124
  16.020         47.50	     7.550
  16.040         58.33	     8.367
  16.060         45.00	     7.348
  16.080         63.33	     8.718
  16.100         55.83	     8.185
  16.120         65.83	     8.888
  16.140         55.83	     8.185
  16.160         61.67	     8.602
  16.180         63.33	     8.718
  16.200         56.67	     8.246
  16.220         60.83	     8.544
  16.240         71.67	     9.274
  16.260         57.50	     8.307
  16.280         61.67	     8.602
  16.300         68.33	     9.055
  16.320         53.33	     8.000
  16.340         73.33	     9.381
  16.360         56.67	     8.246
  16.380         50.83	     7.810
  16.400         58.33	     8.367
  16.420         60.00	     8.485
  16.440         46.67	     7.483
  16.460         70.00	     9.165
  16.480         50.00	     7.746
  16.500         50.83	     7.810
  16.520         57.50	     8.307
  16.540         54.17	     8.062
  16.560         60.83	     8.544
  16.580         80.83	     9.849
  16.600         55.00	     8.124
  16.620         50.83	     7.810
  16.640         58.33	     8.367
  16.660         52.50	     7.937
  16.680         58.33	     8.367
  16.700         62.50	     8.660
  16.720         60.83	     8.544
  16.740         55.83	     8.185
  16.760         64.17	     8.775
  16.780         58.33	     8.367
  16.800         55.83	     8.185
  16.820         47.50	     7.550
  16.840         58.33	     8.367
  16.860         55.83	     8.185
  16.880         63.33	     8.718
  16.900         63.33	     8.718
  16.920         74.17	     9.434
  16.940         47.50	     7.550
  16.960         64.17	     8.775
  16.980         57.50	     8.307
  17.000         59.17	     8.426
  17.020         53.33	     8.000
  17.040         58.33	     8.367
  17.060         55.83	     8.185
  17.080         51.67	     7.874
  17.100         78.33	     9.695
  17.120         60.00	     8.485
  17.140         61.67	     8.602
  17.160         60.00	     8.485
  17.180         62.50	     8.660
  17.200         65.00	     8.832
  17.220         59.17	     8.426
  17.240         70.00	     9.165
  17.260         63.33	     8.718
  17.280         56.67	     8.246
  17.300         56.67	     8.246
  17.320         57.50	     8.307
  17.340         73.33	     9.381
  17.360         75.83	     9.539
  17.380         60.00	     8.485
  17.400         82.50	     9.950
  17.420         53.33	     8.000
  17.440         74.17	     9.434
  17.460         74.17	     9.434
  17.480         70.83	     9.220
  17.500         78.33	     9.695
  17.520         87.50	    10.247
  17.540         72.50	     9.327
  17.560         64.17	     8.775
  17.580         77.50	     9.644
  17.600        120.00	    12.000
  17.620        134.17	    12.689
  17.640        120.00	    12.000
  17.660        143.33	    13.115
  17.680        181.67	    14.765
  17.700        215.00	    16.062
  17.720        231.67	    16.673
  17.740        239.17	    16.941
  17.760        230.00	    16.613
  17.780        205.00	    15.684
  17.800        161.67	    13.928
  17.820        120.83	    12.042
  17.840        113.33	    11.662
  17.860        100.83	    11.000
  17.880         89.17	    10.344
  17.900         86.67	    10.198
  17.920         79.17	     9.747
  17.940         79.17	     9.747
  17.960         68.33	     9.055
  17.980         68.33	     9.055
  18.000         68.33	     9.055
  18.020         62.50	     8.660
  18.040         70.00	     9.165
  18.060         52.50	     7.937
  18.080         73.33	     9.381
  18.100         57.50	     8.307
  18.120         56.67	     8.246
  18.140         59.17	     8.426
  18.160         56.67	     8.246
  18.180         70.00	     9.165
  18.200         70.00	     9.165
  18.220         77.50	     9.644
  18.240         64.17	     8.775
  18.260         77.50	     9.644
  18.280         76.67	     9.592
  18.300         67.50	     9.000
  18.320         80.83	     9.849
  18.340         85.00	    10.100
  18.360        103.33	    11.136
  18.380         85.00	    10.100
  18.400        104.17	    11.180
  18.420        119.17	    11.958
  18.440        139.17	    12.923
  18.460        159.17	    13.820
  18.480        195.00	    15.297
  18.500        170.83	    14.318
  18.520        167.50	    14.177
  18.540        161.67	    13.928
  18.560        125.00	    12.247
  18.580        140.83	    13.000
  18.600        150.00	    13.416
  18.620        181.67	    14.765
  18.640        178.33	    14.629
  18.660        231.67	    16.673
  18.680        223.33	    16.371
  18.700        268.33	    17.944
  18.720        253.33	    17.436
  18.740        210.83	    15.906
  18.760        168.33	    14.213
  18.780        134.17	    12.689
  18.800        108.33	    11.402
  18.820         84.17	    10.050
  18.840         79.17	     9.747
  18.860         86.67	    10.198
  18.880         81.67	     9.899
  18.900         79.17	     9.747
  18.920         70.83	     9.220
  18.940         92.50	    10.536
  18.960         55.83	     8.185
  18.980         58.33	     8.367
  19.000         75.83	     9.539
  19.020         66.67	     8.944
  19.040         62.50	     8.660
  19.060         60.00	     8.485
  19.080         69.17	     9.110
  19.100         95.00	    10.677
  19.120         67.50	     9.000
  19.140         72.50	     9.327
  19.160         69.17	     9.110
  19.180         69.17	     9.110
  19.200         69.17	     9.110
  19.220         78.33	     9.695
  19.240         68.33	     9.055
  19.260         72.50	     9.327
  19.280         75.83	     9.539
  19.300         79.17	     9.747
  19.320         71.67	     9.274
  19.340         58.33	     8.367
  19.360         59.17	     8.426
  19.380         66.67	     8.944
  19.400         75.83	     9.539
  19.420         71.67	     9.274
  19.440         65.00	     8.832
  19.460         64.17	     8.775
  19.480         65.83	     8.888
  19.500         76.67	     9.592
  19.520         74.17	     9.434
  19.540         75.00	     9.487
  19.560        112.50	    11.619
  19.580         97.50	    10.817
  19.600        119.17	    11.958
  19.620        125.83	    12.288
  19.640        115.00	    11.747
  19.660         96.67	    10.770
  19.680        105.00	    11.225
  19.700         77.50	     9.644
  19.720         89.17	    10.344
  19.740         92.50	    10.536
  19.760         90.00	    10.392
  19.780         88.33	    10.296
  19.800         86.67	    10.198
  19.820         80.83	     9.849
  19.840         94.17	    10.630
  19.860         90.83	    10.440
  19.880         80.00	     9.798
  19.900         72.50	     9.327
  19.920         57.50	     8.307
  19.940         63.33	     8.718
  19.960         69.17	     9.110
  19.980         66.67	     8.944
  20.000         74.17	     9.434
  20.020         61.67	     8.602
  20.040         56.67	     8.246
  20.060         60.83	     8.544
  20.080         66.67	     8.944
  20.100         61.67	     8.602
  20.120         65.00	     8.832
  20.140         65.83	     8.888
  20.160         76.67	     9.592
  20.180         56.67	     8.246
  20.200         50.83	     7.810
  20.220         60.00	     8.485
  20.240         52.50	     7.937
  20.260         61.67	     8.602
  20.280         56.67	     8.246
  20.300         54.17	     8.062
  20.320         56.67	     8.246
  20.340         68.33	     9.055
  20.360         60.00	     8.485
  20.380         65.83	     8.888
  20.400         50.00	     7.746
  20.420         60.00	     8.485
  20.440         60.00	     8.485
  20.460         65.83	     8.888
  20.480         56.67	     8.246
  20.500         66.67	     8.944
  20.520         62.50	     8.660
  20.540         70.83	     9.220
  20.560         65.83	     8.888
  20.580         75.00	     9.487
  20.600         69.17	     9.110
  20.620         74.17	     9.434
  20.640         86.67	    10.198
  20.660         87.50	    10.247
  20.680         98.33	    10.863
  20.700        156.67	    13.711
  20.720        223.33	    16.371
  20.740        306.67	    19.183
  20.760        365.83	    20.952
  20.780        398.33	    21.863
  20.800        362.50	    20.857
  20.820        282.50	    18.412
  20.840        197.50	    15.395
  20.860        176.67	    14.560
  20.880        151.67	    13.491
  20.900        121.67	    12.083
  20.920        143.33	    13.115
  20.940        163.33	    14.000
  20.960        131.67	    12.570
  20.980        133.33	    12.649
  21.000        101.67	    11.045
  21.020         97.50	    10.817
  21.040         82.50	     9.950
  21.060         68.33	     9.055
  21.080         71.67	     9.274
  21.100         62.50	     8.660
  21.120         75.00	     9.487
  21.140         79.17	     9.747
  21.160         80.83	     9.849
  21.180         49.17	     7.681
  21.200         60.00	     8.485
  21.220         55.00	     8.124
  21.240         63.33	     8.718
  21.260         53.33	     8.000
  21.280         60.00	     8.485
  21.300         65.00	     8.832
  21.320         50.83	     7.810
  21.340         62.50	     8.660
  21.360         65.00	     8.832
  21.380         80.00	     9.798
  21.400         56.67	     8.246
  21.420         60.00	     8.485
  21.440         60.83	     8.544
  21.460         68.33	     9.055
  21.480         67.50	     9.000
  21.500         62.50	     8.660
  21.520         61.67	     8.602
  21.540         75.83	     9.539
  21.560         65.83	     8.888
  21.580         61.67	     8.602
  21.600         55.83	     8.185
  21.620         52.50	     7.937
  21.640         54.17	     8.062
  21.660         60.00	     8.485
  21.680         63.33	     8.718
  21.700         65.00	     8.832
  21.720         61.67	     8.602
  21.740         46.67	     7.483
  21.760         62.50	     8.660
  21.780         65.00	     8.832
  21.800         62.50	     8.660
  21.820         73.33	     9.381
  21.840         76.67	     9.592
  21.860         89.17	    10.344
  21.880        121.67	    12.083
  21.900        139.17	    12.923
  21.920        214.17	    16.031
  21.940        237.50	    16.882
  21.960        276.67	    18.221
  21.980        300.00	    18.974
  22.000        240.00	    16.971
  22.020        204.17	    15.652
  22.040        180.00	    14.697
  22.060        135.00	    12.728
  22.080        120.83	    12.042
  22.100         86.67	    10.198
  22.120         74.17	     9.434
  22.140         75.00	     9.487
  22.160         76.67	     9.592
  22.180         67.50	     9.000
  22.200         84.17	    10.050
  22.220         70.00	     9.165
  22.240         79.17	     9.747
  22.260         70.00	     9.165
  22.280         64.17	     8.775
  22.300         79.17	     9.747
  22.320         59.17	     8.426
  22.340         70.83	     9.220
  22.360         88.33	    10.296
  22.380         82.50	     9.950
  22.400         77.50	     9.644
  22.420         71.67	     9.274
  22.440         76.67	     9.592
  22.460         66.67	     8.944
  22.480         75.00	     9.487
  22.500         60.83	     8.544
  22.520         70.00	     9.165
  22.540         62.50	     8.660
  22.560         61.67	     8.602
  22.580         53.33	     8.000
  22.600         73.33	     9.381
  22.620         77.50	     9.644
  22.640         55.83	     8.185
  22.660         65.00	     8.832
  22.680         83.33	    10.000
  22.700         80.83	     9.849
  22.720         99.17	    10.909
  22.740        105.83	    11.269
  22.760        114.17	    11.705
  22.780        121.67	    12.083
  22.800        104.17	    11.180
  22.820        105.00	    11.225
  22.840        103.33	    11.136
  22.860         94.17	    10.630
  22.880         99.17	    10.909
  22.900         95.00	    10.677
  22.920         86.67	    10.198
  22.940        112.50	    11.619
  22.960        116.67	    11.832
  22.980        120.00	    12.000
  23.000        110.83	    11.533
  23.020         87.50	    10.247
  23.040         99.17	    10.909
  23.060         78.33	     9.695
  23.080         66.67	     8.944
  23.100         58.33	     8.367
  23.120         63.33	     8.718
  23.140         64.17	     8.775
  23.160         61.67	     8.602
  23.180         80.00	     9.798
  23.200         53.33	     8.000
  23.220         59.17	     8.426
  23.240         62.50	     8.660
  23.260         60.83	     8.544
  23.280         67.50	     9.000
  23.300         80.00	     9.798
  23.320         84.17	    10.050
  23.340         88.33	    10.296
  23.360        106.67	    11.314
  23.380        106.67	    11.314
  23.400        150.83	    13.454
  23.420        185.00	    14.900
  23.440        197.50	    15.395
  23.460        229.17	    16.583
  23.480        290.00	    18.655
  23.500        319.17	    19.570
  23.520        281.67	    18.385
  23.540        220.00	    16.248
  23.560        178.33	    14.629
  23.580        193.33	    15.232
  23.600        141.67	    13.038
  23.620        125.00	    12.247
  23.640        114.17	    11.705
  23.660        102.50	    11.091
  23.680        119.17	    11.958
  23.700         99.17	    10.909
  23.720        119.17	    11.958
  23.740        109.17	    11.446
  23.760        102.50	    11.091
  23.780        115.83	    11.790
  23.800        115.00	    11.747
  23.820         93.33	    10.583
  23.840         94.17	    10.630
  23.860         89.17	    10.344
  23.880         96.67	    10.770
  23.900         83.33	    10.000
  23.920         93.33	    10.583
  23.940         80.83	     9.849
  23.960         82.50	     9.950
  23.980         89.17	    10.344
  24.000         98.33	    10.863
  24.020         93.33	    10.583
  24.040        120.83	    12.042
  24.060        144.17	    13.153
  24.080        153.33	    13.565
  24.100        151.67	    13.491
  24.120        161.67	    13.928
  24.140        170.00	    14.283
  24.160        174.17	    14.457
  24.180        207.50	    15.780
  24.200        189.17	    15.067
  24.220        200.00	    15.492
  24.240        188.33	    15.033
  24.260        206.67	    15.748
  24.280        185.00	    14.900
  24.300        143.33	    13.115
  24.320        140.83	    13.000
  24.340        160.00	    13.856
  24.360        165.00	    14.071
  24.380        185.00	    14.900
  24.400        230.83	    16.643
  24.420        292.50	    18.735
  24.440        442.50	    23.043
  24.460        638.33	    27.677
  24.480        729.17	    29.580
  24.500        862.50	    32.171
  24.520        877.50	    32.450
  24.540        933.33	    33.466
  24.560        923.33	    33.287
  24.580        783.33	    30.659
  24.600        707.50	    29.138
  24.620        566.67	    26.077
  24.640        480.00	    24.000
  24.660        371.67	    21.119
  24.680        325.00	    19.748
  24.700        290.00	    18.655
  24.720        293.33	    18.762
  24.740        326.67	    19.799
  24.760        286.67	    18.547
  24.780        286.67	    18.547
  24.800        272.50	    18.083
  24.820        252.50	    17.407
  24.840        239.17	    16.941
  24.860        227.50	    16.523
  24.880        233.33	    16.733
  24.900        206.67	    15.748
  24.920        215.00	    16.062
  24.940        237.50	    16.882
  24.960        249.17	    17.292
  24.980        319.17	    19.570
  25.000        370.83	    21.095
  25.020        442.50	    23.043
  25.040        494.17	    24.352
  25.060        508.33	    24.698
  25.080        530.83	    25.239
  25.100        442.50	    23.043
  25.120        389.17	    21.610
  25.140        339.17	    20.174
  25.160        239.17	    16.941
  25.180        195.83	    15.330
  25.200        173.33	    14.422
  25.220        161.67	    13.928
  25.240        170.00	    14.283
  25.260        138.33	    12.884
  25.280        173.33	    14.422
  25.300        168.33	    14.213
  25.320        201.67	    15.556
  25.340        198.33	    15.427
  25.360        185.83	    14.933
  25.380        210.83	    15.906
  25.400        188.33	    15.033
  25.420        203.33	    15.620
  25.440        210.83	    15.906
  25.460        191.67	    15.166
  25.480        203.33	    15.620
  25.500        188.33	    15.033
  25.520        185.83	    14.933
  25.540        176.67	    14.560
  25.560        185.00	    14.900
  25.580        192.50	    15.199
  25.600        171.67	    14.353
  25.620        153.33	    13.565
  25.640        116.67	    11.832
  25.660        105.00	    11.225
  25.680        100.83	    11.000
  25.700        107.50	    11.358
  25.720        108.33	    11.402
  25.740        105.83	    11.269
  25.760         80.00	     9.798
  25.780         88.33	    10.296
  25.800         84.17	    10.050
  25.820         94.17	    10.630
  25.840         88.33	    10.296
  25.860         96.67	    10.770
  25.880         85.00	    10.100
  25.900         87.50	    10.247
  25.920         72.50	     9.327
  25.940         81.67	     9.899
  25.960         95.83	    10.724
  25.980         80.00	     9.798
  26.000         85.00	    10.100
  26.020        100.83	    11.000
  26.040         86.67	    10.198
  26.060        109.17	    11.446
  26.080        125.83	    12.288
  26.100        123.33	    12.166
  26.120        120.00	    12.000
  26.140        115.00	    11.747
  26.160        111.67	    11.576
  26.180        129.17	    12.450
  26.200        157.50	    13.748
  26.220        156.67	    13.711
  26.240        166.67	    14.142
  26.260        197.50	    15.395
  26.280        197.50	    15.395
  26.300        222.50	    16.340
  26.320        230.00	    16.613
  26.340        239.17	    16.941
  26.360        289.17	    18.628
  26.380        233.33	    16.733
  26.400        276.67	    18.221
  26.420        250.83	    17.349
  26.440        295.00	    18.815
  26.460        419.17	    22.428
  26.480        436.67	    22.891
  26.500        694.17	    28.862
  26.520       1001.67	    34.670
  26.540       1362.50	    40.435
  26.560       1649.17	    44.486
  26.580       1640.00	    44.362
  26.600       1358.33	    40.373
  26.620       1035.83	    35.256
  26.640        936.67	    33.526
  26.660        760.83	    30.216
  26.680        530.83	    25.239
  26.700        530.00	    25.219
  26.720        565.00	    26.038
  26.740        610.00	    27.055
  26.760        709.17	    29.172
  26.780        738.33	    29.766
  26.800        741.67	    29.833
  26.820        656.67	    28.071
  26.840        615.00	    27.166
  26.860        500.83	    24.515
  26.880        429.17	    22.694
  26.900        352.50	    20.567
  26.920        262.50	    17.748
  26.940        261.67	    17.720
  26.960        214.17	    16.031
  26.980        190.83	    15.133
  27.000        187.50	    15.000
  27.020        165.83	    14.107
  27.040        175.83	    14.526
  27.060        198.33	    15.427
  27.080        208.33	    15.811
  27.100        177.50	    14.595
  27.120        155.00	    13.638
  27.140        147.50	    13.304
  27.160        165.83	    14.107
  27.180        151.67	    13.491
  27.200        134.17	    12.689
  27.220        125.83	    12.288
  27.240        130.00	    12.490
  27.260        113.33	    11.662
  27.280        118.33	    11.916
  27.300        122.50	    12.124
  27.320        103.33	    11.136
  27.340        125.00	    12.247
  27.360        162.50	    13.964
  27.380        210.83	    15.906
  27.400        281.67	    18.385
  27.420        317.50	    19.519
  27.440        315.83	    19.468
  27.460        292.50	    18.735
  27.480        281.67	    18.385
  27.500        245.83	    17.176
  27.520        245.00	    17.146
  27.540        184.17	    14.866
  27.560        167.50	    14.177
  27.580        197.50	    15.395
  27.600        187.50	    15.000
  27.620        261.67	    17.720
  27.640        327.50	    19.824
  27.660        336.67	    20.100
  27.680        364.17	    20.905
  27.700        337.50	    20.125
  27.720        345.83	    20.372
  27.740        345.00	    20.347
  27.760        372.50	    21.142
  27.780        465.83	    23.643
  27.800        571.67	    26.192
  27.820        680.00	    28.566
  27.840        760.00	    30.199
  27.860        747.50	    29.950
  27.880        661.67	    28.178
  27.900        593.33	    26.683
  27.920        483.33	    24.083
  27.940        391.67	    21.679
  27.960        277.50	    18.248
  27.980        238.33	    16.912
  28.000        200.83	    15.524
  28.020        188.33	    15.033
  28.040        181.67	    14.765
  28.060        198.33	    15.427
  28.080        185.00	    14.900
  28.100        160.00	    13.856
  28.120        163.33	    14.000
  28.140        165.83	    14.107
  28.160        149.17	    13.379
  28.180        163.33	    14.000
  28.200        170.83	    14.318
  28.220        191.67	    15.166
  28.240        170.00	    14.283
  28.260        151.67	    13.491
  28.280        130.00	    12.490
  28.300        138.33	    12.884
  28.320        123.33	    12.166
  28.340        108.33	    11.402
  28.360        108.33	    11.402
  28.380        101.67	    11.045
  28.400        108.33	    11.402
  28.420        117.50	    11.874
  28.440        120.00	    12.000
  28.460        160.83	    13.892
  28.480        165.00	    14.071
  28.500        206.67	    15.748
  28.520        251.67	    17.378
  28.540        241.67	    17.029
  28.560        240.83	    17.000
  28.580        230.83	    16.643
  28.600        207.50	    15.780
  28.620        200.83	    15.524
  28.640        180.83	    14.731
  28.660        137.50	    12.845
  28.680        128.33	    12.410
  28.700        106.67	    11.314
  28.720         99.17	    10.909
  28.740         97.50	    10.817
  28.760         94.17	    10.630
  28.780         86.67	    10.198
  28.800         70.83	     9.220
  28.820         65.00	     8.832
  28.840         65.00	     8.832
  28.860         75.83	     9.539
  28.880         70.83	     9.220
  28.900         59.17	     8.426
  28.920         66.67	     8.944
  28.940         65.00	     8.832
  28.960         59.17	     8.426
  28.980         61.67	     8.602
  29.000         61.67	     8.602
  29.020         47.50	     7.550
  29.040         55.83	     8.185
  29.060         52.50	     7.937
  29.080         70.00	     9.165
  29.100         59.17	     8.426
  29.120         58.33	     8.367
  29.140         78.33	     9.695
  29.160         57.50	     8.307
  29.180         50.83	     7.810
  29.200         62.50	     8.660
  29.220         51.67	     7.874
  29.240         58.33	     8.367
  29.260         50.00	     7.746
  29.280         60.00	     8.485
  29.300         63.33	     8.718
  29.320         60.00	     8.485
  29.340         51.67	     7.874
  29.360         60.83	     8.544
  29.380         67.50	     9.000
  29.400         57.50	     8.307
  29.420         50.83	     7.810
  29.440         61.67	     8.602
  29.460         53.33	     8.000
  29.480         60.00	     8.485
  29.500         40.83	     7.000
  29.520         68.33	     9.055
  29.540         68.33	     9.055
  29.560         75.83	     9.539
  29.580         63.33	     8.718
  29.600         78.33	     9.695
  29.620         78.33	     9.695
  29.640         93.33	    10.583
  29.660         97.50	    10.817
  29.680         96.67	    10.770
  29.700        138.33	    12.884
  29.720        151.67	    13.491
  29.740        154.17	    13.601
  29.760        174.17	    14.457
  29.780        192.50	    15.199
  29.800        222.50	    16.340
  29.820        184.17	    14.866
  29.840        190.83	    15.133
  29.860        215.00	    16.062
  29.880        170.83	    14.318
  29.900        156.67	    13.711
  29.920        135.00	    12.728
  29.940        172.50	    14.387
  29.960        144.17	    13.153
  29.980        111.67	    11.576
  30.000        117.50	    11.874
  30.020        155.00	    13.638
  30.040        154.17	    13.601
  30.060        134.17	    12.689
  30.080        105.00	    11.225
  30.100        130.00	    12.490
  30.120        127.50	    12.369
  30.140        158.33	    13.784
  30.160        164.17	    14.036
  30.180        116.67	    11.832
  30.200         92.50	    10.536
  30.220        142.50	    13.077
  30.240        120.83	    12.042
  30.260        115.83	    11.790
  30.280        122.50	    12.124
  30.300        115.83	    11.790
  30.320        145.00	    13.191
  30.340        125.83	    12.288
  30.360        150.83	    13.454
  30.380        198.33	    15.427
  30.400        182.50	    14.799
  30.420        211.67	    15.937
  30.440        160.00	    13.856
  30.460        150.00	    13.416
  30.480        147.50	    13.304
  30.500        131.67	    12.570
  30.520        133.33	    12.649
  30.540        101.67	    11.045
  30.560         83.33	    10.000
  30.580         70.83	     9.220
  30.600         85.00	    10.100
  30.620         81.67	     9.899
  30.640         81.67	     9.899
  30.660         81.67	     9.899
  30.680         96.67	    10.770
  30.700        123.33	    12.166
  30.720        131.67	    12.570
  30.740        173.33	    14.422
  30.760        217.50	    16.155
  30.780        271.67	    18.055
  30.800        267.50	    17.916
  30.820        200.00	    15.492
  30.840        172.50	    14.387
  30.860        161.67	    13.928
  30.880        164.17	    14.036
  30.900        101.67	    11.045
  30.920         87.50	    10.247
  30.940        101.67	    11.045
  30.960         79.17	     9.747
  30.980         88.33	    10.296
  31.000        105.83	    11.269
  31.020         90.00	    10.392
  31.040        106.67	    11.314
  31.060        121.67	    12.083
  31.080        150.83	    13.454
  31.100        160.00	    13.856
  31.120        191.67	    15.166
  31.140        184.17	    14.866
  31.160        217.50	    16.155
  31.180        213.33	    16.000
  31.200        176.67	    14.560
  31.220        144.17	    13.153
  31.240        155.83	    13.675
  31.260        147.50	    13.304
  31.280        122.50	    12.124
  31.300        101.67	    11.045
  31.320        100.00	    10.954
  31.340         84.17	    10.050
  31.360         95.83	    10.724
  31.380        113.33	    11.662
  31.400        101.67	    11.045
  31.420        118.33	    11.916
  31.440        117.50	    11.874
  31.460        125.83	    12.288
  31.480        146.67	    13.266
  31.500        147.50	    13.304
  31.520        121.67	    12.083
  31.540        123.33	    12.166
  31.560        119.17	    11.958
  31.580        114.17	    11.705
  31.600         75.00	     9.487
  31.620         71.67	     9.274
  31.640         80.83	     9.849
  31.660         70.83	     9.220
  31.680         56.67	     8.246
  31.700         72.50	     9.327
  31.720         64.17	     8.775
  31.740         66.67	     8.944
  31.760         72.50	     9.327
  31.780         81.67	     9.899
  31.800         67.50	     9.000
  31.820         82.50	     9.950
  31.840        107.50	    11.358
  31.860         87.50	    10.247
  31.880         76.67	     9.592
  31.900        100.00	    10.954
  31.920         87.50	    10.247
  31.940         95.83	    10.724
  31.960        119.17	    11.958
  31.980        107.50	    11.358
  32.000        135.00	    12.728
  32.020        119.17	    11.958
  32.040        111.67	    11.576
  32.060        119.17	    11.958
  32.080        123.33	    12.166
  32.100        114.17	    11.705
  32.120        125.00	    12.247
  32.140        143.33	    13.115
  32.160        115.83	    11.790
  32.180         86.67	    10.198
  32.200         91.67	    10.488
  32.220        114.17	    11.705
  32.240         94.17	    10.630
  32.260         85.00	    10.100
  32.280         76.67	     9.592
  32.300         78.33	     9.695
  32.320         65.83	     8.888
  32.340         65.83	     8.888
  32.360         58.33	     8.367
  32.380         50.83	     7.810
  32.400         60.83	     8.544
  32.420         53.33	     8.000
  32.440         48.33	     7.616
  32.460         50.00	     7.746
  32.480         50.00	     7.746
  32.500         47.50	     7.550
  32.520         47.50	     7.550
  32.540         38.33	     6.782
  32.560         38.33	     6.782
  32.580         50.83	     7.810
  32.600         58.33	     8.367
  32.620         55.00	     8.124
  32.640         42.50	     7.141
  32.660         50.83	     7.810
  32.680         60.00	     8.485
  32.700         58.33	     8.367
  32.720         54.17	     8.062
  32.740         52.50	     7.937
  32.760         50.00	     7.746
  32.780         54.17	     8.062
  32.800         59.17	     8.426
  32.820         48.33	     7.616
  32.840         57.50	     8.307
  32.860         60.00	     8.485
  32.880         66.67	     8.944
  32.900         80.83	     9.849
  32.920         95.00	    10.677
  32.940         89.17	    10.344
  32.960        108.33	    11.402
  32.980        112.50	    11.619
  33.000        120.00	    12.000
  33.020        105.83	    11.269
  33.040         95.00	    10.677
  33.060        101.67	    11.045
  33.080         78.33	     9.695
  33.100         85.83	    10.149
  33.120         72.50	     9.327
  33.140         74.17	     9.434
  33.160         60.83	     8.544
  33.180         60.83	     8.544
  33.200         56.67	     8.246
  33.220         71.67	     9.274
  33.240         74.17	     9.434
  33.260         76.67	     9.592
  33.280         67.50	     9.000
  33.300         86.67	    10.198
  33.320         71.67	     9.274
  33.340         68.33	     9.055
  33.360         60.00	     8.485
  33.380         76.67	     9.592
  33.400         72.50	     9.327
  33.420         60.83	     8.544
  33.440         65.83	     8.888
  33.460         64.17	     8.775
  33.480         67.50	     9.000
  33.500         59.17	     8.426
  33.520         50.83	     7.810
  33.540         55.83	     8.185
  33.560         52.50	     7.937
  33.580         50.00	     7.746
  33.600         50.83	     7.810
  33.620         49.17	     7.681
  33.640         41.67	     7.071
  33.660         60.00	     8.485
  33.680         60.83	     8.544
  33.700         66.67	     8.944
  33.720         60.00	     8.485
  33.740         55.83	     8.185
  33.760         57.50	     8.307
  33.780         56.67	     8.246
  33.800         57.50	     8.307
  33.820         98.33	    10.863
  33.840        129.17	    12.450
  33.860        173.33	    14.422
  33.880        123.33	    12.166
  33.900         85.00	    10.100
  33.920         97.50	    10.817
  33.940        110.00	    11.489
  33.960         95.83	    10.724
  33.980         86.67	    10.198
  34.000         83.33	    10.000
  34.020         60.00	     8.485
  34.040         74.17	     9.434
  34.060         68.33	     9.055
  34.080         58.33	     8.367
  34.100         57.50	     8.307
  34.120         55.00	     8.124
  34.140         67.50	     9.000
  34.160         61.67	     8.602
  34.180         59.17	     8.426
  34.200         73.33	     9.381
  34.220         73.33	     9.381
  34.240         70.83	     9.220
  34.260         75.00	     9.487
  34.280         76.67	     9.592
  34.300         89.17	    10.344
  34.320        105.00	    11.225
  34.340        134.17	    12.689
  34.360        137.50	    12.845
  34.380        147.50	    13.304
  34.400        158.33	    13.784
  34.420        146.67	    13.266
  34.440        149.17	    13.379
  34.460        152.50	    13.528
  34.480        133.33	    12.649
  34.500        167.50	    14.177
  34.520        144.17	    13.153
  34.540        175.83	    14.526
  34.560        141.67	    13.038
  34.580        100.83	    11.000
  34.600        101.67	    11.045
  34.620        112.50	    11.619
  34.640        125.00	    12.247
  34.660         95.83	    10.724
  34.680         81.67	     9.899
  34.700         95.83	    10.724
  34.720         95.00	    10.677
  34.740         96.67	    10.770
  34.760        116.67	    11.832
  34.780        145.00	    13.191
  34.800        154.17	    13.601
  34.820        132.50	    12.610
  34.840        126.67	    12.329
  34.860        148.33	    13.342
  34.880        150.00	    13.416
  34.900        174.17	    14.457
  34.920        182.50	    14.799
  34.940        164.17	    14.036
  34.960        172.50	    14.387
  34.980        138.33	    12.884
  35.000        140.83	    13.000
  35.020        145.83	    13.229
  35.040        145.83	    13.229
  35.060        120.83	    12.042
  35.080         95.00	    10.677
  35.100         75.83	     9.539
  35.120         98.33	    10.863
  35.140         89.17	    10.344
  35.160         96.67	    10.770
  35.180         85.83	    10.149
  35.200         79.17	     9.747
  35.220         95.00	    10.677
  35.240         89.17	    10.344
  35.260        112.50	    11.619
  35.280        102.50	    11.091
  35.300        117.50	    11.874
  35.320        117.50	    11.874
  35.340        135.83	    12.767
  35.360        159.17	    13.820
  35.380        185.00	    14.900
  35.400        192.50	    15.199
  35.420        184.17	    14.866
  35.440        204.17	    15.652
  35.460        222.50	    16.340
  35.480        265.83	    17.861
  35.500        219.17	    16.217
  35.520        199.17	    15.460
  35.540        198.33	    15.427
  35.560        201.67	    15.556
  35.580        154.17	    13.601
  35.600        132.50	    12.610
  35.620        131.67	    12.570
  35.640        125.00	    12.247
  35.660        111.67	    11.576
  35.680         88.33	    10.296
  35.700         99.17	    10.909
  35.720         75.83	     9.539
  35.740         82.50	     9.950
  35.760         98.33	    10.863
  35.780         75.83	     9.539
  35.800         61.67	     8.602
  35.820         80.83	     9.849
  35.840         82.50	     9.950
  35.860         93.33	    10.583
  35.880         76.67	     9.592
  35.900         68.33	     9.055
  35.920         91.67	    10.488
  35.940         97.50	    10.817
  35.960        102.50	    11.091
  35.980        105.83	    11.269
  36.000        119.17	    11.958
  36.020        106.67	    11.314
  36.040         85.83	    10.149
  36.060        102.50	    11.091
  36.080         91.67	    10.488
  36.100         67.50	     9.000
  36.120         74.17	     9.434
  36.140         64.17	     8.775
  36.160         69.17	     9.110
  36.180         59.17	     8.426
  36.200         61.67	     8.602
  36.220         55.00	     8.124
  36.240         59.17	     8.426
  36.260         57.50	     8.307
  36.280         65.00	     8.832
  36.300         73.33	     9.381
  36.320         89.17	    10.344
  36.340        102.50	    11.091
  36.360         96.67	    10.770
  36.380        111.67	    11.576
  36.400        120.83	    12.042
  36.420        170.00	    14.283
  36.440        244.17	    17.117
  36.460        288.33	    18.601
  36.480        245.83	    17.176
  36.500        186.67	    14.967
  36.520        156.67	    13.711
  36.540        179.17	    14.663
  36.560        194.17	    15.264
  36.580        175.00	    14.491
  36.600        177.50	    14.595
  36.620        160.00	    13.856
  36.640        135.00	    12.728
  36.660        124.17	    12.207
  36.680        125.83	    12.288
  36.700        100.00	    10.954
  36.720        105.83	    11.269
  36.740         84.17	    10.050
  36.760         78.33	     9.695
  36.780         71.67	     9.274
  36.800         72.50	     9.327
  36.820         55.83	     8.185
  36.840         60.83	     8.544
  36.860         62.50	     8.660
  36.880         57.50	     8.307
  36.900         60.83	     8.544
  36.920         54.17	     8.062
  36.940         74.17	     9.434
  36.960         70.00	     9.165
  36.980         76.67	     9.592
  37.000         65.00	     8.832
  37.020         58.33	     8.367
  37.040         82.50	     9.950
  37.060         91.67	    10.488
  37.080         79.17	     9.747
  37.100         80.00	     9.798
  37.120         97.50	    10.817
  37.140         90.83	    10.440
  37.160         80.83	     9.849
  37.180        110.00	    11.489
  37.200        104.17	    11.180
  37.220        110.83	    11.533
  37.240        103.33	    11.136
  37.260        101.67	    11.045
  37.280         91.67	    10.488
  37.300        130.83	    12.530
  37.320        123.33	    12.166
  37.340        141.67	    13.038
  37.360        111.67	    11.576
  37.380        122.50	    12.124
  37.400        102.50	    11.091
  37.420        106.67	    11.314
  37.440        106.67	    11.314
  37.460        106.67	    11.314
  37.480         97.50	    10.817
  37.500        104.17	    11.180
  37.520        126.67	    12.329
  37.540         89.17	    10.344
  37.560         90.00	    10.392
  37.580        110.00	    11.489
  37.600        106.67	    11.314
  37.620        101.67	    11.045
  37.640         79.17	     9.747
  37.660         82.50	     9.950
  37.680         85.83	    10.149
  37.700         91.67	    10.488
  37.720         80.00	     9.798
  37.740         73.33	     9.381
  37.760         68.33	     9.055
  37.780         74.17	     9.434
  37.800         71.67	     9.274
  37.820         56.67	     8.246
  37.840         68.33	     9.055
  37.860         71.67	     9.274
  37.880         60.00	     8.485
  37.900         77.50	     9.644
  37.920         72.50	     9.327
  37.940         84.17	    10.050
  37.960        112.50	    11.619
  37.980        155.83	    13.675
  38.000        196.67	    15.362
  38.020        144.17	    13.153
  38.040        127.50	    12.369
  38.060        101.67	    11.045
  38.080        131.67	    12.570
  38.100        104.17	    11.180
  38.120        104.17	    11.180
  38.140         72.50	     9.327
  38.160         52.50	     7.937
  38.180         70.83	     9.220
  38.200         55.83	     8.185
  38.220         32.50	     6.245
  38.240         48.33	     7.616
  38.260         61.67	     8.602
  38.280         43.33	     7.211
  38.300         44.17	     7.280
  38.320         50.00	     7.746
  38.340         45.00	     7.348
  38.360         66.67	     8.944
  38.380         80.83	     9.849
  38.400         66.67	     8.944
  38.420         54.17	     8.062
  38.440         50.83	     7.810
  38.460         60.83	     8.544
  38.480         69.17	     9.110
  38.500         76.67	     9.592
  38.520         67.50	     9.000
  38.540         74.17	     9.434
  38.560         65.00	     8.832
  38.580         58.33	     8.367
  38.600         63.33	     8.718
  38.620         66.67	     8.944
  38.640         55.00	     8.124
  38.660         65.00	     8.832
  38.680         68.33	     9.055
  38.700         71.67	     9.274
  38.720         84.17	    10.050
  38.740         91.67	    10.488
  38.760         76.67	     9.592
  38.780         88.33	    10.296
  38.800         80.00	     9.798
  38.820         70.00	     9.165
  38.840         77.50	     9.644
  38.860         60.00	     8.485
  38.880         51.67	     7.874
  38.900         40.00	     6.928
  38.920         49.17	     7.681
  38.940         52.50	     7.937
  38.960         52.50	     7.937
  38.980         45.00	     7.348
  39.000         67.50	     9.000
  39.020         54.17	     8.062
  39.040         59.17	     8.426
  39.060         51.67	     7.874
  39.080         48.33	     7.616
  39.100         46.67	     7.483
  39.120         50.83	     7.810
  39.140         56.67	     8.246
  39.160         43.33	     7.211
  39.180         57.50	     8.307
  39.200         60.83	     8.544
  39.220         45.00	     7.348
  39.240         61.67	     8.602
  39.260         42.50	     7.141
  39.280         49.17	     7.681
  39.300         58.33	     8.367
  39.320         65.00	     8.832
  39.340         85.00	    10.100
  39.360        125.83	    12.288
  39.380        172.50	    14.387
  39.400        192.50	    15.199
  39.420        132.50	    12.610
  39.440        100.00	    10.954
  39.460         99.17	    10.909
  39.480        107.50	    11.358
  39.500        130.00	    12.490
  39.520        117.50	    11.874
  39.540         80.83	     9.849
  39.560         69.17	     9.110
  39.580         59.17	     8.426
  39.600         60.00	     8.485
  39.620         80.83	     9.849
  39.640         65.83	     8.888
  39.660         77.50	     9.644
  39.680         55.00	     8.124
  39.700         65.83	     8.888
  39.720         55.83	     8.185
  39.740         65.83	     8.888
  39.760         60.83	     8.544
  39.780         46.67	     7.483
  39.800         55.83	     8.185
  39.820         44.17	     7.280
  39.840         55.00	     8.124
  39.860         52.50	     7.937
  39.880         40.00	     6.928
  39.900         63.33	     8.718
  39.920         47.50	     7.550
  39.940         59.17	     8.426
  39.960         55.83	     8.185
  39.980         55.83	     8.185
  40.000         46.67	     7.483
  40.020         59.17	     8.426
  40.040         48.33	     7.616
  40.060         48.33	     7.616
  40.080         55.00	     8.124
  40.100         45.83	     7.416
  40.120         56.67	     8.246
  40.140         61.67	     8.602
  40.160         74.17	     9.434
  40.180         85.00	    10.100
  40.200        107.50	    11.358
  40.220         93.33	    10.583
  40.240         86.67	    10.198
  40.260         86.67	    10.198
  40.280         92.50	    10.536
  40.300         95.00	    10.677
  40.320         70.83	     9.220
  40.340         69.17	     9.110
  40.360         59.17	     8.426
  40.380         57.50	     8.307
  40.400         57.50	     8.307
  40.420         50.00	     7.746
  40.440         57.50	     8.307
  40.460         50.00	     7.746
  40.480         45.00	     7.348
  40.500         45.00	     7.348
  40.520         45.83	     7.416
  40.540         47.50	     7.550
  40.560         47.50	     7.550
  40.580         47.50	     7.550
  40.600         46.67	     7.483
  40.620         51.67	     7.874
  40.640         51.67	     7.874
  40.660         48.33	     7.616
  40.680         53.33	     8.000
  40.700         44.17	     7.280
  40.720         49.17	     7.681
  40.740         55.00	     8.124
  40.760         50.00	     7.746
  40.780         58.33	     8.367
  40.800         56.67	     8.246
  40.820         55.83	     8.185
  40.840         63.33	     8.718
  40.860         60.83	     8.544
  40.880         60.00	     8.485
  40.900         46.67	     7.483
  40.920         49.17	     7.681
  40.940         51.67	     7.874
  40.960         45.00	     7.348
  40.980         50.83	     7.810
  41.000         40.83	     7.000
  41.020         48.33	     7.616
  41.040         35.83	     6.557
  41.060         51.67	     7.874
  41.080         42.50	     7.141
  41.100         60.00	     8.485
  41.120         62.50	     8.660
  41.140         61.67	     8.602
  41.160         60.00	     8.485
  41.180         77.50	     9.644
  41.200         63.33	     8.718
  41.220         58.33	     8.367
  41.240         62.50	     8.660
  41.260         61.67	     8.602
  41.280         62.50	     8.660
  41.300         63.33	     8.718
  41.320         65.00	     8.832
  41.340         54.17	     8.062
  41.360         50.00	     7.746
  41.380         46.67	     7.483
  41.400         57.50	     8.307
  41.420         61.67	     8.602
  41.440         63.33	     8.718
  41.460         59.17	     8.426
  41.480         64.17	     8.775
  41.500         74.17	     9.434
  41.520         87.50	    10.247
  41.540         87.50	    10.247
  41.560        122.50	    12.124
  41.580        125.83	    12.288
  41.600        129.17	    12.450
  41.620        162.50	    13.964
  41.640        173.33	    14.422
  41.660        177.50	    14.595
  41.680        141.67	    13.038
  41.700        127.50	    12.369
  41.720        120.00	    12.000
  41.740        132.50	    12.610
  41.760        111.67	    11.576
  41.780        107.50	    11.358
  41.800         86.67	    10.198
  41.820        108.33	    11.402
  41.840        113.33	    11.662
  41.860        177.50	    14.595
  41.880        146.67	    13.266
  41.900        150.83	    13.454
  41.920        114.17	    11.705
  41.940        105.00	    11.225
  41.960         98.33	    10.863
  41.980        116.67	    11.832
  42.000        115.00	    11.747
  42.020         93.33	    10.583
  42.040         80.00	     9.798
  42.060         65.83	     8.888
  42.080         58.33	     8.367
  42.100         52.50	     7.937
  42.120         58.33	     8.367
  42.140         65.83	     8.888
  42.160         50.83	     7.810
  42.180         64.17	     8.775
  42.200         65.83	     8.888
  42.220         71.67	     9.274
  42.240         69.17	     9.110
  42.260         86.67	    10.198
  42.280         86.67	    10.198
  42.300        110.83	    11.533
  42.320        117.50	    11.874
  42.340        160.83	    13.892
  42.360        170.00	    14.283
  42.380        185.83	    14.933
  42.400        168.33	    14.213
  42.420        133.33	    12.649
  42.440        124.17	    12.207
  42.460        137.50	    12.845
  42.480        127.50	    12.369
  42.500        112.50	    11.619
  42.520        113.33	    11.662
  42.540         66.67	     8.944
  42.560         69.17	     9.110
  42.580         53.33	     8.000
  42.600         54.17	     8.062
  42.620         74.17	     9.434
  42.640         67.50	     9.000
  42.660         60.83	     8.544
  42.680         46.67	     7.483
  42.700         55.00	     8.124
  42.720         55.00	     8.124
  42.740         60.83	     8.544
  42.760         64.17	     8.775
  42.780         61.67	     8.602
  42.800         68.33	     9.055
  42.820         64.17	     8.775
  42.840         58.33	     8.367
  42.860         44.17	     7.280
  42.880         58.33	     8.367
  42.900         47.50	     7.550
  42.920         51.67	     7.874
  42.940         50.00	     7.746
  42.960         50.00	     7.746
  42.980         50.83	     7.810
  43.000         42.50	     7.141
  43.020         48.33	     7.616
  43.040         51.67	     7.874
  43.060         36.67	     6.633
  43.080         42.50	     7.141
  43.100         48.33	     7.616
  43.120         52.50	     7.937
  43.140         39.17	     6.856
  43.160         53.33	     8.000
  43.180         36.67	     6.633
  43.200         42.50	     7.141
  43.220         50.00	     7.746
  43.240         45.83	     7.416
  43.260         37.50	     6.708
  43.280         47.50	     7.550
  43.300         50.83	     7.810
  43.320         45.83	     7.416
  43.340         55.00	     8.124
  43.360         52.50	     7.937
  43.380         39.17	     6.856
  43.400         39.17	     6.856
  43.420         50.83	     7.810
  43.440         35.83	     6.557
  43.460         44.17	     7.280
  43.480         53.33	     8.000
  43.500         48.33	     7.616
  43.520         51.67	     7.874
  43.540         57.50	     8.307
  43.560         51.67	     7.874
  43.580         52.50	     7.937
  43.600         52.50	     7.937
  43.620         60.83	     8.544
  43.640         46.67	     7.483
  43.660         60.00	     8.485
  43.680         59.17	     8.426
  43.700         54.17	     8.062
  43.720         58.33	     8.367
  43.740         59.17	     8.426
  43.760         57.50	     8.307
  43.780         40.83	     7.000
  43.800         49.17	     7.681
  43.820         52.50	     7.937
  43.840         59.17	     8.426
  43.860         44.17	     7.280
  43.880         48.33	     7.616
  43.900         50.00	     7.746
  43.920         42.50	     7.141
  43.940         57.50	     8.307
  43.960         48.33	     7.616
  43.980         47.50	     7.550
  44.000         51.67	     7.874
  44.020         54.17	     8.062
  44.040         55.83	     8.185
  44.060         60.83	     8.544
  44.080         69.17	     9.110
  44.100         89.17	    10.344
  44.120         80.83	     9.849
  44.140         86.67	    10.198
  44.160        120.00	    12.000
  44.180        136.67	    12.806
  44.200        149.17	    13.379
  44.220        115.83	    11.790
  44.240         91.67	    10.488
  44.260        106.67	    11.314
  44.280        107.50	    11.358
  44.300         90.00	    10.392
  44.320         91.67	    10.488
  44.340         93.33	    10.583
  44.360         59.17	     8.426
  44.380         63.33	     8.718
  44.400         59.17	     8.426
  44.420         48.33	     7.616
  44.440         60.00	     8.485
  44.460         54.17	     8.062
  44.480         42.50	     7.141
  44.500         51.67	     7.874
  44.520         39.17	     6.856
  44.540         45.00	     7.348
  44.560         42.50	     7.141
  44.580         51.67	     7.874
  44.600         45.83	     7.416
  44.620         60.00	     8.485
  44.640         59.17	     8.426
  44.660         60.83	     8.544
  44.680         69.17	     9.110
  44.700         50.83	     7.810
  44.720         60.00	     8.485
  44.740         62.50	     8.660
  44.760         80.83	     9.849
  44.780         79.17	     9.747
  44.800         85.00	    10.100
  44.820         90.00	    10.392
  44.840        108.33	    11.402
  44.860        115.00	    11.747
  44.880        115.83	    11.790
  44.900         97.50	    10.817
  44.920         88.33	    10.296
  44.940         82.50	     9.950
  44.960        102.50	    11.091
  44.980         92.50	    10.536
  45.000         97.50	    10.817
  45.020        103.33	    11.136
  45.040        101.67	    11.045
  45.060         85.00	    10.100
  45.080         91.67	    10.488
  45.100         88.33	    10.296
  45.120         83.33	    10.000
  45.140         84.17	    10.050
  45.160         88.33	    10.296
  45.180        110.83	    11.533
  45.200         83.33	    10.000
  45.220         98.33	    10.863
  45.240        107.50	    11.358
  45.260         95.00	    10.677
  45.280        125.83	    12.288
  45.300        125.83	    12.288
  45.320        140.00	    12.961
  45.340        160.00	    13.856
  45.360        165.00	    14.071
  45.380        175.83	    14.526
  45.400        204.17	    15.652
  45.420        255.00	    17.493
  45.440        280.83	    18.358
  45.460        285.00	    18.493
  45.480        286.67	    18.547
  45.500        260.00	    17.664
  45.520        261.67	    17.720
  45.540        255.83	    17.521
  45.560        257.50	    17.578
  45.580        223.33	    16.371
  45.600        190.00	    15.100
  45.620        177.50	    14.595
  45.640        141.67	    13.038
  45.660        150.00	    13.416
  45.680        133.33	    12.649
  45.700        175.00	    14.491
  45.720        174.17	    14.457
  45.740        131.67	    12.570
  45.760        113.33	    11.662
  45.780         98.33	    10.863
  45.800         89.17	    10.344
  45.820         95.00	    10.677
  45.840         81.67	     9.899
  45.860         80.00	     9.798
  45.880         80.83	     9.849
  45.900         59.17	     8.426
  45.920         60.83	     8.544
  45.940         67.50	     9.000
  45.960         65.83	     8.888
  45.980         57.50	     8.307
  46.000         56.67	     8.246
  46.020         57.50	     8.307
  46.040         55.83	     8.185
  46.060         37.50	     6.708
  46.080         60.00	     8.485
  46.100         47.50	     7.550
  46.120         56.67	     8.246
  46.140         54.17	     8.062
  46.160         50.00	     7.746
  46.180         40.00	     6.928
  46.200         35.00	     6.481
  46.220         47.50	     7.550
  46.240         45.00	     7.348
  46.260         35.83	     6.557
  46.280         36.67	     6.633
  46.300         22.50	     5.196
  46.320         33.33	     6.325
  46.340         38.33	     6.782
  46.360         43.33	     7.211
  46.380         52.50	     7.937
  46.400         52.50	     7.937
  46.420         45.83	     7.416
  46.440         40.83	     7.000
  46.460         38.33	     6.782
  46.480         44.17	     7.280
  46.500         59.17	     8.426
  46.520         44.17	     7.280
  46.540         47.50	     7.550
  46.560         40.00	     6.928
  46.580         38.33	     6.782
  46.600         37.50	     6.708
  46.620         43.33	     7.211
  46.640         40.00	     6.928
  46.660         38.33	     6.782
  46.680         32.50	     6.245
  46.700         34.17	     6.403
  46.720         26.67	     5.657
  46.740         35.00	     6.481
  46.760         40.83	     7.000
  46.780         43.33	     7.211
  46.800         45.83	     7.416
  46.820         32.50	     6.245
  46.840         41.67	     7.071
  46.860         40.00	     6.928
  46.880         24.17	     5.385
  46.900         41.67	     7.071
  46.920         40.83	     7.000
  46.940         46.67	     7.483
  46.960         50.00	     7.746
  46.980         40.00	     6.928
  47.000         38.33	     6.782
  47.020         44.17	     7.280
  47.040         45.00	     7.348
  47.060         61.67	     8.602
  47.080         47.50	     7.550
  47.100         63.33	     8.718
  47.120         37.50	     6.708
  47.140         40.83	     7.000
  47.160         40.00	     6.928
  47.180         50.83	     7.810
  47.200         50.83	     7.810
  47.220         40.83	     7.000
  47.240         40.00	     6.928
  47.260         45.00	     7.348
  47.280         33.33	     6.325
  47.300         48.33	     7.616
  47.320         38.33	     6.782
  47.340         35.00	     6.481
  47.360         40.00	     6.928
  47.380         40.83	     7.000
  47.400         46.67	     7.483
  47.420         30.00	     6.000
  47.440         28.33	     5.831
  47.460         33.33	     6.325
  47.480         28.33	     5.831
  47.500         35.00	     6.481
  47.520         25.00	     5.477
  47.540         32.50	     6.245
  47.560         25.83	     5.568
  47.580         23.33	     5.292
  47.600         32.50	     6.245
  47.620         36.67	     6.633
  47.640         30.83	     6.083
  47.660         31.67	     6.164
  47.680         30.83	     6.083
  47.700         33.33	     6.325
  47.720         39.17	     6.856
  47.740         37.50	     6.708
  47.760         40.83	     7.000
  47.780         39.17	     6.856
  47.800         50.83	     7.810
  47.820         49.17	     7.681
  47.840         48.33	     7.616
  47.860         47.50	     7.550
  47.880         42.50	     7.141
  47.900         56.67	     8.246
  47.920         54.17	     8.062
  47.940         50.00	     7.746
  47.960         65.00	     8.832
  47.980         50.83	     7.810
  48.000         62.50	     8.660
  48.020         66.67	     8.944
  48.040         60.83	     8.544
  48.060         86.67	    10.198
  48.080         73.33	     9.381
  48.100         76.67	     9.592
  48.120         69.17	     9.110
  48.140         67.50	     9.000
  48.160         77.50	     9.644
  48.180         80.00	     9.798
  48.200         89.17	    10.344
  48.220         78.33	     9.695
  48.240         63.33	     8.718
  48.260         84.17	    10.050
  48.280         74.17	     9.434
  48.300         78.33	     9.695
  48.320         81.67	     9.899
  48.340         73.33	     9.381
  48.360         64.17	     8.775
  48.380         63.33	     8.718
  48.400         55.00	     8.124
  48.420         72.50	     9.327
  48.440         81.67	     9.899
  48.460         62.50	     8.660
  48.480         60.83	     8.544
  48.500         52.50	     7.937
  48.520         50.00	     7.746
  48.540         64.17	     8.775
  48.560         70.00	     9.165
  48.580         60.00	     8.485
  48.600         73.33	     9.381
  48.620         68.33	     9.055
  48.640         59.17	     8.426
  48.660         65.00	     8.832
  48.680         56.67	     8.246
  48.700         45.00	     7.348
  48.720         39.17	     6.856
  48.740         58.33	     8.367
  48.760         53.33	     8.000
  48.780         50.00	     7.746
  48.800         47.50	     7.550
  48.820         40.83	     7.000
  48.840         40.00	     6.928
  48.860         39.17	     6.856
  48.880         41.67	     7.071
  48.900         33.33	     6.325
  48.920         45.83	     7.416
  48.940         43.33	     7.211
  48.960         37.50	     6.708
  48.980         33.33	     6.325
  49.000         41.67	     7.071
  49.020         28.33	     5.831
  49.040         40.83	     7.000
  49.060         28.33	     5.831
  49.080         37.50	     6.708
  49.100         56.67	     8.246
  49.120         67.50	     9.000
  49.140         75.83	     9.539
  49.160         60.83	     8.544
  49.180         63.33	     8.718
  49.200         52.50	     7.937
  49.220         56.67	     8.246
  49.240         51.67	     7.874
  49.260         64.17	     8.775
  49.280         60.00	     8.485
  49.300         44.17	     7.280
  49.320         49.17	     7.681
  49.340         49.17	     7.681
  49.360         32.50	     6.245
  49.380         45.83	     7.416
  49.400         43.33	     7.211
  49.420         40.83	     7.000
  49.440         60.83	     8.544
  49.460         56.67	     8.246
  49.480         47.50	     7.550
  49.500         48.33	     7.616
  49.520         53.33	     8.000
  49.540         57.50	     8.307
  49.560         48.33	     7.616
  49.580         60.83	     8.544
  49.600         60.00	     8.485
  49.620         71.67	     9.274
  49.640         72.50	     9.327
  49.660         67.50	     9.000
  49.680         75.83	     9.539
  49.700         81.67	     9.899
  49.720         77.50	     9.644
  49.740         82.50	     9.950
  49.760         82.50	     9.950
  49.780         82.50	     9.950
  49.800         78.33	     9.695
  49.820         91.67	    10.488
  49.840         84.17	    10.050
  49.860         90.83	    10.440
  49.880         97.50	    10.817
  49.900         87.50	    10.247
  49.920         70.83	     9.220
  49.940         97.50	    10.817
  49.960         98.33	    10.863
  49.980        115.83	    11.790
  50.000        167.50	    14.177
  50.020        194.17	    15.264
  50.040        241.67	    17.029
  50.060        310.83	    19.313
  50.080        250.83	    17.349
  50.100        176.67	    14.560
  50.120        143.33	    13.115
  50.140        132.50	    12.610
  50.160        185.83	    14.933
  50.180        197.50	    15.395
  50.200        186.67	    14.967
  50.220        146.67	    13.266
  50.240         93.33	    10.583
  50.260         74.17	     9.434
  50.280         85.83	    10.149
  50.300         75.83	     9.539
  50.320         71.67	     9.274
  50.340         52.50	     7.937
  50.360         56.67	     8.246
  50.380         69.17	     9.110
  50.400         70.00	     9.165
  50.420         56.67	     8.246
  50.440         72.50	     9.327
  50.460         83.33	    10.000
  50.480         70.00	     9.165
  50.500         85.00	    10.100
  50.520         79.17	     9.747
  50.540         73.33	     9.381
  50.560         77.50	     9.644
  50.580         85.00	    10.100
  50.600         80.00	     9.798
  50.620         90.00	    10.392
  50.640         71.67	     9.274
  50.660         90.83	    10.440
  50.680         79.17	     9.747
  50.700         66.67	     8.944
  50.720         50.83	     7.810
  50.740         62.50	     8.660
  50.760         55.83	     8.185
  50.780         60.83	     8.544
  50.800         48.33	     7.616
  50.820         50.00	     7.746
  50.840         50.00	     7.746
  50.860         55.00	     8.124
  50.880         53.33	     8.000
  50.900         60.00	     8.485
  50.920         59.17	     8.426
  50.940         60.00	     8.485
  50.960         56.67	     8.246
  50.980         54.17	     8.062
  51.000         57.50	     8.307
  51.020        100.83	    11.000
  51.040        100.83	    11.000
  51.060        108.33	    11.402
  51.080         89.17	    10.344
  51.100         85.83	    10.149
  51.120         72.50	     9.327
  51.140        102.50	    11.091
  51.160         91.67	    10.488
  51.180         83.33	    10.000
  51.200         91.67	    10.488
  51.220         80.00	     9.798
  51.240         65.83	     8.888
  51.260         59.17	     8.426
  51.280         71.67	     9.274
  51.300         60.00	     8.485
  51.320         50.00	     7.746
  51.340         56.67	     8.246
  51.360         53.33	     8.000
  51.380         38.33	     6.782
  51.400         40.00	     6.928
  51.420         36.67	     6.633
  51.440         46.67	     7.483
  51.460         45.00	     7.348
  51.480         38.33	     6.782
  51.500         35.00	     6.481
  51.520         41.67	     7.071
  51.540         45.00	     7.348
  51.560         40.00	     6.928
  51.580         40.00	     6.928
  51.600         32.50	     6.245
  51.620         42.50	     7.141
  51.640         37.50	     6.708
  51.660         35.00	     6.481
  51.680         33.33	     6.325
  51.700         34.17	     6.403
  51.720         40.83	     7.000
  51.740         38.33	     6.782
  51.760         38.33	     6.782
  51.780         25.83	     5.568
  51.800         31.67	     6.164
  51.820         49.17	     7.681
  51.840         44.17	     7.280
  51.860         37.50	     6.708
  51.880         45.83	     7.416
  51.900         45.83	     7.416
  51.920         51.67	     7.874
  51.940         51.67	     7.874
  51.960         42.50	     7.141
  51.980         55.00	     8.124
  52.000         70.00	     9.165
  52.020         62.50	     8.660
  52.040         67.50	     9.000
  52.060         97.50	    10.817
  52.080        104.17	    11.180
  52.100        116.67	    11.832
  52.120         77.50	     9.644
  52.140         62.50	     8.660
  52.160         61.67	     8.602
  52.180         77.50	     9.644
  52.200         76.67	     9.592
  52.220         64.17	     8.775
  52.240         76.67	     9.592
  52.260         77.50	     9.644
  52.280         68.33	     9.055
  52.300         71.67	     9.274
  52.320         62.50	     8.660
  52.340         70.00	     9.165
  52.360         70.00	     9.165
  52.380         67.50	     9.000
  52.400         87.50	    10.247
  52.420        108.33	    11.402
  52.440         81.67	     9.899
  52.460         60.83	     8.544
  52.480         59.17	     8.426
  52.500         55.83	     8.185
  52.520         54.17	     8.062
  52.540         65.00	     8.832
  52.560         75.00	     9.487
  52.580         50.00	     7.746
  52.600         61.67	     8.602
  52.620         55.83	     8.185
  52.640         45.00	     7.348
  52.660         47.50	     7.550
  52.680         60.83	     8.544
  52.700         49.17	     7.681
  52.720         43.33	     7.211
  52.740         47.50	     7.550
  52.760         55.83	     8.185
  52.780         65.00	     8.832
  52.800         65.83	     8.888
  52.820         56.67	     8.246
  52.840         53.33	     8.000
  52.860         65.00	     8.832
  52.880         42.50	     7.141
  52.900         53.33	     8.000
  52.920         50.83	     7.810
  52.940         56.67	     8.246
  52.960         55.00	     8.124
  52.980         61.67	     8.602
  53.000         55.83	     8.185
  53.020         45.83	     7.416
  53.040         63.33	     8.718
  53.060         48.33	     7.616
  53.080         58.33	     8.367
  53.100         62.50	     8.660
  53.120         75.00	     9.487
  53.140         71.67	     9.274
  53.160         73.33	     9.381
  53.180         62.50	     8.660
  53.200         66.67	     8.944
  53.220         60.00	     8.485
  53.240         45.00	     7.348
  53.260         55.83	     8.185
  53.280         53.33	     8.000
  53.300         52.50	     7.937
  53.320         63.33	     8.718
  53.340         59.17	     8.426
  53.360         46.67	     7.483
  53.380         42.50	     7.141
  53.400         45.83	     7.416
  53.420         60.83	     8.544
  53.440         48.33	     7.616
  53.460         50.83	     7.810
  53.480         48.33	     7.616
  53.500         38.33	     6.782
  53.520         34.17	     6.403
  53.540         42.50	     7.141
  53.560         45.83	     7.416
  53.580         41.67	     7.071
  53.600         50.83	     7.810
  53.620         45.83	     7.416
  53.640         35.00	     6.481
  53.660         38.33	     6.782
  53.680         50.83	     7.810
  53.700         36.67	     6.633
  53.720         46.67	     7.483
  53.740         42.50	     7.141
  53.760         36.67	     6.633
  53.780         42.50	     7.141
  53.800         55.83	     8.185
  53.820         53.33	     8.000
  53.840         32.50	     6.245
  53.860         40.00	     6.928
  53.880         48.33	     7.616
  53.900         39.17	     6.856
  53.920         45.00	     7.348
  53.940         41.67	     7.071
  53.960         53.33	     8.000
  53.980         39.17	     6.856
  54.000         30.83	     6.083
  54.020         36.67	     6.633
  54.040         42.50	     7.141
  54.060         41.67	     7.071
  54.080         50.00	     7.746
  54.100         35.00	     6.481
  54.120         45.00	     7.348
  54.140         39.17	     6.856
  54.160         44.17	     7.280
  54.180         40.00	     6.928
  54.200         49.17	     7.681
  54.220         55.83	     8.185
  54.240         42.50	     7.141
  54.260         54.17	     8.062
  54.280         57.50	     8.307
  54.300         53.33	     8.000
  54.320         56.67	     8.246
  54.340         53.33	     8.000
  54.360         55.00	     8.124
  54.380         58.33	     8.367
  54.400         42.50	     7.141
  54.420         52.50	     7.937
  54.440         53.33	     8.000
  54.460         56.67	     8.246
  54.480         55.00	     8.124
  54.500         57.50	     8.307
  54.520         65.00	     8.832
  54.540         56.67	     8.246
  54.560         42.50	     7.141
  54.580         76.67	     9.592
  54.600         47.50	     7.550
  54.620         50.00	     7.746
  54.640         58.33	     8.367
  54.660         53.33	     8.000
  54.680         61.67	     8.602
  54.700         73.33	     9.381
  54.720         85.83	    10.149
  54.740        106.67	    11.314
  54.760        100.83	    11.000
  54.780        120.00	    12.000
  54.800        158.33	    13.784
  54.820        144.17	    13.153
  54.840         91.67	    10.488
  54.860         70.00	     9.165
  54.880         80.83	     9.849
  54.900         85.83	    10.149
  54.920        117.50	    11.874
  54.940        123.33	    12.166
  54.960        111.67	    11.576
  54.980         96.67	    10.770
  55.000         68.33	     9.055
  55.020         55.83	     8.185
  55.040         61.67	     8.602
  55.060         65.00	     8.832
  55.080         60.83	     8.544
  55.100         68.33	     9.055
  55.120         61.67	     8.602
  55.140         49.17	     7.681
  55.160         69.17	     9.110
  55.180         70.83	     9.220
  55.200         81.67	     9.899
  55.220         75.83	     9.539
  55.240         89.17	    10.344
  55.260         60.83	     8.544
  55.280         69.17	     9.110
  55.300         64.17	     8.775
  55.320         49.17	     7.681
  55.340         63.33	     8.718
  55.360         62.50	     8.660
  55.380         65.83	     8.888
  55.400         58.33	     8.367
  55.420         60.00	     8.485
  55.440         64.17	     8.775
  55.460         53.33	     8.000
  55.480         68.33	     9.055
  55.500         65.83	     8.888
  55.520         73.33	     9.381
  55.540         40.00	     6.928
  55.560         55.83	     8.185
  55.580         73.33	     9.381
  55.600         77.50	     9.644
  55.620         71.67	     9.274
  55.640        107.50	    11.358
  55.660         91.67	    10.488
  55.680        103.33	    11.136
  55.700        106.67	    11.314
  55.720        141.67	    13.038
  55.740        132.50	    12.610
  55.760        172.50	    14.387
  55.780        141.67	    13.038
  55.800        131.67	    12.570
  55.820        120.00	    12.000
  55.840        115.00	    11.747
  55.860         95.83	    10.724
  55.880        127.50	    12.369
  55.900        123.33	    12.166
  55.920        105.83	    11.269
  55.940        100.00	    10.954
  55.960         95.83	    10.724
  55.980         76.67	     9.592
  56.000         89.17	    10.344
  56.020         85.00	    10.100
  56.040         68.33	     9.055
  56.060         84.17	    10.050
  56.080         70.83	     9.220
  56.100         68.33	     9.055
  56.120         62.50	     8.660
  56.140         68.33	     9.055
  56.160         85.00	    10.100
  56.180         69.17	     9.110
  56.200         56.67	     8.246
  56.220         58.33	     8.367
  56.240         71.67	     9.274
  56.260         44.17	     7.280
  56.280         46.67	     7.483
  56.300         44.17	     7.280
  56.320         45.00	     7.348
  56.340         52.50	     7.937
  56.360         40.83	     7.000
  56.380         55.83	     8.185
  56.400         50.00	     7.746
  56.420         52.50	     7.937
  56.440         45.83	     7.416
  56.460         62.50	     8.660
  56.480         73.33	     9.381
  56.500         99.17	    10.909
  56.520         61.67	     8.602
  56.540         63.33	     8.718
  56.560         50.00	     7.746
  56.580         50.83	     7.810
  56.600         64.17	     8.775
  56.620         64.17	     8.775
  56.640         78.33	     9.695
  56.660         65.83	     8.888
  56.680         63.33	     8.718
  56.700         60.83	     8.544
  56.720         43.33	     7.211
  56.740         49.17	     7.681
  56.760         46.67	     7.483
  56.780         53.33	     8.000
  56.800         45.00	     7.348
  56.820         45.00	     7.348
  56.840         41.67	     7.071
  56.860         45.83	     7.416
  56.880         49.17	     7.681
  56.900         38.33	     6.782
  56.920         47.50	     7.550
  56.940         38.33	     6.782
  56.960         52.50	     7.937
  56.980         44.17	     7.280
  57.000         40.83	     7.000
  57.020         42.50	     7.141
  57.040         36.67	     6.633
  57.060         51.67	     7.874
  57.080         38.33	     6.782
  57.100         43.33	     7.211
  57.120         50.00	     7.746
  57.140         38.33	     6.782
  57.160         50.00	     7.746
  57.180         40.00	     6.928
  57.200         40.83	     7.000
  57.220         35.83	     6.557
  57.240         45.00	     7.348
  57.260         41.67	     7.071
  57.280         41.67	     7.071
  57.300         35.83	     6.557
  57.320         30.83	     6.083
  57.340         40.00	     6.928
  57.360         35.83	     6.557
  57.380         39.17	     6.856
  57.400         34.17	     6.403
  57.420         47.50	     7.550
  57.440         45.00	     7.348
  57.460         37.50	     6.708
  57.480         35.00	     6.481
  57.500         38.33	     6.782
  57.520         36.67	     6.633
  57.540         35.83	     6.557
  57.560         46.67	     7.483
  57.580         37.50	     6.708
  57.600         42.50	     7.141
  57.620         42.50	     7.141
  57.640         38.33	     6.782
  57.660         41.67	     7.071
  57.680         34.17	     6.403
  57.700         38.33	     6.782
  57.720         48.33	     7.616
  57.740         46.67	     7.483
  57.760         37.50	     6.708
  57.780         39.17	     6.856
  57.800         32.50	     6.245
  57.820         41.67	     7.071
  57.840         38.33	     6.782
  57.860         35.83	     6.557
  57.880         39.17	     6.856
  57.900         37.50	     6.708
  57.920         43.33	     7.211
  57.940         53.33	     8.000
  57.960         35.83	     6.557
  57.980         51.67	     7.874
  58.000         50.83	     7.810
  58.020         40.00	     6.928
  58.040         71.67	     9.274
  58.060         70.00	     9.165
  58.080         74.17	     9.434
  58.100         50.00	     7.746
  58.120         59.17	     8.426
  58.140         50.00	     7.746
  58.160         43.33	     7.211
  58.180         41.67	     7.071
  58.200         57.50	     8.307
  58.220         55.00	     8.124
  58.240         65.00	     8.832
  58.260         63.33	     8.718
  58.280         53.33	     8.000
  58.300         49.17	     7.681
  58.320         50.00	     7.746
  58.340         53.33	     8.000
  58.360         57.50	     8.307
  58.380         64.17	     8.775
  58.400         60.83	     8.544
  58.420         55.00	     8.124
  58.440         60.00	     8.485
  58.460         60.83	     8.544
  58.480         61.67	     8.602
  58.500         66.67	     8.944
  58.520         65.83	     8.888
  58.540         85.00	    10.100
  58.560         72.50	     9.327
  58.580         71.67	     9.274
  58.600         60.83	     8.544
  58.620         54.17	     8.062
  58.640         56.67	     8.246
  58.660         55.83	     8.185
  58.680         60.00	     8.485
  58.700         68.33	     9.055
  58.720         75.00	     9.487
  58.740         65.00	     8.832
  58.760         55.83	     8.185
  58.780         68.33	     9.055
  58.800         61.67	     8.602
  58.820         55.00	     8.124
  58.840         50.00	     7.746
  58.860         61.67	     8.602
  58.880         67.50	     9.000
  58.900         70.00	     9.165
  58.920         73.33	     9.381
  58.940         51.67	     7.874
  58.960         75.00	     9.487
  58.980         60.83	     8.544
  59.000         67.50	     9.000
  59.020         67.50	     9.000
  59.040         85.83	    10.149
  59.060         70.00	     9.165
  59.080         87.50	    10.247
  59.100         78.33	     9.695
  59.120         86.67	    10.198
  59.140         58.33	     8.367
  59.160         68.33	     9.055
  59.180         69.17	     9.110
  59.200         62.50	     8.660
  59.220         67.50	     9.000
  59.240         75.83	     9.539
  59.260         70.83	     9.220
  59.280         64.17	     8.775
  59.300         66.67	     8.944
  59.320         65.00	     8.832
  59.340         60.83	     8.544
  59.360         61.67	     8.602
  59.380         45.83	     7.416
  59.400         50.00	     7.746
  59.420         52.50	     7.937
  59.440         50.83	     7.810
  59.460         65.83	     8.888
  59.480         60.00	     8.485
  59.500         54.17	     8.062
  59.520         42.50	     7.141
  59.540         41.67	     7.071
  59.560         55.83	     8.185
  59.580         46.67	     7.483
  59.600         59.17	     8.426
  59.620         63.33	     8.718
  59.640         54.17	     8.062
  59.660         47.50	     7.550
  59.680         55.83	     8.185
  59.700         75.83	     9.539
  59.720         75.00	     9.487
  59.740         75.83	     9.539
  59.760         75.83	     9.539
  59.780         77.50	     9.644
  59.800         96.67	    10.770
  59.820        114.17	    11.705
  59.840        144.17	    13.153
  59.860        191.67	    15.166
  59.880        177.50	    14.595
  59.900        200.00	    15.492
  59.920        160.00	    13.856
  59.940        108.33	    11.402
  59.960         97.50	    10.817
  59.980        100.00	    10.954
  60.000        110.83	    11.533
  60.020        139.17	    12.923
  60.040        135.00	    12.728
  60.060        113.33	    11.662
  60.080         88.33	    10.296
  60.100         80.83	     9.849
  60.120         75.00	     9.487
  60.140         60.83	     8.544
  60.160         63.33	     8.718
  60.180         58.33	     8.367
  60.200         84.17	    10.050
  60.220         63.33	     8.718
  60.240         71.67	     9.274
  60.260         65.00	     8.832
  60.280         70.83	     9.220
  60.300         64.17	     8.775
  60.320         61.67	     8.602
  60.340         65.00	     8.832
  60.360         62.50	     8.660
  60.380         71.67	     9.274
  60.400         65.00	     8.832
  60.420         65.00	     8.832
  60.440         52.50	     7.937
  60.460         49.17	     7.681
  60.480         75.00	     9.487
  60.500         79.17	     9.747
  60.520         85.00	    10.100
  60.540         78.33	     9.695
  60.560         78.33	     9.695
  60.580         66.67	     8.944
  60.600         60.83	     8.544
  60.620         76.67	     9.592
  60.640         92.50	    10.536
  60.660         90.83	    10.440
  60.680         94.17	    10.630
  60.700         90.83	    10.440
  60.720        105.83	    11.269
  60.740         90.83	    10.440
  60.760         95.00	    10.677
  60.780         97.50	    10.817
  60.800         94.17	    10.630
  60.820         75.83	     9.539
  60.840         91.67	    10.488
  60.860         86.67	    10.198
  60.880         97.50	    10.817
  60.900         60.00	     8.485
  60.920         70.00	     9.165
  60.940         67.50	     9.000
  60.960         71.67	     9.274
  60.980         84.17	    10.050
  61.000         80.83	     9.849
  61.020         77.50	     9.644
  61.040         64.17	     8.775
  61.060         59.17	     8.426
  61.080         59.17	     8.426
  61.100         75.83	     9.539
  61.120         58.33	     8.367
  61.140         65.00	     8.832
  61.160         73.33	     9.381
  61.180         59.17	     8.426
  61.200         55.00	     8.124
  61.220         78.33	     9.695
  61.240         69.17	     9.110
  61.260         66.67	     8.944
  61.280         87.50	    10.247
  61.300         77.50	     9.644
  61.320         70.83	     9.220
  61.340         80.83	     9.849
  61.360         94.17	    10.630
  61.380         93.33	    10.583
  61.400         90.83	    10.440
  61.420         95.00	    10.677
  61.440         75.83	     9.539
  61.460         72.50	     9.327
  61.480         85.00	    10.100
  61.500         63.33	     8.718
  61.520         85.00	    10.100
  61.540         98.33	    10.863
  61.560         77.50	     9.644
  61.580         88.33	    10.296
  61.600         75.00	     9.487
  61.620         85.00	    10.100
  61.640         85.83	    10.149
  61.660         60.00	     8.485
  61.680         91.67	    10.488
  61.700         76.67	     9.592
  61.720         81.67	     9.899
  61.740         55.83	     8.185
  61.760         75.00	     9.487
  61.780         78.33	     9.695
  61.800         75.00	     9.487
  61.820         77.50	     9.644
  61.840         75.83	     9.539
  61.860         81.67	     9.899
  61.880         63.33	     8.718
  61.900         80.00	     9.798
  61.920         75.83	     9.539
  61.940         73.33	     9.381
  61.960         66.67	     8.944
  61.980         51.67	     7.874
  62.000         72.50	     9.327
  62.020         61.67	     8.602
  62.040         51.67	     7.874
  62.060         46.67	     7.483
  62.080         50.83	     7.810
  62.100         63.33	     8.718
  62.120         46.67	     7.483
  62.140         56.67	     8.246
  62.160         41.67	     7.071
  62.180         54.17	     8.062
  62.200         41.67	     7.071
  62.220         35.83	     6.557
  62.240         50.83	     7.810
  62.260         46.67	     7.483
  62.280         39.17	     6.856
  62.300         41.67	     7.071
  62.320         33.33	     6.325
  62.340         38.33	     6.782
  62.360         49.17	     7.681
  62.380         40.00	     6.928
  62.400         43.33	     7.211
  62.420         40.83	     7.000
  62.440         43.33	     7.211
  62.460         41.67	     7.071
  62.480         53.33	     8.000
  62.500         48.33	     7.616
  62.520         55.00	     8.124
  62.540         70.83	     9.220
  62.560         71.67	     9.274
  62.580         74.17	     9.434
  62.600         63.33	     8.718
  62.620         57.50	     8.307
  62.640         69.17	     9.110
  62.660         55.83	     8.185
  62.680         47.50	     7.550
  62.700         63.33	     8.718
  62.720         55.00	     8.124
  62.740         61.67	     8.602
  62.760         56.67	     8.246
  62.780         45.83	     7.416
  62.800         58.33	     8.367
  62.820         46.67	     7.483
  62.840         59.17	     8.426
  62.860         41.67	     7.071
  62.880         50.83	     7.810
  62.900         49.17	     7.681
  62.920         46.67	     7.483
  62.940         40.00	     6.928
  62.960         49.17	     7.681
  62.980         47.50	     7.550
  63.000         42.50	     7.141
  63.020         43.33	     7.211
  63.040         42.50	     7.141
  63.060         45.83	     7.416
  63.080         48.33	     7.616
  63.100         45.00	     7.348
  63.120         39.17	     6.856
  63.140         40.83	     7.000
  63.160         49.17	     7.681
  63.180         58.33	     8.367
  63.200         64.17	     8.775
  63.220         48.33	     7.616
  63.240         52.50	     7.937
  63.260         48.33	     7.616
  63.280         56.67	     8.246
  63.300         53.33	     8.000
  63.320         67.50	     9.000
  63.340         50.00	     7.746
  63.360         62.50	     8.660
  63.380         48.33	     7.616
  63.400         72.50	     9.327
  63.420         74.17	     9.434
  63.440         60.00	     8.485
  63.460         55.00	     8.124
  63.480         47.50	     7.550
  63.500         49.17	     7.681
  63.520         55.83	     8.185
  63.540         55.00	     8.124
  63.560         47.50	     7.550
  63.580         53.33	     8.000
  63.600         62.50	     8.660
  63.620         70.83	     9.220
  63.640         53.33	     8.000
  63.660         55.00	     8.124
  63.680         49.17	     7.681
  63.700         59.17	     8.426
  63.720         75.83	     9.539
  63.740         89.17	    10.344
  63.760         80.83	     9.849
  63.780         82.50	     9.950
  63.800         77.50	     9.644
  63.820         70.00	     9.165
  63.840         66.67	     8.944
  63.860         66.67	     8.944
  63.880         84.17	    10.050
  63.900         76.67	     9.592
  63.920         87.50	    10.247
  63.940         97.50	    10.817
  63.960         90.00	    10.392
  63.980        105.00	    11.225
  64.000         85.00	    10.100
  64.020         81.67	     9.899
  64.040         70.83	     9.220
  64.060         77.50	     9.644
  64.080         75.00	     9.487
  64.100         76.67	     9.592
  64.120         92.50	    10.536
  64.140         74.17	     9.434
  64.160         71.67	     9.274
  64.180         91.67	    10.488
  64.200         76.67	     9.592
  64.220         75.00	     9.487
  64.240         96.67	    10.770
  64.260        110.83	    11.533
  64.280        130.00	    12.490
  64.300        169.17	    14.248
  64.320        182.50	    14.799
  64.340        176.67	    14.560
  64.360        148.33	    13.342
  64.380        115.00	    11.747
  64.400         95.00	    10.677
  64.420         91.67	    10.488
  64.440         90.83	    10.440
  64.460         89.17	    10.344
  64.480        111.67	    11.576
  64.500        122.50	    12.124
  64.520        114.17	    11.705
  64.540        101.67	    11.045
  64.560         93.33	    10.583
  64.580         83.33	    10.000
  64.600         92.50	    10.536
  64.620         84.17	    10.050
  64.640         73.33	     9.381
  64.660         67.50	     9.000
  64.680         75.83	     9.539
  64.700         66.67	     8.944
  64.720         62.50	     8.660
  64.740         75.83	     9.539
  64.760         76.67	     9.592
  64.780         64.17	     8.775
  64.800         59.17	     8.426
  64.820         72.50	     9.327
  64.840         55.00	     8.124
  64.860         67.50	     9.000
  64.880         61.67	     8.602
  64.900         49.17	     7.681
  64.920         55.00	     8.124
  64.940         44.17	     7.280
  64.960         52.50	     7.937
  64.980         57.50	     8.307
  65.000         60.83	     8.544
