
Filename:
	C:\Program Files\Thermo Electron\WinXRD\Datafiles\F_HERMAN\FIEN\5_2_AG_FILTER.raw

File Created:
	December 18, 2018 - 04:25 PM

Specimen Id:
	5.2 AUGUST AG  FILTER

Specimen Name:
	

Specimen Description:
	

Comment:
Scan Type: 2Theta Scan
Start Angle: 1 deg.
Stop Angle: 65 deg.
Num Points: 3201
Step Size: 0.02 deg.
Scan Rate: 1.000000
Scan Mode: Continuous
Wavelength: 1.540562
\Kalpha1: 1.540562	\Kalpha2: 1.544390	\Kbeta: 1.392218

Optics:
		Detector:
			 Type: Fixed Slits
		Tube: 
			 Type: Fixed Slits


Datas:
 Pos [deg]       Rate [CPS]      ESD [-]

Range 1 ---> Iteration 1
   1.000        828.33	    31.528
   1.020        630.00	    27.495
   1.040        710.00	    29.189
   1.060        545.83	    25.593
   1.080        515.00	    24.860
   1.100        450.83	    23.259
   1.120        458.33	    23.452
   1.140        470.00	    23.749
   1.160        497.50	    24.434
   1.180        449.17	    23.216
   1.200        400.83	    21.932
   1.220        383.33	    21.448
   1.240        421.67	    22.494
   1.260        384.17	    21.471
   1.280        464.17	    23.601
   1.300        580.83	    26.401
   1.320        820.83	    31.385
   1.340        923.33	    33.287
   1.360       1090.83	    36.180
   1.380       1215.00	    38.184
   1.400       1314.17	    39.711
   1.420       1370.00	    40.546
   1.440       1315.00	    39.724
   1.460       1290.83	    39.357
   1.480       1239.17	    38.562
   1.500       1197.50	    37.908
   1.520       1206.67	    38.053
   1.540       1175.83	    37.563
   1.560       1065.83	    35.763
   1.580       1089.17	    36.152
   1.600       1004.17	    34.713
   1.620        985.83	    34.395
   1.640        900.83	    32.879
   1.660        892.50	    32.726
   1.680        821.67	    31.401
   1.700        775.83	    30.512
   1.720        750.00	    30.000
   1.740        711.67	    29.223
   1.760        610.00	    27.055
   1.780        618.33	    27.240
   1.800        560.83	    25.942
   1.820        530.83	    25.239
   1.840        558.33	    25.884
   1.860        512.50	    24.799
   1.880        451.67	    23.281
   1.900        487.50	    24.187
   1.920        435.00	    22.847
   1.940        450.83	    23.259
   1.960        438.33	    22.935
   1.980        457.50	    23.431
   2.000        427.50	    22.650
   2.020        393.33	    21.726
   2.040        390.00	    21.633
   2.060        458.33	    23.452
   2.080        390.83	    21.656
   2.100        413.33	    22.271
   2.120        387.50	    21.564
   2.140        406.67	    22.091
   2.160        393.33	    21.726
   2.180        355.00	    20.640
   2.200        345.83	    20.372
   2.220        381.67	    21.401
   2.240        344.17	    20.322
   2.260        350.00	    20.494
   2.280        378.33	    21.307
   2.300        350.83	    20.518
   2.320        340.83	    20.224
   2.340        320.00	    19.596
   2.360        325.83	    19.774
   2.380        315.00	    19.442
   2.400        335.83	    20.075
   2.420        329.17	    19.875
   2.440        330.00	    19.900
   2.460        325.00	    19.748
   2.480        305.83	    19.157
   2.500        302.50	    19.053
   2.520        317.50	    19.519
   2.540        330.83	    19.925
   2.560        304.17	    19.105
   2.580        296.67	    18.868
   2.600        276.67	    18.221
   2.620        339.17	    20.174
   2.640        274.17	    18.138
   2.660        285.83	    18.520
   2.680        299.17	    18.947
   2.700        285.83	    18.520
   2.720        273.33	    18.111
   2.740        255.83	    17.521
   2.760        263.33	    17.776
   2.780        270.00	    18.000
   2.800        278.33	    18.276
   2.820        280.83	    18.358
   2.840        242.50	    17.059
   2.860        271.67	    18.055
   2.880        271.67	    18.055
   2.900        267.50	    17.916
   2.920        246.67	    17.205
   2.940        267.50	    17.916
   2.960        266.67	    17.889
   2.980        204.17	    15.652
   3.000        225.00	    16.432
   3.020        245.83	    17.176
   3.040        232.50	    16.703
   3.060        230.00	    16.613
   3.080        233.33	    16.733
   3.100        240.00	    16.971
   3.120        229.17	    16.583
   3.140        249.17	    17.292
   3.160        255.83	    17.521
   3.180        227.50	    16.523
   3.200        232.50	    16.703
   3.220        217.50	    16.155
   3.240        219.17	    16.217
   3.260        219.17	    16.217
   3.280        207.50	    15.780
   3.300        215.00	    16.062
   3.320        237.50	    16.882
   3.340        215.00	    16.062
   3.360        221.67	    16.310
   3.380        228.33	    16.553
   3.400        213.33	    16.000
   3.420        195.00	    15.297
   3.440        209.17	    15.843
   3.460        191.67	    15.166
   3.480        169.17	    14.248
   3.500        224.17	    16.401
   3.520        211.67	    15.937
   3.540        199.17	    15.460
   3.560        207.50	    15.780
   3.580        198.33	    15.427
   3.600        209.17	    15.843
   3.620        195.83	    15.330
   3.640        188.33	    15.033
   3.660        186.67	    14.967
   3.680        198.33	    15.427
   3.700        172.50	    14.387
   3.720        192.50	    15.199
   3.740        171.67	    14.353
   3.760        175.83	    14.526
   3.780        198.33	    15.427
   3.800        204.17	    15.652
   3.820        183.33	    14.832
   3.840        185.00	    14.900
   3.860        163.33	    14.000
   3.880        170.00	    14.283
   3.900        162.50	    13.964
   3.920        175.00	    14.491
   3.940        185.00	    14.900
   3.960        172.50	    14.387
   3.980        164.17	    14.036
   4.000        180.00	    14.697
   4.020        173.33	    14.422
   4.040        153.33	    13.565
   4.060        174.17	    14.457
   4.080        177.50	    14.595
   4.100        167.50	    14.177
   4.120        168.33	    14.213
   4.140        158.33	    13.784
   4.160        155.00	    13.638
   4.180        166.67	    14.142
   4.200        154.17	    13.601
   4.220        158.33	    13.784
   4.240        156.67	    13.711
   4.260        169.17	    14.248
   4.280        164.17	    14.036
   4.300        155.00	    13.638
   4.320        160.83	    13.892
   4.340        174.17	    14.457
   4.360        156.67	    13.711
   4.380        165.00	    14.071
   4.400        168.33	    14.213
   4.420        148.33	    13.342
   4.440        164.17	    14.036
   4.460        157.50	    13.748
   4.480        165.00	    14.071
   4.500        150.00	    13.416
   4.520        146.67	    13.266
   4.540        154.17	    13.601
   4.560        136.67	    12.806
   4.580        159.17	    13.820
   4.600        153.33	    13.565
   4.620        154.17	    13.601
   4.640        145.00	    13.191
   4.660        145.00	    13.191
   4.680        166.67	    14.142
   4.700        130.00	    12.490
   4.720        157.50	    13.748
   4.740        132.50	    12.610
   4.760        158.33	    13.784
   4.780        135.83	    12.767
   4.800        132.50	    12.610
   4.820        132.50	    12.610
   4.840        147.50	    13.304
   4.860        130.00	    12.490
   4.880        147.50	    13.304
   4.900        145.83	    13.229
   4.920        142.50	    13.077
   4.940        125.00	    12.247
   4.960        128.33	    12.410
   4.980        132.50	    12.610
   5.000        129.17	    12.450
   5.020        140.00	    12.961
   5.040        137.50	    12.845
   5.060        122.50	    12.124
   5.080        120.83	    12.042
   5.100        129.17	    12.450
   5.120        120.00	    12.000
   5.140        122.50	    12.124
   5.160        128.33	    12.410
   5.180        126.67	    12.329
   5.200        131.67	    12.570
   5.220        130.83	    12.530
   5.240        109.17	    11.446
   5.260        111.67	    11.576
   5.280        124.17	    12.207
   5.300        132.50	    12.610
   5.320        137.50	    12.845
   5.340        133.33	    12.649
   5.360        128.33	    12.410
   5.380        132.50	    12.610
   5.400        122.50	    12.124
   5.420        130.00	    12.490
   5.440        117.50	    11.874
   5.460        139.17	    12.923
   5.480        125.83	    12.288
   5.500        123.33	    12.166
   5.520        130.83	    12.530
   5.540        155.00	    13.638
   5.560        103.33	    11.136
   5.580        108.33	    11.402
   5.600        130.00	    12.490
   5.620        124.17	    12.207
   5.640        135.83	    12.767
   5.660        135.83	    12.767
   5.680        114.17	    11.705
   5.700        121.67	    12.083
   5.720        132.50	    12.610
   5.740        120.83	    12.042
   5.760        100.00	    10.954
   5.780        125.00	    12.247
   5.800        121.67	    12.083
   5.820        115.00	    11.747
   5.840        105.83	    11.269
   5.860        120.00	    12.000
   5.880        115.83	    11.790
   5.900        110.00	    11.489
   5.920        110.00	    11.489
   5.940        120.00	    12.000
   5.960        110.83	    11.533
   5.980        118.33	    11.916
   6.000        121.67	    12.083
   6.020        105.00	    11.225
   6.040        134.17	    12.689
   6.060        126.67	    12.329
   6.080        127.50	    12.369
   6.100        127.50	    12.369
   6.120        130.00	    12.490
   6.140        150.83	    13.454
   6.160        138.33	    12.884
   6.180        181.67	    14.765
   6.200        190.83	    15.133
   6.220        184.17	    14.866
   6.240        195.00	    15.297
   6.260        180.83	    14.731
   6.280        207.50	    15.780
   6.300        177.50	    14.595
   6.320        172.50	    14.387
   6.340        148.33	    13.342
   6.360        105.00	    11.225
   6.380        113.33	    11.662
   6.400        125.00	    12.247
   6.420        102.50	    11.091
   6.440        125.83	    12.288
   6.460        101.67	    11.045
   6.480         99.17	    10.909
   6.500        116.67	    11.832
   6.520        111.67	    11.576
   6.540        107.50	    11.358
   6.560         94.17	    10.630
   6.580        108.33	    11.402
   6.600         98.33	    10.863
   6.620         91.67	    10.488
   6.640        101.67	    11.045
   6.660         99.17	    10.909
   6.680         81.67	     9.899
   6.700         93.33	    10.583
   6.720        106.67	    11.314
   6.740         92.50	    10.536
   6.760        105.00	    11.225
   6.780        107.50	    11.358
   6.800        106.67	    11.314
   6.820        113.33	    11.662
   6.840        100.83	    11.000
   6.860        112.50	    11.619
   6.880        101.67	    11.045
   6.900        107.50	    11.358
   6.920         83.33	    10.000
   6.940         76.67	     9.592
   6.960         97.50	    10.817
   6.980        101.67	    11.045
   7.000         90.00	    10.392
   7.020        105.00	    11.225
   7.040         89.17	    10.344
   7.060         83.33	    10.000
   7.080        108.33	    11.402
   7.100        100.00	    10.954
   7.120         89.17	    10.344
   7.140         99.17	    10.909
   7.160         90.00	    10.392
   7.180         88.33	    10.296
   7.200         96.67	    10.770
   7.220         76.67	     9.592
   7.240        101.67	    11.045
   7.260         90.00	    10.392
   7.280         92.50	    10.536
   7.300         94.17	    10.630
   7.320         95.00	    10.677
   7.340         94.17	    10.630
   7.360         80.83	     9.849
   7.380         87.50	    10.247
   7.400         86.67	    10.198
   7.420         77.50	     9.644
   7.440         90.00	    10.392
   7.460         80.83	     9.849
   7.480         98.33	    10.863
   7.500         81.67	     9.899
   7.520         90.83	    10.440
   7.540         74.17	     9.434
   7.560         70.83	     9.220
   7.580         97.50	    10.817
   7.600         98.33	    10.863
   7.620         95.00	    10.677
   7.640         84.17	    10.050
   7.660         92.50	    10.536
   7.680         90.00	    10.392
   7.700         90.00	    10.392
   7.720         75.00	     9.487
   7.740         88.33	    10.296
   7.760         72.50	     9.327
   7.780         85.83	    10.149
   7.800         85.00	    10.100
   7.820         75.83	     9.539
   7.840         88.33	    10.296
   7.860         76.67	     9.592
   7.880         97.50	    10.817
   7.900         85.83	    10.149
   7.920         87.50	    10.247
   7.940         77.50	     9.644
   7.960         84.17	    10.050
   7.980         90.00	    10.392
   8.000         91.67	    10.488
   8.020         83.33	    10.000
   8.040        100.00	    10.954
   8.060         83.33	    10.000
   8.080         81.67	     9.899
   8.100         84.17	    10.050
   8.120         77.50	     9.644
   8.140         73.33	     9.381
   8.160         76.67	     9.592
   8.180         77.50	     9.644
   8.200         93.33	    10.583
   8.220         79.17	     9.747
   8.240         80.83	     9.849
   8.260         72.50	     9.327
   8.280         77.50	     9.644
   8.300         90.83	    10.440
   8.320         88.33	    10.296
   8.340         75.00	     9.487
   8.360         86.67	    10.198
   8.380         65.83	     8.888
   8.400         70.83	     9.220
   8.420         85.00	    10.100
   8.440         93.33	    10.583
   8.460         71.67	     9.274
   8.480         80.83	     9.849
   8.500         87.50	    10.247
   8.520         70.83	     9.220
   8.540        100.00	    10.954
   8.560         85.83	    10.149
   8.580        106.67	    11.314
   8.600         94.17	    10.630
   8.620         95.00	    10.677
   8.640         87.50	    10.247
   8.660        102.50	    11.091
   8.680        110.00	    11.489
   8.700        121.67	    12.083
   8.720        112.50	    11.619
   8.740        141.67	    13.038
   8.760        160.83	    13.892
   8.780        145.83	    13.229
   8.800        160.83	    13.892
   8.820        182.50	    14.799
   8.840        182.50	    14.799
   8.860        196.67	    15.362
   8.880        245.83	    17.176
   8.900        317.50	    19.519
   8.920        281.67	    18.385
   8.940        264.17	    17.804
   8.960        208.33	    15.811
   8.980        153.33	    13.565
   9.000        119.17	    11.958
   9.020        113.33	    11.662
   9.040         95.83	    10.724
   9.060         96.67	    10.770
   9.080         81.67	     9.899
   9.100         81.67	     9.899
   9.120         75.83	     9.539
   9.140         85.00	    10.100
   9.160         85.83	    10.149
   9.180         82.50	     9.950
   9.200         85.00	    10.100
   9.220         75.00	     9.487
   9.240         80.00	     9.798
   9.260         79.17	     9.747
   9.280         68.33	     9.055
   9.300         58.33	     8.367
   9.320         88.33	    10.296
   9.340         70.83	     9.220
   9.360         76.67	     9.592
   9.380        102.50	    11.091
   9.400         68.33	     9.055
   9.420         90.00	    10.392
   9.440         83.33	    10.000
   9.460         89.17	    10.344
   9.480         90.00	    10.392
   9.500         89.17	    10.344
   9.520         83.33	    10.000
   9.540         75.00	     9.487
   9.560         81.67	     9.899
   9.580         59.17	     8.426
   9.600         65.00	     8.832
   9.620         70.00	     9.165
   9.640         72.50	     9.327
   9.660         69.17	     9.110
   9.680         62.50	     8.660
   9.700         53.33	     8.000
   9.720         62.50	     8.660
   9.740         72.50	     9.327
   9.760         60.00	     8.485
   9.780         62.50	     8.660
   9.800         79.17	     9.747
   9.820         82.50	     9.950
   9.840         77.50	     9.644
   9.860         85.00	    10.100
   9.880         67.50	     9.000
   9.900         68.33	     9.055
   9.920         76.67	     9.592
   9.940         65.00	     8.832
   9.960         60.00	     8.485
   9.980         69.17	     9.110
  10.000         62.50	     8.660
  10.020         65.00	     8.832
  10.040         55.83	     8.185
  10.060         54.17	     8.062
  10.080         58.33	     8.367
  10.100         68.33	     9.055
  10.120         59.17	     8.426
  10.140         59.17	     8.426
  10.160         65.83	     8.888
  10.180         60.00	     8.485
  10.200         54.17	     8.062
  10.220         61.67	     8.602
  10.240         67.50	     9.000
  10.260         46.67	     7.483
  10.280         52.50	     7.937
  10.300         59.17	     8.426
  10.320         61.67	     8.602
  10.340         72.50	     9.327
  10.360         65.00	     8.832
  10.380         60.83	     8.544
  10.400         54.17	     8.062
  10.420         64.17	     8.775
  10.440         55.83	     8.185
  10.460         70.83	     9.220
  10.480         86.67	    10.198
  10.500         97.50	    10.817
  10.520        115.00	    11.747
  10.540        101.67	    11.045
  10.560        118.33	    11.916
  10.580        114.17	    11.705
  10.600        125.00	    12.247
  10.620        106.67	    11.314
  10.640        143.33	    13.115
  10.660        158.33	    13.784
  10.680        133.33	    12.649
  10.700         81.67	     9.899
  10.720         86.67	    10.198
  10.740         69.17	     9.110
  10.760         53.33	     8.000
  10.780         60.00	     8.485
  10.800         54.17	     8.062
  10.820         65.83	     8.888
  10.840         54.17	     8.062
  10.860         61.67	     8.602
  10.880         55.00	     8.124
  10.900         60.00	     8.485
  10.920         43.33	     7.211
  10.940         48.33	     7.616
  10.960         54.17	     8.062
  10.980         51.67	     7.874
  11.000         52.50	     7.937
  11.020         53.33	     8.000
  11.040         48.33	     7.616
  11.060         51.67	     7.874
  11.080         58.33	     8.367
  11.100         54.17	     8.062
  11.120         53.33	     8.000
  11.140         55.00	     8.124
  11.160         74.17	     9.434
  11.180         60.00	     8.485
  11.200         53.33	     8.000
  11.220         48.33	     7.616
  11.240         44.17	     7.280
  11.260         62.50	     8.660
  11.280         50.00	     7.746
  11.300         48.33	     7.616
  11.320         52.50	     7.937
  11.340         49.17	     7.681
  11.360         58.33	     8.367
  11.380         54.17	     8.062
  11.400         57.50	     8.307
  11.420         50.83	     7.810
  11.440         58.33	     8.367
  11.460         45.83	     7.416
  11.480         45.00	     7.348
  11.500         53.33	     8.000
  11.520         54.17	     8.062
  11.540         53.33	     8.000
  11.560         48.33	     7.616
  11.580         55.00	     8.124
  11.600         51.67	     7.874
  11.620         43.33	     7.211
  11.640         50.83	     7.810
  11.660         48.33	     7.616
  11.680         51.67	     7.874
  11.700         56.67	     8.246
  11.720         41.67	     7.071
  11.740         51.67	     7.874
  11.760         43.33	     7.211
  11.780         55.00	     8.124
  11.800         35.83	     6.557
  11.820         48.33	     7.616
  11.840         50.83	     7.810
  11.860         69.17	     9.110
  11.880         57.50	     8.307
  11.900         55.83	     8.185
  11.920         49.17	     7.681
  11.940         55.00	     8.124
  11.960         65.83	     8.888
  11.980         63.33	     8.718
  12.000         65.00	     8.832
  12.020         60.00	     8.485
  12.040         65.83	     8.888
  12.060         79.17	     9.747
  12.080        101.67	    11.045
  12.100        100.83	    11.000
  12.120        124.17	    12.207
  12.140        179.17	    14.663
  12.160        217.50	    16.155
  12.180        278.33	    18.276
  12.200        379.17	    21.331
  12.220        435.00	    22.847
  12.240        428.33	    22.672
  12.260        366.67	    20.976
  12.280        285.83	    18.520
  12.300        250.00	    17.321
  12.320        176.67	    14.560
  12.340        180.00	    14.697
  12.360        166.67	    14.142
  12.380        197.50	    15.395
  12.400        180.00	    14.697
  12.420        186.67	    14.967
  12.440        191.67	    15.166
  12.460        195.00	    15.297
  12.480        213.33	    16.000
  12.500        249.17	    17.292
  12.520        330.00	    19.900
  12.540        345.83	    20.372
  12.560        300.83	    19.000
  12.580        190.83	    15.133
  12.600        155.00	    13.638
  12.620        107.50	    11.358
  12.640         90.00	    10.392
  12.660         73.33	     9.381
  12.680         70.00	     9.165
  12.700         85.00	    10.100
  12.720         65.00	     8.832
  12.740         67.50	     9.000
  12.760         60.83	     8.544
  12.780         60.83	     8.544
  12.800         59.17	     8.426
  12.820         58.33	     8.367
  12.840         45.83	     7.416
  12.860         48.33	     7.616
  12.880         65.83	     8.888
  12.900         66.67	     8.944
  12.920         60.00	     8.485
  12.940         48.33	     7.616
  12.960         62.50	     8.660
  12.980         54.17	     8.062
  13.000         58.33	     8.367
  13.020         49.17	     7.681
  13.040         60.83	     8.544
  13.060         46.67	     7.483
  13.080         50.00	     7.746
  13.100         42.50	     7.141
  13.120         40.00	     6.928
  13.140         52.50	     7.937
  13.160         52.50	     7.937
  13.180         50.00	     7.746
  13.200         45.00	     7.348
  13.220         53.33	     8.000
  13.240         40.00	     6.928
  13.260         54.17	     8.062
  13.280         41.67	     7.071
  13.300         48.33	     7.616
  13.320         48.33	     7.616
  13.340         47.50	     7.550
  13.360         65.83	     8.888
  13.380         55.00	     8.124
  13.400         53.33	     8.000
  13.420         57.50	     8.307
  13.440         56.67	     8.246
  13.460         55.00	     8.124
  13.480         47.50	     7.550
  13.500         45.00	     7.348
  13.520         46.67	     7.483
  13.540         61.67	     8.602
  13.560         63.33	     8.718
  13.580         43.33	     7.211
  13.600         43.33	     7.211
  13.620         49.17	     7.681
  13.640         52.50	     7.937
  13.660         56.67	     8.246
  13.680         52.50	     7.937
  13.700         42.50	     7.141
  13.720         69.17	     9.110
  13.740         60.83	     8.544
  13.760         62.50	     8.660
  13.780         55.83	     8.185
  13.800         40.83	     7.000
  13.820         61.67	     8.602
  13.840         54.17	     8.062
  13.860         70.00	     9.165
  13.880         90.00	    10.392
  13.900         72.50	     9.327
  13.920         68.33	     9.055
  13.940         52.50	     7.937
  13.960         57.50	     8.307
  13.980         56.67	     8.246
  14.000         59.17	     8.426
  14.020         50.83	     7.810
  14.040         48.33	     7.616
  14.060         40.83	     7.000
  14.080         49.17	     7.681
  14.100         51.67	     7.874
  14.120         45.00	     7.348
  14.140         32.50	     6.245
  14.160         56.67	     8.246
  14.180         54.17	     8.062
  14.200         37.50	     6.708
  14.220         50.83	     7.810
  14.240         31.67	     6.164
  14.260         43.33	     7.211
  14.280         40.00	     6.928
  14.300         41.67	     7.071
  14.320         40.00	     6.928
  14.340         38.33	     6.782
  14.360         47.50	     7.550
  14.380         35.83	     6.557
  14.400         34.17	     6.403
  14.420         43.33	     7.211
  14.440         40.83	     7.000
  14.460         40.00	     6.928
  14.480         52.50	     7.937
  14.500         37.50	     6.708
  14.520         38.33	     6.782
  14.540         33.33	     6.325
  14.560         43.33	     7.211
  14.580         41.67	     7.071
  14.600         41.67	     7.071
  14.620         35.00	     6.481
  14.640         36.67	     6.633
  14.660         32.50	     6.245
  14.680         41.67	     7.071
  14.700         55.83	     8.185
  14.720         33.33	     6.325
  14.740         34.17	     6.403
  14.760         46.67	     7.483
  14.780         40.83	     7.000
  14.800         28.33	     5.831
  14.820         40.00	     6.928
  14.840         31.67	     6.164
  14.860         39.17	     6.856
  14.880         44.17	     7.280
  14.900         44.17	     7.280
  14.920         38.33	     6.782
  14.940         45.00	     7.348
  14.960         40.83	     7.000
  14.980         31.67	     6.164
  15.000         40.83	     7.000
  15.020         51.67	     7.874
  15.040         49.17	     7.681
  15.060         48.33	     7.616
  15.080         40.83	     7.000
  15.100         42.50	     7.141
  15.120         50.83	     7.810
  15.140         54.17	     8.062
  15.160         44.17	     7.280
  15.180         39.17	     6.856
  15.200         31.67	     6.164
  15.220         30.83	     6.083
  15.240         44.17	     7.280
  15.260         44.17	     7.280
  15.280         36.67	     6.633
  15.300         43.33	     7.211
  15.320         38.33	     6.782
  15.340         50.00	     7.746
  15.360         41.67	     7.071
  15.380         37.50	     6.708
  15.400         32.50	     6.245
  15.420         30.00	     6.000
  15.440         30.83	     6.083
  15.460         42.50	     7.141
  15.480         40.83	     7.000
  15.500         25.83	     5.568
  15.520         40.83	     7.000
  15.540         36.67	     6.633
  15.560         45.83	     7.416
  15.580         37.50	     6.708
  15.600         35.83	     6.557
  15.620         30.00	     6.000
  15.640         37.50	     6.708
  15.660         34.17	     6.403
  15.680         40.83	     7.000
  15.700         31.67	     6.164
  15.720         41.67	     7.071
  15.740         43.33	     7.211
  15.760         31.67	     6.164
  15.780         42.50	     7.141
  15.800         24.17	     5.385
  15.820         30.83	     6.083
  15.840         40.00	     6.928
  15.860         42.50	     7.141
  15.880         39.17	     6.856
  15.900         41.67	     7.071
  15.920         40.83	     7.000
  15.940         40.83	     7.000
  15.960         32.50	     6.245
  15.980         40.83	     7.000
  16.000         45.00	     7.348
  16.020         34.17	     6.403
  16.040         30.83	     6.083
  16.060         21.67	     5.099
  16.080         32.50	     6.245
  16.100         50.00	     7.746
  16.120         35.00	     6.481
  16.140         29.17	     5.916
  16.160         40.00	     6.928
  16.180         36.67	     6.633
  16.200         31.67	     6.164
  16.220         28.33	     5.831
  16.240         33.33	     6.325
  16.260         30.00	     6.000
  16.280         34.17	     6.403
  16.300         35.00	     6.481
  16.320         33.33	     6.325
  16.340         35.00	     6.481
  16.360         37.50	     6.708
  16.380         29.17	     5.916
  16.400         46.67	     7.483
  16.420         29.17	     5.916
  16.440         47.50	     7.550
  16.460         31.67	     6.164
  16.480         34.17	     6.403
  16.500         37.50	     6.708
  16.520         34.17	     6.403
  16.540         31.67	     6.164
  16.560         47.50	     7.550
  16.580         35.83	     6.557
  16.600         35.00	     6.481
  16.620         33.33	     6.325
  16.640         30.83	     6.083
  16.660         27.50	     5.745
  16.680         35.83	     6.557
  16.700         37.50	     6.708
  16.720         38.33	     6.782
  16.740         41.67	     7.071
  16.760         35.00	     6.481
  16.780         37.50	     6.708
  16.800         36.67	     6.633
  16.820         35.00	     6.481
  16.840         34.17	     6.403
  16.860         31.67	     6.164
  16.880         35.83	     6.557
  16.900         32.50	     6.245
  16.920         36.67	     6.633
  16.940         31.67	     6.164
  16.960         43.33	     7.211
  16.980         40.00	     6.928
  17.000         40.00	     6.928
  17.020         38.33	     6.782
  17.040         30.83	     6.083
  17.060         37.50	     6.708
  17.080         33.33	     6.325
  17.100         42.50	     7.141
  17.120         24.17	     5.385
  17.140         39.17	     6.856
  17.160         27.50	     5.745
  17.180         26.67	     5.657
  17.200         32.50	     6.245
  17.220         35.00	     6.481
  17.240         32.50	     6.245
  17.260         35.83	     6.557
  17.280         35.00	     6.481
  17.300         41.67	     7.071
  17.320         29.17	     5.916
  17.340         35.83	     6.557
  17.360         49.17	     7.681
  17.380         39.17	     6.856
  17.400         49.17	     7.681
  17.420         32.50	     6.245
  17.440         46.67	     7.483
  17.460         44.17	     7.280
  17.480         31.67	     6.164
  17.500         33.33	     6.325
  17.520         35.83	     6.557
  17.540         48.33	     7.616
  17.560         40.00	     6.928
  17.580         36.67	     6.633
  17.600         38.33	     6.782
  17.620         44.17	     7.280
  17.640         51.67	     7.874
  17.660         46.67	     7.483
  17.680         53.33	     8.000
  17.700         50.00	     7.746
  17.720         75.00	     9.487
  17.740         83.33	    10.000
  17.760         70.83	     9.220
  17.780         95.00	    10.677
  17.800        127.50	    12.369
  17.820        143.33	    13.115
  17.840        179.17	    14.663
  17.860        159.17	    13.820
  17.880        138.33	    12.884
  17.900        120.00	    12.000
  17.920        101.67	    11.045
  17.940         65.00	     8.832
  17.960         45.00	     7.348
  17.980         49.17	     7.681
  18.000         42.50	     7.141
  18.020         41.67	     7.071
  18.040         41.67	     7.071
  18.060         37.50	     6.708
  18.080         45.83	     7.416
  18.100         50.00	     7.746
  18.120         51.67	     7.874
  18.140         44.17	     7.280
  18.160         28.33	     5.831
  18.180         50.00	     7.746
  18.200         38.33	     6.782
  18.220         50.00	     7.746
  18.240         44.17	     7.280
  18.260         36.67	     6.633
  18.280         37.50	     6.708
  18.300         34.17	     6.403
  18.320         30.00	     6.000
  18.340         45.00	     7.348
  18.360         45.83	     7.416
  18.380         35.00	     6.481
  18.400         48.33	     7.616
  18.420         49.17	     7.681
  18.440         48.33	     7.616
  18.460         43.33	     7.211
  18.480         48.33	     7.616
  18.500         51.67	     7.874
  18.520         61.67	     8.602
  18.540         75.00	     9.487
  18.560         76.67	     9.592
  18.580         89.17	    10.344
  18.600        104.17	    11.180
  18.620         76.67	     9.592
  18.640         92.50	    10.536
  18.660         80.83	     9.849
  18.680         62.50	     8.660
  18.700         65.83	     8.888
  18.720         74.17	     9.434
  18.740         84.17	    10.050
  18.760         95.00	    10.677
  18.780        132.50	    12.610
  18.800        166.67	    14.142
  18.820        180.83	    14.731
  18.840        182.50	    14.799
  18.860        160.00	    13.856
  18.880        127.50	    12.369
  18.900         85.00	    10.100
  18.920         61.67	     8.602
  18.940         60.00	     8.485
  18.960         66.67	     8.944
  18.980         66.67	     8.944
  19.000         52.50	     7.937
  19.020         52.50	     7.937
  19.040         55.00	     8.124
  19.060         48.33	     7.616
  19.080         34.17	     6.403
  19.100         35.83	     6.557
  19.120         38.33	     6.782
  19.140         35.83	     6.557
  19.160         42.50	     7.141
  19.180         55.00	     8.124
  19.200         50.00	     7.746
  19.220         44.17	     7.280
  19.240         55.83	     8.185
  19.260         56.67	     8.246
  19.280         54.17	     8.062
  19.300         50.00	     7.746
  19.320         41.67	     7.071
  19.340         47.50	     7.550
  19.360         40.83	     7.000
  19.380         35.00	     6.481
  19.400         39.17	     6.856
  19.420         38.33	     6.782
  19.440         40.83	     7.000
  19.460         50.00	     7.746
  19.480         56.67	     8.246
  19.500         35.83	     6.557
  19.520         59.17	     8.426
  19.540         58.33	     8.367
  19.560         53.33	     8.000
  19.580         45.83	     7.416
  19.600         42.50	     7.141
  19.620         57.50	     8.307
  19.640         48.33	     7.616
  19.660         65.83	     8.888
  19.680         61.67	     8.602
  19.700         67.50	     9.000
  19.720         59.17	     8.426
  19.740         74.17	     9.434
  19.760         67.50	     9.000
  19.780         60.00	     8.485
  19.800         60.00	     8.485
  19.820         40.83	     7.000
  19.840         68.33	     9.055
  19.860         60.00	     8.485
  19.880         75.00	     9.487
  19.900         60.83	     8.544
  19.920         60.00	     8.485
  19.940         69.17	     9.110
  19.960         63.33	     8.718
  19.980         64.17	     8.775
  20.000         58.33	     8.367
  20.020         35.83	     6.557
  20.040         38.33	     6.782
  20.060         45.83	     7.416
  20.080         40.00	     6.928
  20.100         35.83	     6.557
  20.120         51.67	     7.874
  20.140         49.17	     7.681
  20.160         40.83	     7.000
  20.180         45.00	     7.348
  20.200         43.33	     7.211
  20.220         46.67	     7.483
  20.240         36.67	     6.633
  20.260         48.33	     7.616
  20.280         35.83	     6.557
  20.300         43.33	     7.211
  20.320         40.83	     7.000
  20.340         42.50	     7.141
  20.360         50.00	     7.746
  20.380         25.83	     5.568
  20.400         36.67	     6.633
  20.420         50.00	     7.746
  20.440         39.17	     6.856
  20.460         36.67	     6.633
  20.480         42.50	     7.141
  20.500         39.17	     6.856
  20.520         39.17	     6.856
  20.540         46.67	     7.483
  20.560         39.17	     6.856
  20.580         48.33	     7.616
  20.600         49.17	     7.681
  20.620         42.50	     7.141
  20.640         39.17	     6.856
  20.660         53.33	     8.000
  20.680         45.00	     7.348
  20.700         50.83	     7.810
  20.720         46.67	     7.483
  20.740         54.17	     8.062
  20.760         45.83	     7.416
  20.780         81.67	     9.899
  20.800         92.50	    10.536
  20.820        108.33	    11.402
  20.840        185.00	    14.900
  20.860        287.50	    18.574
  20.880        357.50	    20.712
  20.900        350.00	    20.494
  20.920        297.50	    18.894
  20.940        224.17	    16.401
  20.960        144.17	    13.153
  20.980        109.17	    11.446
  21.000         96.67	    10.770
  21.020         84.17	    10.050
  21.040         83.33	    10.000
  21.060         84.17	    10.050
  21.080         71.67	     9.274
  21.100         57.50	     8.307
  21.120         52.50	     7.937
  21.140         44.17	     7.280
  21.160         51.67	     7.874
  21.180         46.67	     7.483
  21.200         51.67	     7.874
  21.220         51.67	     7.874
  21.240         31.67	     6.164
  21.260         48.33	     7.616
  21.280         47.50	     7.550
  21.300         45.00	     7.348
  21.320         43.33	     7.211
  21.340         44.17	     7.280
  21.360         46.67	     7.483
  21.380         33.33	     6.325
  21.400         30.83	     6.083
  21.420         35.00	     6.481
  21.440         44.17	     7.280
  21.460         24.17	     5.385
  21.480         45.00	     7.348
  21.500         53.33	     8.000
  21.520         42.50	     7.141
  21.540         41.67	     7.071
  21.560         39.17	     6.856
  21.580         52.50	     7.937
  21.600         42.50	     7.141
  21.620         41.67	     7.071
  21.640         40.83	     7.000
  21.660         40.83	     7.000
  21.680         38.33	     6.782
  21.700         45.00	     7.348
  21.720         40.83	     7.000
  21.740         47.50	     7.550
  21.760         38.33	     6.782
  21.780         38.33	     6.782
  21.800         35.83	     6.557
  21.820         40.00	     6.928
  21.840         50.83	     7.810
  21.860         40.00	     6.928
  21.880         44.17	     7.280
  21.900         47.50	     7.550
  21.920         44.17	     7.280
  21.940         56.67	     8.246
  21.960         60.83	     8.544
  21.980         85.00	    10.100
  22.000         92.50	    10.536
  22.020        165.83	    14.107
  22.040        210.83	    15.906
  22.060        264.17	    17.804
  22.080        275.83	    18.193
  22.100        213.33	    16.000
  22.120        180.83	    14.731
  22.140        115.00	    11.747
  22.160         95.00	    10.677
  22.180         66.67	     8.944
  22.200         49.17	     7.681
  22.220         55.83	     8.185
  22.240         59.17	     8.426
  22.260         40.00	     6.928
  22.280         51.67	     7.874
  22.300         65.83	     8.888
  22.320         61.67	     8.602
  22.340         88.33	    10.296
  22.360         50.00	     7.746
  22.380         67.50	     9.000
  22.400         45.83	     7.416
  22.420         44.17	     7.280
  22.440         40.00	     6.928
  22.460         52.50	     7.937
  22.480         42.50	     7.141
  22.500         43.33	     7.211
  22.520         61.67	     8.602
  22.540         52.50	     7.937
  22.560         39.17	     6.856
  22.580         51.67	     7.874
  22.600         44.17	     7.280
  22.620         50.00	     7.746
  22.640         64.17	     8.775
  22.660         50.00	     7.746
  22.680         45.00	     7.348
  22.700         36.67	     6.633
  22.720         40.00	     6.928
  22.740         41.67	     7.071
  22.760         40.00	     6.928
  22.780         47.50	     7.550
  22.800         39.17	     6.856
  22.820         52.50	     7.937
  22.840         43.33	     7.211
  22.860         67.50	     9.000
  22.880         66.67	     8.944
  22.900         66.67	     8.944
  22.920         79.17	     9.747
  22.940         78.33	     9.695
  22.960         67.50	     9.000
  22.980         66.67	     8.944
  23.000         61.67	     8.602
  23.020         81.67	     9.899
  23.040         90.00	    10.392
  23.060         84.17	    10.050
  23.080         88.33	    10.296
  23.100        113.33	    11.662
  23.120         70.00	     9.165
  23.140         66.67	     8.944
  23.160         57.50	     8.307
  23.180         55.00	     8.124
  23.200         47.50	     7.550
  23.220         45.00	     7.348
  23.240         55.83	     8.185
  23.260         46.67	     7.483
  23.280         45.83	     7.416
  23.300         50.83	     7.810
  23.320         55.83	     8.185
  23.340         46.67	     7.483
  23.360         47.50	     7.550
  23.380         43.33	     7.211
  23.400         48.33	     7.616
  23.420         52.50	     7.937
  23.440         53.33	     8.000
  23.460         60.83	     8.544
  23.480         66.67	     8.944
  23.500         88.33	    10.296
  23.520        100.83	    11.000
  23.540        121.67	    12.083
  23.560        186.67	    14.967
  23.580        188.33	    15.033
  23.600        170.83	    14.318
  23.620        142.50	    13.077
  23.640        125.83	    12.288
  23.660         92.50	    10.536
  23.680        100.00	    10.954
  23.700         81.67	     9.899
  23.720         70.00	     9.165
  23.740         67.50	     9.000
  23.760         76.67	     9.592
  23.780         66.67	     8.944
  23.800         69.17	     9.110
  23.820         96.67	    10.770
  23.840         78.33	     9.695
  23.860         76.67	     9.592
  23.880         75.83	     9.539
  23.900         72.50	     9.327
  23.920         58.33	     8.367
  23.940         65.83	     8.888
  23.960         54.17	     8.062
  23.980         61.67	     8.602
  24.000         73.33	     9.381
  24.020         70.00	     9.165
  24.040         71.67	     9.274
  24.060         86.67	    10.198
  24.080         75.00	     9.487
  24.100         70.00	     9.165
  24.120         78.33	     9.695
  24.140         69.17	     9.110
  24.160        115.83	    11.790
  24.180        156.67	    13.711
  24.200        175.83	    14.526
  24.220        136.67	    12.806
  24.240        136.67	    12.806
  24.260        188.33	    15.033
  24.280        307.50	    19.209
  24.300        482.50	    24.062
  24.320        354.17	    20.616
  24.340        235.83	    16.823
  24.360        324.17	    19.723
  24.380        241.67	    17.029
  24.400        113.33	    11.662
  24.420         90.83	    10.440
  24.440         69.17	     9.110
  24.460         78.33	     9.695
  24.480         92.50	    10.536
  24.500        127.50	    12.369
  24.520        125.83	    12.288
  24.540        152.50	    13.528
  24.560        220.00	    16.248
  24.580        292.50	    18.735
  24.600        334.17	    20.025
  24.620        387.50	    21.564
  24.640        363.33	    20.881
  24.660        352.50	    20.567
  24.680        351.67	    20.543
  24.700        269.17	    17.972
  24.720        270.83	    18.028
  24.740        198.33	    15.427
  24.760        187.50	    15.000
  24.780        165.83	    14.107
  24.800        147.50	    13.304
  24.820        147.50	    13.304
  24.840        152.50	    13.528
  24.860        154.17	    13.601
  24.880        131.67	    12.570
  24.900        129.17	    12.450
  24.920        130.83	    12.530
  24.940        125.00	    12.247
  24.960        110.00	    11.489
  24.980        104.17	    11.180
  25.000         94.17	    10.630
  25.020        107.50	    11.358
  25.040        102.50	    11.091
  25.060        134.17	    12.689
  25.080        135.83	    12.767
  25.100        192.50	    15.199
  25.120        229.17	    16.583
  25.140        293.33	    18.762
  25.160        330.83	    19.925
  25.180        322.50	    19.672
  25.200        300.00	    18.974
  25.220        285.00	    18.493
  25.240        207.50	    15.780
  25.260        189.17	    15.067
  25.280        133.33	    12.649
  25.300        112.50	    11.619
  25.320        106.67	    11.314
  25.340         93.33	    10.583
  25.360         95.00	    10.677
  25.380         98.33	    10.863
  25.400        107.50	    11.358
  25.420        122.50	    12.124
  25.440        124.17	    12.207
  25.460        134.17	    12.689
  25.480        128.33	    12.410
  25.500        167.50	    14.177
  25.520        198.33	    15.427
  25.540        167.50	    14.177
  25.560        166.67	    14.142
  25.580        162.50	    13.964
  25.600        139.17	    12.923
  25.620        118.33	    11.916
  25.640        120.83	    12.042
  25.660         95.00	    10.677
  25.680        119.17	    11.958
  25.700         98.33	    10.863
  25.720         80.00	     9.798
  25.740         77.50	     9.644
  25.760         85.83	    10.149
  25.780         79.17	     9.747
  25.800         70.83	     9.220
  25.820         56.67	     8.246
  25.840         56.67	     8.246
  25.860         38.33	     6.782
  25.880         62.50	     8.660
  25.900         50.83	     7.810
  25.920         70.83	     9.220
  25.940         41.67	     7.071
  25.960         69.17	     9.110
  25.980         60.83	     8.544
  26.000         49.17	     7.681
  26.020         65.83	     8.888
  26.040         55.83	     8.185
  26.060         52.50	     7.937
  26.080         56.67	     8.246
  26.100         55.00	     8.124
  26.120         64.17	     8.775
  26.140         59.17	     8.426
  26.160         64.17	     8.775
  26.180         72.50	     9.327
  26.200         65.83	     8.888
  26.220         65.83	     8.888
  26.240         67.50	     9.000
  26.260         65.00	     8.832
  26.280         73.33	     9.381
  26.300         87.50	    10.247
  26.320         97.50	    10.817
  26.340        115.00	    11.747
  26.360         95.83	    10.724
  26.380        116.67	    11.832
  26.400        147.50	    13.304
  26.420        166.67	    14.142
  26.440        162.50	    13.964
  26.460        180.83	    14.731
  26.480        183.33	    14.832
  26.500        210.83	    15.906
  26.520        221.67	    16.310
  26.540        212.50	    15.969
  26.560        251.67	    17.378
  26.580        315.00	    19.442
  26.600        525.83	    25.120
  26.620        926.67	    33.347
  26.640       1596.67	    43.772
  26.660       2085.00	    50.020
  26.680       2168.33	    51.010
  26.700       1795.00	    46.411
  26.720       1564.17	    43.324
  26.740       1330.00	    39.950
  26.760        977.50	    34.249
  26.780        603.33	    26.907
  26.800        402.50	    21.977
  26.820        366.67	    20.976
  26.840        423.33	    22.539
  26.860        502.50	    24.556
  26.880        518.33	    24.940
  26.900        548.33	    25.652
  26.920        581.67	    26.420
  26.940        476.67	    23.917
  26.960        372.50	    21.142
  26.980        315.83	    19.468
  27.000        230.00	    16.613
  27.020        179.17	    14.663
  27.040        137.50	    12.845
  27.060        135.00	    12.728
  27.080        184.17	    14.866
  27.100        178.33	    14.629
  27.120        143.33	    13.115
  27.140        102.50	    11.091
  27.160        133.33	    12.649
  27.180        111.67	    11.576
  27.200         91.67	    10.488
  27.220        100.00	    10.954
  27.240         92.50	    10.536
  27.260         81.67	     9.899
  27.280        100.00	    10.954
  27.300         63.33	     8.718
  27.320         91.67	    10.488
  27.340         81.67	     9.899
  27.360         87.50	    10.247
  27.380         81.67	     9.899
  27.400         86.67	    10.198
  27.420         90.83	    10.440
  27.440        140.83	    13.000
  27.460        125.83	    12.288
  27.480        150.00	    13.416
  27.500        190.00	    15.100
  27.520        183.33	    14.832
  27.540        180.00	    14.697
  27.560        165.83	    14.107
  27.580        159.17	    13.820
  27.600        141.67	    13.038
  27.620        126.67	    12.329
  27.640        110.83	    11.533
  27.660         85.83	    10.149
  27.680        112.50	    11.619
  27.700        126.67	    12.329
  27.720        158.33	    13.784
  27.740        184.17	    14.866
  27.760        216.67	    16.125
  27.780        248.33	    17.263
  27.800        228.33	    16.553
  27.820        219.17	    16.217
  27.840        219.17	    16.217
  27.860        234.17	    16.763
  27.880        252.50	    17.407
  27.900        308.33	    19.235
  27.920        401.67	    21.954
  27.940        485.00	    24.125
  27.960        391.67	    21.679
  27.980        412.50	    22.249
  28.000        415.83	    22.338
  28.020        295.00	    18.815
  28.040        230.00	    16.613
  28.060        187.50	    15.000
  28.080        145.00	    13.191
  28.100        138.33	    12.884
  28.120        122.50	    12.124
  28.140        118.33	    11.916
  28.160        111.67	    11.576
  28.180        112.50	    11.619
  28.200         98.33	    10.863
  28.220        102.50	    11.091
  28.240         90.83	    10.440
  28.260         90.83	    10.440
  28.280         99.17	    10.909
  28.300         85.00	    10.100
  28.320        125.00	    12.247
  28.340        108.33	    11.402
  28.360         93.33	    10.583
  28.380        100.00	    10.954
  28.400         90.83	    10.440
  28.420         83.33	    10.000
  28.440         70.00	     9.165
  28.460         70.00	     9.165
  28.480         65.83	     8.888
  28.500         83.33	    10.000
  28.520         89.17	    10.344
  28.540        110.83	    11.533
  28.560        117.50	    11.874
  28.580        139.17	    12.923
  28.600        144.17	    13.153
  28.620        152.50	    13.528
  28.640        137.50	    12.845
  28.660        167.50	    14.177
  28.680        130.83	    12.530
  28.700        160.00	    13.856
  28.720        130.83	    12.530
  28.740        138.33	    12.884
  28.760        103.33	    11.136
  28.780        109.17	    11.446
  28.800         86.67	    10.198
  28.820         81.67	     9.899
  28.840         76.67	     9.592
  28.860         66.67	     8.944
  28.880         68.33	     9.055
  28.900         63.33	     8.718
  28.920         51.67	     7.874
  28.940         55.00	     8.124
  28.960         48.33	     7.616
  28.980         40.00	     6.928
  29.000         36.67	     6.633
  29.020         51.67	     7.874
  29.040         42.50	     7.141
  29.060         45.00	     7.348
  29.080         40.00	     6.928
  29.100         39.17	     6.856
  29.120         43.33	     7.211
  29.140         35.83	     6.557
  29.160         37.50	     6.708
  29.180         35.83	     6.557
  29.200         32.50	     6.245
  29.220         41.67	     7.071
  29.240         31.67	     6.164
  29.260         31.67	     6.164
  29.280         38.33	     6.782
  29.300         27.50	     5.745
  29.320         30.83	     6.083
  29.340         38.33	     6.782
  29.360         38.33	     6.782
  29.380         37.50	     6.708
  29.400         40.83	     7.000
  29.420         43.33	     7.211
  29.440         31.67	     6.164
  29.460         35.83	     6.557
  29.480         35.00	     6.481
  29.500         50.83	     7.810
  29.520         38.33	     6.782
  29.540         40.00	     6.928
  29.560         42.50	     7.141
  29.580         39.17	     6.856
  29.600         55.00	     8.124
  29.620         55.00	     8.124
  29.640         48.33	     7.616
  29.660         48.33	     7.616
  29.680         45.83	     7.416
  29.700         46.67	     7.483
  29.720         55.00	     8.124
  29.740         58.33	     8.367
  29.760         70.00	     9.165
  29.780         65.83	     8.888
  29.800         92.50	    10.536
  29.820        117.50	    11.874
  29.840        202.50	    15.588
  29.860        230.00	    16.613
  29.880        217.50	    16.155
  29.900        190.00	    15.100
  29.920        209.17	    15.843
  29.940        190.00	    15.100
  29.960        158.33	    13.784
  29.980        148.33	    13.342
  30.000        135.00	    12.728
  30.020        111.67	    11.576
  30.040        100.83	    11.000
  30.060        105.83	    11.269
  30.080         70.83	     9.220
  30.100         76.67	     9.592
  30.120         81.67	     9.899
  30.140         89.17	    10.344
  30.160         66.67	     8.944
  30.180         78.33	     9.695
  30.200         93.33	    10.583
  30.220        107.50	    11.358
  30.240        104.17	    11.180
  30.260         94.17	    10.630
  30.280        114.17	    11.705
  30.300         90.83	    10.440
  30.320        100.00	    10.954
  30.340         75.83	     9.539
  30.360         97.50	    10.817
  30.380        106.67	    11.314
  30.400         95.00	    10.677
  30.420         94.17	    10.630
  30.440        102.50	    11.091
  30.460         89.17	    10.344
  30.480         92.50	    10.536
  30.500         93.33	    10.583
  30.520        111.67	    11.576
  30.540         90.83	    10.440
  30.560         81.67	     9.899
  30.580         75.83	     9.539
  30.600         64.17	     8.775
  30.620         83.33	    10.000
  30.640         59.17	     8.426
  30.660         49.17	     7.681
  30.680         59.17	     8.426
  30.700         49.17	     7.681
  30.720         50.00	     7.746
  30.740         55.83	     8.185
  30.760         59.17	     8.426
  30.780         57.50	     8.307
  30.800         58.33	     8.367
  30.820         90.83	    10.440
  30.840         89.17	    10.344
  30.860        121.67	    12.083
  30.880        158.33	    13.784
  30.900        169.17	    14.248
  30.920        190.00	    15.100
  30.940        125.83	    12.288
  30.960        111.67	    11.576
  30.980        123.33	    12.166
  31.000         76.67	     9.592
  31.020         79.17	     9.747
  31.040         60.83	     8.544
  31.060         65.00	     8.832
  31.080         56.67	     8.246
  31.100         62.50	     8.660
  31.120         68.33	     9.055
  31.140         65.83	     8.888
  31.160         78.33	     9.695
  31.180         81.67	     9.899
  31.200         97.50	    10.817
  31.220         91.67	    10.488
  31.240        126.67	    12.329
  31.260        133.33	    12.649
  31.280        124.17	    12.207
  31.300        132.50	    12.610
  31.320        105.83	    11.269
  31.340        120.83	    12.042
  31.360         98.33	    10.863
  31.380         81.67	     9.899
  31.400         77.50	     9.644
  31.420         75.83	     9.539
  31.440         69.17	     9.110
  31.460         66.67	     8.944
  31.480         58.33	     8.367
  31.500         55.00	     8.124
  31.520         75.83	     9.539
  31.540         78.33	     9.695
  31.560        110.00	    11.489
  31.580        106.67	    11.314
  31.600        101.67	    11.045
  31.620         90.83	    10.440
  31.640         80.83	     9.849
  31.660         70.00	     9.165
  31.680         56.67	     8.246
  31.700         74.17	     9.434
  31.720         65.00	     8.832
  31.740         60.83	     8.544
  31.760         50.83	     7.810
  31.780         55.83	     8.185
  31.800         69.17	     9.110
  31.820         70.00	     9.165
  31.840         75.00	     9.487
  31.860         74.17	     9.434
  31.880         52.50	     7.937
  31.900         84.17	    10.050
  31.920         74.17	     9.434
  31.940         59.17	     8.426
  31.960         59.17	     8.426
  31.980         50.83	     7.810
  32.000         60.00	     8.485
  32.020         58.33	     8.367
  32.040         65.00	     8.832
  32.060         69.17	     9.110
  32.080         58.33	     8.367
  32.100         75.00	     9.487
  32.120         85.00	    10.100
  32.140         71.67	     9.274
  32.160         75.00	     9.487
  32.180         55.83	     8.185
  32.200         63.33	     8.718
  32.220         58.33	     8.367
  32.240         61.67	     8.602
  32.260         69.17	     9.110
  32.280         79.17	     9.747
  32.300         69.17	     9.110
  32.320         67.50	     9.000
  32.340         52.50	     7.937
  32.360         67.50	     9.000
  32.380         64.17	     8.775
  32.400         44.17	     7.280
  32.420         48.33	     7.616
  32.440         43.33	     7.211
  32.460         40.83	     7.000
  32.480         35.83	     6.557
  32.500         35.00	     6.481
  32.520         40.83	     7.000
  32.540         37.50	     6.708
  32.560         40.00	     6.928
  32.580         28.33	     5.831
  32.600         31.67	     6.164
  32.620         29.17	     5.916
  32.640         38.33	     6.782
  32.660         34.17	     6.403
  32.680         26.67	     5.657
  32.700         35.00	     6.481
  32.720         27.50	     5.745
  32.740         44.17	     7.280
  32.760         33.33	     6.325
  32.780         38.33	     6.782
  32.800         47.50	     7.550
  32.820         48.33	     7.616
  32.840         44.17	     7.280
  32.860         41.67	     7.071
  32.880         41.67	     7.071
  32.900         40.83	     7.000
  32.920         43.33	     7.211
  32.940         35.00	     6.481
  32.960         34.17	     6.403
  32.980         36.67	     6.633
  33.000         47.50	     7.550
  33.020         52.50	     7.937
  33.040         51.67	     7.874
  33.060         55.83	     8.185
  33.080         62.50	     8.660
  33.100         72.50	     9.327
  33.120         85.83	    10.149
  33.140         70.00	     9.165
  33.160         61.67	     8.602
  33.180         55.00	     8.124
  33.200         57.50	     8.307
  33.220         55.83	     8.185
  33.240         48.33	     7.616
  33.260         52.50	     7.937
  33.280         43.33	     7.211
  33.300         30.00	     6.000
  33.320         41.67	     7.071
  33.340         42.50	     7.141
  33.360         54.17	     8.062
  33.380         49.17	     7.681
  33.400         41.67	     7.071
  33.420         38.33	     6.782
  33.440         32.50	     6.245
  33.460         32.50	     6.245
  33.480         31.67	     6.164
  33.500         37.50	     6.708
  33.520         57.50	     8.307
  33.540         47.50	     7.550
  33.560         37.50	     6.708
  33.580         34.17	     6.403
  33.600         35.83	     6.557
  33.620         31.67	     6.164
  33.640         40.00	     6.928
  33.660         33.33	     6.325
  33.680         38.33	     6.782
  33.700         37.50	     6.708
  33.720         35.00	     6.481
  33.740         45.83	     7.416
  33.760         42.50	     7.141
  33.780         36.67	     6.633
  33.800         45.83	     7.416
  33.820         44.17	     7.280
  33.840         27.50	     5.745
  33.860         32.50	     6.245
  33.880         45.00	     7.348
  33.900         44.17	     7.280
  33.920         52.50	     7.937
  33.940         45.83	     7.416
  33.960         43.33	     7.211
  33.980         47.50	     7.550
  34.000         37.50	     6.708
  34.020         55.00	     8.124
  34.040         47.50	     7.550
  34.060         50.00	     7.746
  34.080         41.67	     7.071
  34.100         44.17	     7.280
  34.120         54.17	     8.062
  34.140         38.33	     6.782
  34.160         43.33	     7.211
  34.180         46.67	     7.483
  34.200         45.00	     7.348
  34.220         43.33	     7.211
  34.240         55.00	     8.124
  34.260         51.67	     7.874
  34.280         50.00	     7.746
  34.300         54.17	     8.062
  34.320         61.67	     8.602
  34.340         56.67	     8.246
  34.360         50.00	     7.746
  34.380         59.17	     8.426
  34.400         60.00	     8.485
  34.420         57.50	     8.307
  34.440         63.33	     8.718
  34.460         52.50	     7.937
  34.480         61.67	     8.602
  34.500         71.67	     9.274
  34.520         75.00	     9.487
  34.540         70.83	     9.220
  34.560         78.33	     9.695
  34.580         86.67	    10.198
  34.600        106.67	    11.314
  34.620        115.00	    11.747
  34.640         89.17	    10.344
  34.660         78.33	     9.695
  34.680         90.83	    10.440
  34.700         85.83	    10.149
  34.720         83.33	    10.000
  34.740         76.67	     9.592
  34.760         70.00	     9.165
  34.780         61.67	     8.602
  34.800         71.67	     9.274
  34.820         82.50	     9.950
  34.840         77.50	     9.644
  34.860         72.50	     9.327
  34.880         78.33	     9.695
  34.900         70.83	     9.220
  34.920         81.67	     9.899
  34.940         87.50	    10.247
  34.960         85.00	    10.100
  34.980         92.50	    10.536
  35.000        101.67	    11.045
  35.020        117.50	    11.874
  35.040         85.00	    10.100
  35.060         87.50	    10.247
  35.080         85.83	    10.149
  35.100         89.17	    10.344
  35.120         90.83	    10.440
  35.140         72.50	     9.327
  35.160         67.50	     9.000
  35.180         76.67	     9.592
  35.200         89.17	    10.344
  35.220         74.17	     9.434
  35.240         75.00	     9.487
  35.260         69.17	     9.110
  35.280         63.33	     8.718
  35.300         69.17	     9.110
  35.320         70.83	     9.220
  35.340         68.33	     9.055
  35.360         73.33	     9.381
  35.380         83.33	    10.000
  35.400         72.50	     9.327
  35.420         71.67	     9.274
  35.440         97.50	    10.817
  35.460        100.83	    11.000
  35.480        102.50	    11.091
  35.500        119.17	    11.958
  35.520        114.17	    11.705
  35.540        131.67	    12.570
  35.560        159.17	    13.820
  35.580        134.17	    12.689
  35.600        132.50	    12.610
  35.620        127.50	    12.369
  35.640        130.00	    12.490
  35.660        135.00	    12.728
  35.680        135.83	    12.767
  35.700         99.17	    10.909
  35.720         79.17	     9.747
  35.740         84.17	    10.050
  35.760         72.50	     9.327
  35.780         60.83	     8.544
  35.800         62.50	     8.660
  35.820         55.83	     8.185
  35.840         66.67	     8.944
  35.860         67.50	     9.000
  35.880         48.33	     7.616
  35.900         62.50	     8.660
  35.920         51.67	     7.874
  35.940         56.67	     8.246
  35.960         55.00	     8.124
  35.980         52.50	     7.937
  36.000         61.67	     8.602
  36.020         56.67	     8.246
  36.040         67.50	     9.000
  36.060         69.17	     9.110
  36.080         94.17	    10.630
  36.100         89.17	    10.344
  36.120         73.33	     9.381
  36.140         81.67	     9.899
  36.160         80.00	     9.798
  36.180         73.33	     9.381
  36.200         65.00	     8.832
  36.220         61.67	     8.602
  36.240         56.67	     8.246
  36.260         46.67	     7.483
  36.280         50.83	     7.810
  36.300         55.00	     8.124
  36.320         50.00	     7.746
  36.340         55.83	     8.185
  36.360         44.17	     7.280
  36.380         51.67	     7.874
  36.400         57.50	     8.307
  36.420         52.50	     7.937
  36.440         54.17	     8.062
  36.460         72.50	     9.327
  36.480         91.67	    10.488
  36.500        141.67	    13.038
  36.520        195.00	    15.297
  36.540        275.00	    18.166
  36.560        380.00	    21.354
  36.580        358.33	    20.736
  36.600        292.50	    18.735
  36.620        224.17	    16.401
  36.640        238.33	    16.912
  36.660        246.67	    17.205
  36.680        209.17	    15.843
  36.700        153.33	    13.565
  36.720        122.50	    12.124
  36.740        105.83	    11.269
  36.760         90.83	    10.440
  36.780         85.83	    10.149
  36.800         79.17	     9.747
  36.820         67.50	     9.000
  36.840         71.67	     9.274
  36.860         67.50	     9.000
  36.880         56.67	     8.246
  36.900         55.00	     8.124
  36.920         50.00	     7.746
  36.940         57.50	     8.307
  36.960         55.83	     8.185
  36.980         54.17	     8.062
  37.000         59.17	     8.426
  37.020         41.67	     7.071
  37.040         45.83	     7.416
  37.060         47.50	     7.550
  37.080         37.50	     6.708
  37.100         48.33	     7.616
  37.120         63.33	     8.718
  37.140         59.17	     8.426
  37.160         62.50	     8.660
  37.180         49.17	     7.681
  37.200         53.33	     8.000
  37.220         49.17	     7.681
  37.240         63.33	     8.718
  37.260         54.17	     8.062
  37.280         65.00	     8.832
  37.300         49.17	     7.681
  37.320         65.83	     8.888
  37.340         75.00	     9.487
  37.360         60.00	     8.485
  37.380         59.17	     8.426
  37.400         54.17	     8.062
  37.420         65.83	     8.888
  37.440         92.50	    10.536
  37.460         93.33	    10.583
  37.480         79.17	     9.747
  37.500         71.67	     9.274
  37.520         59.17	     8.426
  37.540         58.33	     8.367
  37.560         65.00	     8.832
  37.580         60.00	     8.485
  37.600         75.00	     9.487
  37.620         66.67	     8.944
  37.640         55.00	     8.124
  37.660         85.00	    10.100
  37.680        110.83	    11.533
  37.700        123.33	    12.166
  37.720        165.00	    14.071
  37.740        110.83	    11.533
  37.760         96.67	    10.770
  37.780         90.00	    10.392
  37.800         90.83	    10.440
  37.820        115.83	    11.790
  37.840         82.50	     9.950
  37.860         55.00	     8.124
  37.880         64.17	     8.775
  37.900         50.83	     7.810
  37.920         50.00	     7.746
  37.940         46.67	     7.483
  37.960         45.00	     7.348
  37.980         38.33	     6.782
  38.000         45.83	     7.416
  38.020         46.67	     7.483
  38.040         58.33	     8.367
  38.060         43.33	     7.211
  38.080         42.50	     7.141
  38.100         44.17	     7.280
  38.120         42.50	     7.141
  38.140         41.67	     7.071
  38.160         40.00	     6.928
  38.180         45.00	     7.348
  38.200         58.33	     8.367
  38.220         50.00	     7.746
  38.240         40.00	     6.928
  38.260         50.83	     7.810
  38.280         38.33	     6.782
  38.300         26.67	     5.657
  38.320         45.83	     7.416
  38.340         32.50	     6.245
  38.360         33.33	     6.325
  38.380         34.17	     6.403
  38.400         41.67	     7.071
  38.420         39.17	     6.856
  38.440         38.33	     6.782
  38.460         32.50	     6.245
  38.480         45.83	     7.416
  38.500         48.33	     7.616
  38.520         63.33	     8.718
  38.540         45.83	     7.416
  38.560         57.50	     8.307
  38.580         60.00	     8.485
  38.600         43.33	     7.211
  38.620         57.50	     8.307
  38.640         45.00	     7.348
  38.660         64.17	     8.775
  38.680         71.67	     9.274
  38.700         47.50	     7.550
  38.720         42.50	     7.141
  38.740         49.17	     7.681
  38.760         52.50	     7.937
  38.780         55.83	     8.185
  38.800         63.33	     8.718
  38.820         65.00	     8.832
  38.840         64.17	     8.775
  38.860         68.33	     9.055
  38.880         65.00	     8.832
  38.900         82.50	     9.950
  38.920         51.67	     7.874
  38.940         64.17	     8.775
  38.960         56.67	     8.246
  38.980         50.00	     7.746
  39.000         54.17	     8.062
  39.020         54.17	     8.062
  39.040         49.17	     7.681
  39.060         41.67	     7.071
  39.080         50.00	     7.746
  39.100         39.17	     6.856
  39.120         45.83	     7.416
  39.140         40.83	     7.000
  39.160         30.83	     6.083
  39.180         38.33	     6.782
  39.200         46.67	     7.483
  39.220         36.67	     6.633
  39.240         36.67	     6.633
  39.260         30.00	     6.000
  39.280         31.67	     6.164
  39.300         28.33	     5.831
  39.320         21.67	     5.099
  39.340         43.33	     7.211
  39.360         50.83	     7.810
  39.380         47.50	     7.550
  39.400         59.17	     8.426
  39.420         75.83	     9.539
  39.440        106.67	    11.314
  39.460        113.33	    11.662
  39.480        151.67	    13.491
  39.500        149.17	    13.379
  39.520        148.33	    13.342
  39.540        101.67	    11.045
  39.560         84.17	    10.050
  39.580        112.50	    11.619
  39.600        140.00	    12.961
  39.620        115.00	    11.747
  39.640        109.17	    11.446
  39.660         64.17	     8.775
  39.680         69.17	     9.110
  39.700         66.67	     8.944
  39.720         58.33	     8.367
  39.740         55.00	     8.124
  39.760         55.83	     8.185
  39.780         50.83	     7.810
  39.800         44.17	     7.280
  39.820         43.33	     7.211
  39.840         34.17	     6.403
  39.860         41.67	     7.071
  39.880         44.17	     7.280
  39.900         42.50	     7.141
  39.920         36.67	     6.633
  39.940         45.83	     7.416
  39.960         48.33	     7.616
  39.980         34.17	     6.403
  40.000         34.17	     6.403
  40.020         37.50	     6.708
  40.040         50.83	     7.810
  40.060         37.50	     6.708
  40.080         41.67	     7.071
  40.100         36.67	     6.633
  40.120         31.67	     6.164
  40.140         44.17	     7.280
  40.160         46.67	     7.483
  40.180         31.67	     6.164
  40.200         41.67	     7.071
  40.220         50.83	     7.810
  40.240         64.17	     8.775
  40.260         83.33	    10.000
  40.280         98.33	    10.863
  40.300        146.67	    13.266
  40.320        124.17	    12.207
  40.340         91.67	    10.488
  40.360         88.33	    10.296
  40.380        112.50	    11.619
  40.400         88.33	    10.296
  40.420        100.00	    10.954
  40.440         69.17	     9.110
  40.460         55.00	     8.124
  40.480         52.50	     7.937
  40.500         53.33	     8.000
  40.520         44.17	     7.280
  40.540         35.83	     6.557
  40.560         36.67	     6.633
  40.580         47.50	     7.550
  40.600         40.83	     7.000
  40.620         49.17	     7.681
  40.640         25.00	     5.477
  40.660         50.00	     7.746
  40.680         30.00	     6.000
  40.700         39.17	     6.856
  40.720         34.17	     6.403
  40.740         35.83	     6.557
  40.760         36.67	     6.633
  40.780         35.00	     6.481
  40.800         35.83	     6.557
  40.820         42.50	     7.141
  40.840         39.17	     6.856
  40.860         44.17	     7.280
  40.880         46.67	     7.483
  40.900         39.17	     6.856
  40.920         25.83	     5.568
  40.940         42.50	     7.141
  40.960         45.00	     7.348
  40.980         42.50	     7.141
  41.000         40.83	     7.000
  41.020         47.50	     7.550
  41.040         34.17	     6.403
  41.060         40.83	     7.000
  41.080         30.00	     6.000
  41.100         36.67	     6.633
  41.120         37.50	     6.708
  41.140         30.83	     6.083
  41.160         36.67	     6.633
  41.180         34.17	     6.403
  41.200         41.67	     7.071
  41.220         45.00	     7.348
  41.240         41.67	     7.071
  41.260         50.00	     7.746
  41.280         50.00	     7.746
  41.300         46.67	     7.483
  41.320         49.17	     7.681
  41.340         50.83	     7.810
  41.360         37.50	     6.708
  41.380         32.50	     6.245
  41.400         36.67	     6.633
  41.420         39.17	     6.856
  41.440         44.17	     7.280
  41.460         32.50	     6.245
  41.480         36.67	     6.633
  41.500         35.83	     6.557
  41.520         40.00	     6.928
  41.540         35.00	     6.481
  41.560         42.50	     7.141
  41.580         46.67	     7.483
  41.600         50.00	     7.746
  41.620         48.33	     7.616
  41.640         53.33	     8.000
  41.660         74.17	     9.434
  41.680         70.00	     9.165
  41.700         67.50	     9.000
  41.720         54.17	     8.062
  41.740         70.83	     9.220
  41.760         86.67	    10.198
  41.780         82.50	     9.950
  41.800         81.67	     9.899
  41.820         95.83	    10.724
  41.840         88.33	    10.296
  41.860         89.17	    10.344
  41.880         88.33	    10.296
  41.900         85.00	    10.100
  41.920         85.00	    10.100
  41.940         89.17	    10.344
  41.960         90.00	    10.392
  41.980        102.50	    11.091
  42.000         64.17	     8.775
  42.020         73.33	     9.381
  42.040         66.67	     8.944
  42.060         54.17	     8.062
  42.080         59.17	     8.426
  42.100         63.33	     8.718
  42.120         52.50	     7.937
  42.140         42.50	     7.141
  42.160         43.33	     7.211
  42.180         39.17	     6.856
  42.200         40.83	     7.000
  42.220         58.33	     8.367
  42.240         48.33	     7.616
  42.260         44.17	     7.280
  42.280         47.50	     7.550
  42.300         49.17	     7.681
  42.320         48.33	     7.616
  42.340         55.83	     8.185
  42.360         67.50	     9.000
  42.380         62.50	     8.660
  42.400         75.83	     9.539
  42.420        110.00	    11.489
  42.440        120.83	    12.042
  42.460        170.83	    14.318
  42.480        169.17	    14.248
  42.500        136.67	    12.806
  42.520        125.00	    12.247
  42.540        110.00	    11.489
  42.560        125.00	    12.247
  42.580        117.50	    11.874
  42.600        104.17	    11.180
  42.620         80.00	     9.798
  42.640         61.67	     8.602
  42.660         41.67	     7.071
  42.680         55.00	     8.124
  42.700         78.33	     9.695
  42.720         55.00	     8.124
  42.740         54.17	     8.062
  42.760         43.33	     7.211
  42.780         45.83	     7.416
  42.800         42.50	     7.141
  42.820         63.33	     8.718
  42.840         47.50	     7.550
  42.860         39.17	     6.856
  42.880         36.67	     6.633
  42.900         38.33	     6.782
  42.920         45.00	     7.348
  42.940         35.83	     6.557
  42.960         40.83	     7.000
  42.980         36.67	     6.633
  43.000         34.17	     6.403
  43.020         38.33	     6.782
  43.040         35.00	     6.481
  43.060         36.67	     6.633
  43.080         40.00	     6.928
  43.100         30.00	     6.000
  43.120         34.17	     6.403
  43.140         24.17	     5.385
  43.160         28.33	     5.831
  43.180         31.67	     6.164
  43.200         32.50	     6.245
  43.220         35.00	     6.481
  43.240         35.00	     6.481
  43.260         27.50	     5.745
  43.280         40.00	     6.928
  43.300         31.67	     6.164
  43.320         33.33	     6.325
  43.340         38.33	     6.782
  43.360         25.83	     5.568
  43.380         31.67	     6.164
  43.400         35.83	     6.557
  43.420         29.17	     5.916
  43.440         30.83	     6.083
  43.460         35.00	     6.481
  43.480         40.83	     7.000
  43.500         43.33	     7.211
  43.520         45.00	     7.348
  43.540         55.83	     8.185
  43.560         52.50	     7.937
  43.580         67.50	     9.000
  43.600         50.83	     7.810
  43.620         33.33	     6.325
  43.640         37.50	     6.708
  43.660         46.67	     7.483
  43.680         40.00	     6.928
  43.700         49.17	     7.681
  43.720         40.83	     7.000
  43.740         37.50	     6.708
  43.760         46.67	     7.483
  43.780         39.17	     6.856
  43.800         40.83	     7.000
  43.820         37.50	     6.708
  43.840         34.17	     6.403
  43.860         49.17	     7.681
  43.880         33.33	     6.325
  43.900         40.00	     6.928
  43.920         41.67	     7.071
  43.940         27.50	     5.745
  43.960         37.50	     6.708
  43.980         30.83	     6.083
  44.000         39.17	     6.856
  44.020         35.00	     6.481
  44.040         30.00	     6.000
  44.060         42.50	     7.141
  44.080         31.67	     6.164
  44.100         41.67	     7.071
  44.120         34.17	     6.403
  44.140         49.17	     7.681
  44.160         36.67	     6.633
  44.180         39.17	     6.856
  44.200         50.00	     7.746
  44.220         59.17	     8.426
  44.240         50.00	     7.746
  44.260         49.17	     7.681
  44.280         48.33	     7.616
  44.300         63.33	     8.718
  44.320         50.83	     7.810
  44.340         43.33	     7.211
  44.360         56.67	     8.246
  44.380         50.00	     7.746
  44.400         48.33	     7.616
  44.420         36.67	     6.633
  44.440         38.33	     6.782
  44.460         27.50	     5.745
  44.480         44.17	     7.280
  44.500         45.00	     7.348
  44.520         32.50	     6.245
  44.540         49.17	     7.681
  44.560         30.83	     6.083
  44.580         30.00	     6.000
  44.600         37.50	     6.708
  44.620         21.67	     5.099
  44.640         40.83	     7.000
  44.660         42.50	     7.141
  44.680         40.83	     7.000
  44.700         40.00	     6.928
  44.720         41.67	     7.071
  44.740         45.00	     7.348
  44.760         46.67	     7.483
  44.780         58.33	     8.367
  44.800         59.17	     8.426
  44.820         68.33	     9.055
  44.840         65.83	     8.888
  44.860         55.83	     8.185
  44.880         68.33	     9.055
  44.900         53.33	     8.000
  44.920         57.50	     8.307
  44.940         76.67	     9.592
  44.960         81.67	     9.899
  44.980         82.50	     9.950
  45.000         78.33	     9.695
  45.020         70.83	     9.220
  45.040         49.17	     7.681
  45.060         46.67	     7.483
  45.080         65.00	     8.832
  45.100         75.83	     9.539
  45.120         60.00	     8.485
  45.140         62.50	     8.660
  45.160         72.50	     9.327
  45.180         58.33	     8.367
  45.200         60.83	     8.544
  45.220         58.33	     8.367
  45.240         75.00	     9.487
  45.260         55.83	     8.185
  45.280         88.33	    10.296
  45.300         96.67	    10.770
  45.320         70.00	     9.165
  45.340         80.00	     9.798
  45.360         78.33	     9.695
  45.380         71.67	     9.274
  45.400         85.83	    10.149
  45.420        108.33	    11.402
  45.440        120.00	    12.000
  45.460        137.50	    12.845
  45.480        141.67	    13.038
  45.500        155.00	    13.638
  45.520        177.50	    14.595
  45.540        204.17	    15.652
  45.560        230.83	    16.643
  45.580        238.33	    16.912
  45.600        242.50	    17.059
  45.620        263.33	    17.776
  45.640        248.33	    17.263
  45.660        205.00	    15.684
  45.680        185.00	    14.900
  45.700        170.83	    14.318
  45.720        192.50	    15.199
  45.740        165.00	    14.071
  45.760        148.33	    13.342
  45.780        170.83	    14.318
  45.800        155.83	    13.675
  45.820        133.33	    12.649
  45.840        118.33	    11.916
  45.860         95.00	    10.677
  45.880         58.33	     8.367
  45.900         77.50	     9.644
  45.920         76.67	     9.592
  45.940         85.83	    10.149
  45.960         80.00	     9.798
  45.980         70.83	     9.220
  46.000         50.00	     7.746
  46.020         55.00	     8.124
  46.040         54.17	     8.062
  46.060         49.17	     7.681
  46.080         47.50	     7.550
  46.100         59.17	     8.426
  46.120         50.83	     7.810
  46.140         58.33	     8.367
  46.160         55.00	     8.124
  46.180         38.33	     6.782
  46.200         40.83	     7.000
  46.220         54.17	     8.062
  46.240         46.67	     7.483
  46.260         36.67	     6.633
  46.280         43.33	     7.211
  46.300         40.83	     7.000
  46.320         32.50	     6.245
  46.340         35.83	     6.557
  46.360         41.67	     7.071
  46.380         30.00	     6.000
  46.400         35.00	     6.481
  46.420         29.17	     5.916
  46.440         31.67	     6.164
  46.460         31.67	     6.164
  46.480         33.33	     6.325
  46.500         28.33	     5.831
  46.520         34.17	     6.403
  46.540         34.17	     6.403
  46.560         29.17	     5.916
  46.580         30.00	     6.000
  46.600         38.33	     6.782
  46.620         45.00	     7.348
  46.640         38.33	     6.782
  46.660         39.17	     6.856
  46.680         35.83	     6.557
  46.700         36.67	     6.633
  46.720         43.33	     7.211
  46.740         35.83	     6.557
  46.760         41.67	     7.071
  46.780         35.83	     6.557
  46.800         31.67	     6.164
  46.820         20.83	     5.000
  46.840         35.00	     6.481
  46.860         30.83	     6.083
  46.880         30.83	     6.083
  46.900         29.17	     5.916
  46.920         40.00	     6.928
  46.940         33.33	     6.325
  46.960         34.17	     6.403
  46.980         25.00	     5.477
  47.000         24.17	     5.385
  47.020         30.83	     6.083
  47.040         50.00	     7.746
  47.060         38.33	     6.782
  47.080         47.50	     7.550
  47.100         38.33	     6.782
  47.120         37.50	     6.708
  47.140         40.00	     6.928
  47.160         63.33	     8.718
  47.180         50.83	     7.810
  47.200         47.50	     7.550
  47.220         46.67	     7.483
  47.240         55.83	     8.185
  47.260         37.50	     6.708
  47.280         44.17	     7.280
  47.300         32.50	     6.245
  47.320         30.00	     6.000
  47.340         37.50	     6.708
  47.360         25.83	     5.568
  47.380         29.17	     5.916
  47.400         40.00	     6.928
  47.420         45.00	     7.348
  47.440         45.00	     7.348
  47.460         58.33	     8.367
  47.480         65.00	     8.832
  47.500         74.17	     9.434
  47.520         63.33	     8.718
  47.540         63.33	     8.718
  47.560         50.00	     7.746
  47.580         45.00	     7.348
  47.600         50.00	     7.746
  47.620         46.67	     7.483
  47.640         45.00	     7.348
  47.660         52.50	     7.937
  47.680         40.00	     6.928
  47.700         56.67	     8.246
  47.720         40.00	     6.928
  47.740         24.17	     5.385
  47.760         38.33	     6.782
  47.780         43.33	     7.211
  47.800         30.83	     6.083
  47.820         39.17	     6.856
  47.840         43.33	     7.211
  47.860         35.00	     6.481
  47.880         32.50	     6.245
  47.900         46.67	     7.483
  47.920         39.17	     6.856
  47.940         47.50	     7.550
  47.960         43.33	     7.211
  47.980         60.00	     8.485
  48.000         54.17	     8.062
  48.020         62.50	     8.660
  48.040         52.50	     7.937
  48.060         45.83	     7.416
  48.080         47.50	     7.550
  48.100         40.00	     6.928
  48.120         61.67	     8.602
  48.140         60.00	     8.485
  48.160         60.83	     8.544
  48.180         66.67	     8.944
  48.200         53.33	     8.000
  48.220         58.33	     8.367
  48.240         56.67	     8.246
  48.260         65.00	     8.832
  48.280         80.83	     9.849
  48.300         96.67	    10.770
  48.320        100.00	    10.954
  48.340         89.17	    10.344
  48.360         64.17	     8.775
  48.380         56.67	     8.246
  48.400         59.17	     8.426
  48.420         75.83	     9.539
  48.440         72.50	     9.327
  48.460         78.33	     9.695
  48.480         51.67	     7.874
  48.500         45.00	     7.348
  48.520         40.83	     7.000
  48.540         48.33	     7.616
  48.560         50.00	     7.746
  48.580         40.83	     7.000
  48.600         35.00	     6.481
  48.620         53.33	     8.000
  48.640         39.17	     6.856
  48.660         49.17	     7.681
  48.680         36.67	     6.633
  48.700         53.33	     8.000
  48.720         44.17	     7.280
  48.740         35.83	     6.557
  48.760         40.00	     6.928
  48.780         38.33	     6.782
  48.800         34.17	     6.403
  48.820         38.33	     6.782
  48.840         42.50	     7.141
  48.860         40.00	     6.928
  48.880         40.83	     7.000
  48.900         31.67	     6.164
  48.920         35.83	     6.557
  48.940         27.50	     5.745
  48.960         40.00	     6.928
  48.980         41.67	     7.071
  49.000         35.00	     6.481
  49.020         36.67	     6.633
  49.040         41.67	     7.071
  49.060         41.67	     7.071
  49.080         25.83	     5.568
  49.100         26.67	     5.657
  49.120         45.83	     7.416
  49.140         41.67	     7.071
  49.160         48.33	     7.616
  49.180         57.50	     8.307
  49.200         45.83	     7.416
  49.220         60.00	     8.485
  49.240         47.50	     7.550
  49.260         49.17	     7.681
  49.280         49.17	     7.681
  49.300         55.00	     8.124
  49.320         51.67	     7.874
  49.340         44.17	     7.280
  49.360         50.83	     7.810
  49.380         34.17	     6.403
  49.400         48.33	     7.616
  49.420         50.00	     7.746
  49.440         37.50	     6.708
  49.460         61.67	     8.602
  49.480         61.67	     8.602
  49.500         64.17	     8.775
  49.520         34.17	     6.403
  49.540         42.50	     7.141
  49.560         37.50	     6.708
  49.580         48.33	     7.616
  49.600         62.50	     8.660
  49.620         58.33	     8.367
  49.640         70.00	     9.165
  49.660         54.17	     8.062
  49.680         40.00	     6.928
  49.700         65.83	     8.888
  49.720         52.50	     7.937
  49.740         70.83	     9.220
  49.760         52.50	     7.937
  49.780         70.83	     9.220
  49.800         60.83	     8.544
  49.820         85.00	    10.100
  49.840         66.67	     8.944
  49.860         70.00	     9.165
  49.880         61.67	     8.602
  49.900         57.50	     8.307
  49.920         57.50	     8.307
  49.940         70.83	     9.220
  49.960         61.67	     8.602
  49.980         65.00	     8.832
  50.000         78.33	     9.695
  50.020         73.33	     9.381
  50.040         77.50	     9.644
  50.060        100.00	    10.954
  50.080        110.00	    11.489
  50.100        176.67	    14.560
  50.120        248.33	    17.263
  50.140        323.33	    19.698
  50.160        331.67	    19.950
  50.180        270.83	    18.028
  50.200        199.17	    15.460
  50.220        140.83	    13.000
  50.240        143.33	    13.115
  50.260        144.17	    13.153
  50.280        181.67	    14.765
  50.300        210.83	    15.906
  50.320        155.00	    13.638
  50.340         94.17	    10.630
  50.360         65.83	     8.888
  50.380         60.00	     8.485
  50.400         48.33	     7.616
  50.420         54.17	     8.062
  50.440         49.17	     7.681
  50.460         53.33	     8.000
  50.480         48.33	     7.616
  50.500         47.50	     7.550
  50.520         44.17	     7.280
  50.540         45.00	     7.348
  50.560         61.67	     8.602
  50.580         82.50	     9.950
  50.600         70.00	     9.165
  50.620         85.83	    10.149
  50.640         80.00	     9.798
  50.660         69.17	     9.110
  50.680         65.83	     8.888
  50.700         75.83	     9.539
  50.720         62.50	     8.660
  50.740         84.17	    10.050
  50.760         69.17	     9.110
  50.780         68.33	     9.055
  50.800         32.50	     6.245
  50.820         45.00	     7.348
  50.840         41.67	     7.071
  50.860         43.33	     7.211
  50.880         39.17	     6.856
  50.900         34.17	     6.403
  50.920         55.00	     8.124
  50.940         37.50	     6.708
  50.960         31.67	     6.164
  50.980         35.00	     6.481
  51.000         29.17	     5.916
  51.020         33.33	     6.325
  51.040         25.83	     5.568
  51.060         42.50	     7.141
  51.080         47.50	     7.550
  51.100         47.50	     7.550
  51.120         50.00	     7.746
  51.140         46.67	     7.483
  51.160         82.50	     9.950
  51.180         86.67	    10.198
  51.200         95.00	    10.677
  51.220         72.50	     9.327
  51.240         89.17	    10.344
  51.260        105.83	    11.269
  51.280         97.50	    10.817
  51.300         72.50	     9.327
  51.320         75.83	     9.539
  51.340         76.67	     9.592
  51.360         73.33	     9.381
  51.380         66.67	     8.944
  51.400         68.33	     9.055
  51.420         54.17	     8.062
  51.440         44.17	     7.280
  51.460         35.00	     6.481
  51.480         36.67	     6.633
  51.500         38.33	     6.782
  51.520         46.67	     7.483
  51.540         39.17	     6.856
  51.560         33.33	     6.325
  51.580         41.67	     7.071
  51.600         42.50	     7.141
  51.620         29.17	     5.916
  51.640         40.00	     6.928
  51.660         40.00	     6.928
  51.680         24.17	     5.385
  51.700         30.83	     6.083
  51.720         23.33	     5.292
  51.740         30.00	     6.000
  51.760         29.17	     5.916
  51.780         50.00	     7.746
  51.800         30.83	     6.083
  51.820         40.83	     7.000
  51.840         30.83	     6.083
  51.860         30.83	     6.083
  51.880         26.67	     5.657
  51.900         24.17	     5.385
  51.920         32.50	     6.245
  51.940         33.33	     6.325
  51.960         46.67	     7.483
  51.980         39.17	     6.856
  52.000         36.67	     6.633
  52.020         44.17	     7.280
  52.040         40.83	     7.000
  52.060         29.17	     5.916
  52.080         46.67	     7.483
  52.100         49.17	     7.681
  52.120         83.33	    10.000
  52.140         73.33	     9.381
  52.160         60.83	     8.544
  52.180         53.33	     8.000
  52.200         46.67	     7.483
  52.220         41.67	     7.071
  52.240         56.67	     8.246
  52.260         59.17	     8.426
  52.280         51.67	     7.874
  52.300         51.67	     7.874
  52.320         55.83	     8.185
  52.340         62.50	     8.660
  52.360        102.50	    11.091
  52.380        114.17	    11.705
  52.400         78.33	     9.695
  52.420         53.33	     8.000
  52.440         64.17	     8.775
  52.460         49.17	     7.681
  52.480         74.17	     9.434
  52.500         88.33	    10.296
  52.520         92.50	    10.536
  52.540         60.83	     8.544
  52.560         60.00	     8.485
  52.580         67.50	     9.000
  52.600         55.00	     8.124
  52.620         52.50	     7.937
  52.640         51.67	     7.874
  52.660         48.33	     7.616
  52.680         50.00	     7.746
  52.700         51.67	     7.874
  52.720         56.67	     8.246
  52.740         50.00	     7.746
  52.760         36.67	     6.633
  52.780         40.00	     6.928
  52.800         41.67	     7.071
  52.820         42.50	     7.141
  52.840         45.00	     7.348
  52.860         45.83	     7.416
  52.880         40.00	     6.928
  52.900         49.17	     7.681
  52.920         45.83	     7.416
  52.940         45.00	     7.348
  52.960         50.83	     7.810
  52.980         40.83	     7.000
  53.000         39.17	     6.856
  53.020         44.17	     7.280
  53.040         44.17	     7.280
  53.060         42.50	     7.141
  53.080         48.33	     7.616
  53.100         45.00	     7.348
  53.120         55.83	     8.185
  53.140         40.00	     6.928
  53.160         40.00	     6.928
  53.180         42.50	     7.141
  53.200         44.17	     7.280
  53.220         55.83	     8.185
  53.240         55.00	     8.124
  53.260         54.17	     8.062
  53.280         39.17	     6.856
  53.300         50.83	     7.810
  53.320         39.17	     6.856
  53.340         38.33	     6.782
  53.360         50.00	     7.746
  53.380         47.50	     7.550
  53.400         50.83	     7.810
  53.420         35.83	     6.557
  53.440         39.17	     6.856
  53.460         50.83	     7.810
  53.480         41.67	     7.071
  53.500         41.67	     7.071
  53.520         38.33	     6.782
  53.540         40.83	     7.000
  53.560         36.67	     6.633
  53.580         28.33	     5.831
  53.600         37.50	     6.708
  53.620         33.33	     6.325
  53.640         24.17	     5.385
  53.660         42.50	     7.141
  53.680         37.50	     6.708
  53.700         36.67	     6.633
  53.720         39.17	     6.856
  53.740         28.33	     5.831
  53.760         35.83	     6.557
  53.780         25.00	     5.477
  53.800         23.33	     5.292
  53.820         34.17	     6.403
  53.840         37.50	     6.708
  53.860         29.17	     5.916
  53.880         22.50	     5.196
  53.900         33.33	     6.325
  53.920         42.50	     7.141
  53.940         37.50	     6.708
  53.960         28.33	     5.831
  53.980         40.83	     7.000
  54.000         27.50	     5.745
  54.020         33.33	     6.325
  54.040         29.17	     5.916
  54.060         30.83	     6.083
  54.080         41.67	     7.071
  54.100         33.33	     6.325
  54.120         35.83	     6.557
  54.140         40.83	     7.000
  54.160         35.83	     6.557
  54.180         31.67	     6.164
  54.200         35.00	     6.481
  54.220         38.33	     6.782
  54.240         32.50	     6.245
  54.260         26.67	     5.657
  54.280         41.67	     7.071
  54.300         51.67	     7.874
  54.320         32.50	     6.245
  54.340         39.17	     6.856
  54.360         45.00	     7.348
  54.380         48.33	     7.616
  54.400         41.67	     7.071
  54.420         41.67	     7.071
  54.440         41.67	     7.071
  54.460         49.17	     7.681
  54.480         36.67	     6.633
  54.500         45.00	     7.348
  54.520         50.83	     7.810
  54.540         41.67	     7.071
  54.560         48.33	     7.616
  54.580         36.67	     6.633
  54.600         47.50	     7.550
  54.620         44.17	     7.280
  54.640         39.17	     6.856
  54.660         55.00	     8.124
  54.680         42.50	     7.141
  54.700         46.67	     7.483
  54.720         43.33	     7.211
  54.740         50.00	     7.746
  54.760         37.50	     6.708
  54.780         54.17	     8.062
  54.800         44.17	     7.280
  54.820         80.83	     9.849
  54.840         72.50	     9.327
  54.860         99.17	    10.909
  54.880        120.00	    12.000
  54.900        162.50	    13.964
  54.920        176.67	    14.560
  54.940        158.33	    13.784
  54.960         94.17	    10.630
  54.980         72.50	     9.327
  55.000         84.17	    10.050
  55.020         80.83	     9.849
  55.040        105.00	    11.225
  55.060        110.83	    11.533
  55.080         99.17	    10.909
  55.100         85.83	    10.149
  55.120         63.33	     8.718
  55.140         43.33	     7.211
  55.160         50.83	     7.810
  55.180         50.00	     7.746
  55.200         55.83	     8.185
  55.220         61.67	     8.602
  55.240         63.33	     8.718
  55.260         59.17	     8.426
  55.280         62.50	     8.660
  55.300         68.33	     9.055
  55.320         80.83	     9.849
  55.340         60.83	     8.544
  55.360         62.50	     8.660
  55.380         60.83	     8.544
  55.400         60.83	     8.544
  55.420         57.50	     8.307
  55.440         48.33	     7.616
  55.460         60.00	     8.485
  55.480         68.33	     9.055
  55.500         55.00	     8.124
  55.520         67.50	     9.000
  55.540         46.67	     7.483
  55.560         50.00	     7.746
  55.580         49.17	     7.681
  55.600         44.17	     7.280
  55.620         52.50	     7.937
  55.640         48.33	     7.616
  55.660         43.33	     7.211
  55.680         54.17	     8.062
  55.700         50.83	     7.810
  55.720         60.83	     8.544
  55.740         54.17	     8.062
  55.760         65.83	     8.888
  55.780         72.50	     9.327
  55.800         80.00	     9.798
  55.820         70.83	     9.220
  55.840         78.33	     9.695
  55.860         75.00	     9.487
  55.880         77.50	     9.644
  55.900         60.83	     8.544
  55.920         59.17	     8.426
  55.940         67.50	     9.000
  55.960         62.50	     8.660
  55.980         62.50	     8.660
  56.000         67.50	     9.000
  56.020         60.00	     8.485
  56.040         61.67	     8.602
  56.060         35.83	     6.557
  56.080         50.00	     7.746
  56.100         37.50	     6.708
  56.120         40.00	     6.928
  56.140         44.17	     7.280
  56.160         32.50	     6.245
  56.180         33.33	     6.325
  56.200         41.67	     7.071
  56.220         45.00	     7.348
  56.240         38.33	     6.782
  56.260         40.00	     6.928
  56.280         29.17	     5.916
  56.300         46.67	     7.483
  56.320         32.50	     6.245
  56.340         35.00	     6.481
  56.360         35.00	     6.481
  56.380         44.17	     7.280
  56.400         36.67	     6.633
  56.420         56.67	     8.246
  56.440         39.17	     6.856
  56.460         45.00	     7.348
  56.480         34.17	     6.403
  56.500         30.83	     6.083
  56.520         48.33	     7.616
  56.540         44.17	     7.280
  56.560         42.50	     7.141
  56.580         51.67	     7.874
  56.600         46.67	     7.483
  56.620         49.17	     7.681
  56.640         40.00	     6.928
  56.660         39.17	     6.856
  56.680         30.83	     6.083
  56.700         43.33	     7.211
  56.720         48.33	     7.616
  56.740         62.50	     8.660
  56.760         40.83	     7.000
  56.780         53.33	     8.000
  56.800         40.83	     7.000
  56.820         35.83	     6.557
  56.840         37.50	     6.708
  56.860         40.00	     6.928
  56.880         47.50	     7.550
  56.900         43.33	     7.211
  56.920         41.67	     7.071
  56.940         40.00	     6.928
  56.960         35.00	     6.481
  56.980         35.83	     6.557
  57.000         47.50	     7.550
  57.020         43.33	     7.211
  57.040         33.33	     6.325
  57.060         40.83	     7.000
  57.080         30.00	     6.000
  57.100         36.67	     6.633
  57.120         21.67	     5.099
  57.140         42.50	     7.141
  57.160         38.33	     6.782
  57.180         28.33	     5.831
  57.200         36.67	     6.633
  57.220         36.67	     6.633
  57.240         48.33	     7.616
  57.260         41.67	     7.071
  57.280         40.83	     7.000
  57.300         28.33	     5.831
  57.320         30.00	     6.000
  57.340         48.33	     7.616
  57.360         47.50	     7.550
  57.380         36.67	     6.633
  57.400         39.17	     6.856
  57.420         35.00	     6.481
  57.440         28.33	     5.831
  57.460         30.83	     6.083
  57.480         30.83	     6.083
  57.500         39.17	     6.856
  57.520         37.50	     6.708
  57.540         41.67	     7.071
  57.560         50.00	     7.746
  57.580         35.00	     6.481
  57.600         35.83	     6.557
  57.620         26.67	     5.657
  57.640         38.33	     6.782
  57.660         42.50	     7.141
  57.680         33.33	     6.325
  57.700         38.33	     6.782
  57.720         28.33	     5.831
  57.740         32.50	     6.245
  57.760         38.33	     6.782
  57.780         40.00	     6.928
  57.800         25.00	     5.477
  57.820         27.50	     5.745
  57.840         35.00	     6.481
  57.860         34.17	     6.403
  57.880         30.00	     6.000
  57.900         32.50	     6.245
  57.920         32.50	     6.245
  57.940         22.50	     5.196
  57.960         31.67	     6.164
  57.980         30.00	     6.000
  58.000         30.83	     6.083
  58.020         30.83	     6.083
  58.040         42.50	     7.141
  58.060         39.17	     6.856
  58.080         42.50	     7.141
  58.100         37.50	     6.708
  58.120         29.17	     5.916
  58.140         37.50	     6.708
  58.160         41.67	     7.071
  58.180         35.83	     6.557
  58.200         36.67	     6.633
  58.220         39.17	     6.856
  58.240         39.17	     6.856
  58.260         35.00	     6.481
  58.280         40.00	     6.928
  58.300         30.83	     6.083
  58.320         36.67	     6.633
  58.340         34.17	     6.403
  58.360         37.50	     6.708
  58.380         39.17	     6.856
  58.400         46.67	     7.483
  58.420         32.50	     6.245
  58.440         36.67	     6.633
  58.460         41.67	     7.071
  58.480         45.00	     7.348
  58.500         41.67	     7.071
  58.520         45.00	     7.348
  58.540         39.17	     6.856
  58.560         40.00	     6.928
  58.580         49.17	     7.681
  58.600         29.17	     5.916
  58.620         42.50	     7.141
  58.640         55.83	     8.185
  58.660         55.83	     8.185
  58.680         49.17	     7.681
  58.700         71.67	     9.274
  58.720         55.83	     8.185
  58.740         49.17	     7.681
  58.760         43.33	     7.211
  58.780         40.83	     7.000
  58.800         45.83	     7.416
  58.820         47.50	     7.550
  58.840         60.00	     8.485
  58.860         55.83	     8.185
  58.880         60.00	     8.485
  58.900         50.00	     7.746
  58.920         50.00	     7.746
  58.940         42.50	     7.141
  58.960         45.83	     7.416
  58.980         51.67	     7.874
  59.000         52.50	     7.937
  59.020         55.83	     8.185
  59.040         57.50	     8.307
  59.060         58.33	     8.367
  59.080         91.67	    10.488
  59.100         80.83	     9.849
  59.120         67.50	     9.000
  59.140         71.67	     9.274
  59.160         62.50	     8.660
  59.180         73.33	     9.381
  59.200         61.67	     8.602
  59.220         69.17	     9.110
  59.240         55.83	     8.185
  59.260         65.83	     8.888
  59.280         41.67	     7.071
  59.300         52.50	     7.937
  59.320         50.00	     7.746
  59.340         42.50	     7.141
  59.360         57.50	     8.307
  59.380         51.67	     7.874
  59.400         59.17	     8.426
  59.420         47.50	     7.550
  59.440         35.00	     6.481
  59.460         47.50	     7.550
  59.480         49.17	     7.681
  59.500         50.00	     7.746
  59.520         44.17	     7.280
  59.540         42.50	     7.141
  59.560         40.00	     6.928
  59.580         39.17	     6.856
  59.600         51.67	     7.874
  59.620         54.17	     8.062
  59.640         50.00	     7.746
  59.660         33.33	     6.325
  59.680         40.00	     6.928
  59.700         43.33	     7.211
  59.720         47.50	     7.550
  59.740         49.17	     7.681
  59.760         40.00	     6.928
  59.780         44.17	     7.280
  59.800         55.83	     8.185
  59.820         54.17	     8.062
  59.840         52.50	     7.937
  59.860         54.17	     8.062
  59.880         68.33	     9.055
  59.900        100.83	    11.000
  59.920        125.00	    12.247
  59.940        165.00	    14.071
  59.960        191.67	    15.166
  59.980        198.33	    15.427
  60.000        164.17	    14.036
  60.020        108.33	    11.402
  60.040        109.17	    11.446
  60.060         82.50	     9.950
  60.080        103.33	    11.136
  60.100        121.67	    12.083
  60.120        130.00	    12.490
  60.140        116.67	    11.832
  60.160         91.67	    10.488
  60.180         83.33	    10.000
  60.200         63.33	     8.718
  60.220         75.83	     9.539
  60.240         69.17	     9.110
  60.260         48.33	     7.616
  60.280         44.17	     7.280
  60.300         52.50	     7.937
  60.320         60.00	     8.485
  60.340         60.00	     8.485
  60.360         45.00	     7.348
  60.380         50.00	     7.746
  60.400         57.50	     8.307
  60.420         55.83	     8.185
  60.440         41.67	     7.071
  60.460         39.17	     6.856
  60.480         55.83	     8.185
  60.500         65.83	     8.888
  60.520         50.83	     7.810
  60.540         44.17	     7.280
  60.560         55.00	     8.124
  60.580         53.33	     8.000
  60.600         56.67	     8.246
  60.620         40.00	     6.928
  60.640         51.67	     7.874
  60.660         50.83	     7.810
  60.680         45.83	     7.416
  60.700         55.83	     8.185
  60.720         61.67	     8.602
  60.740         75.00	     9.487
  60.760         70.83	     9.220
  60.780         82.50	     9.950
  60.800         71.67	     9.274
  60.820         55.83	     8.185
  60.840         57.50	     8.307
  60.860         65.00	     8.832
  60.880         60.83	     8.544
  60.900         47.50	     7.550
  60.920         82.50	     9.950
  60.940         69.17	     9.110
  60.960         61.67	     8.602
  60.980         57.50	     8.307
  61.000         65.83	     8.888
  61.020         54.17	     8.062
  61.040         55.00	     8.124
  61.060         57.50	     8.307
  61.080         65.00	     8.832
  61.100         61.67	     8.602
  61.120         62.50	     8.660
  61.140         44.17	     7.280
  61.160         59.17	     8.426
  61.180         49.17	     7.681
  61.200         41.67	     7.071
  61.220         37.50	     6.708
  61.240         39.17	     6.856
  61.260         54.17	     8.062
  61.280         40.00	     6.928
  61.300         44.17	     7.280
  61.320         40.83	     7.000
  61.340         55.00	     8.124
  61.360         43.33	     7.211
  61.380         47.50	     7.550
  61.400         46.67	     7.483
  61.420         42.50	     7.141
  61.440         45.00	     7.348
  61.460         55.00	     8.124
  61.480         67.50	     9.000
  61.500         70.83	     9.220
  61.520         64.17	     8.775
  61.540         65.00	     8.832
  61.560         70.00	     9.165
  61.580         54.17	     8.062
  61.600         55.83	     8.185
  61.620         51.67	     7.874
  61.640         50.83	     7.810
  61.660         50.00	     7.746
  61.680         63.33	     8.718
  61.700         55.00	     8.124
  61.720         58.33	     8.367
  61.740         68.33	     9.055
  61.760         70.00	     9.165
  61.780         54.17	     8.062
  61.800         69.17	     9.110
  61.820         82.50	     9.950
  61.840         50.83	     7.810
  61.860         73.33	     9.381
  61.880         65.00	     8.832
  61.900         57.50	     8.307
  61.920         80.00	     9.798
  61.940         57.50	     8.307
  61.960         70.00	     9.165
  61.980         60.00	     8.485
  62.000         58.33	     8.367
  62.020         69.17	     9.110
  62.040         48.33	     7.616
  62.060         59.17	     8.426
  62.080         49.17	     7.681
  62.100         66.67	     8.944
  62.120         55.00	     8.124
  62.140         50.00	     7.746
  62.160         44.17	     7.280
  62.180         45.83	     7.416
  62.200         45.00	     7.348
  62.220         44.17	     7.280
  62.240         48.33	     7.616
  62.260         27.50	     5.745
  62.280         46.67	     7.483
  62.300         48.33	     7.616
  62.320         40.00	     6.928
  62.340         37.50	     6.708
  62.360         41.67	     7.071
  62.380         26.67	     5.657
  62.400         34.17	     6.403
  62.420         38.33	     6.782
  62.440         31.67	     6.164
  62.460         35.00	     6.481
  62.480         37.50	     6.708
  62.500         33.33	     6.325
  62.520         30.00	     6.000
  62.540         38.33	     6.782
  62.560         28.33	     5.831
  62.580         39.17	     6.856
  62.600         44.17	     7.280
  62.620         40.83	     7.000
  62.640         34.17	     6.403
  62.660         38.33	     6.782
  62.680         35.00	     6.481
  62.700         35.00	     6.481
  62.720         29.17	     5.916
  62.740         46.67	     7.483
  62.760         45.83	     7.416
  62.780         32.50	     6.245
  62.800         40.83	     7.000
  62.820         37.50	     6.708
  62.840         43.33	     7.211
  62.860         38.33	     6.782
  62.880         43.33	     7.211
  62.900         51.67	     7.874
  62.920         47.50	     7.550
  62.940         35.00	     6.481
  62.960         44.17	     7.280
  62.980         43.33	     7.211
  63.000         34.17	     6.403
  63.020         35.83	     6.557
  63.040         40.00	     6.928
  63.060         45.83	     7.416
  63.080         50.83	     7.810
  63.100         25.83	     5.568
  63.120         41.67	     7.071
  63.140         34.17	     6.403
  63.160         35.83	     6.557
  63.180         34.17	     6.403
  63.200         37.50	     6.708
  63.220         28.33	     5.831
  63.240         39.17	     6.856
  63.260         40.83	     7.000
  63.280         42.50	     7.141
  63.300         42.50	     7.141
  63.320         45.00	     7.348
  63.340         40.83	     7.000
  63.360         43.33	     7.211
  63.380         37.50	     6.708
  63.400         58.33	     8.367
  63.420         40.83	     7.000
  63.440         55.00	     8.124
  63.460         37.50	     6.708
  63.480         59.17	     8.426
  63.500         47.50	     7.550
  63.520         59.17	     8.426
  63.540         48.33	     7.616
  63.560         50.00	     7.746
  63.580         39.17	     6.856
  63.600         34.17	     6.403
  63.620         36.67	     6.633
  63.640         50.00	     7.746
  63.660         50.83	     7.810
  63.680         50.83	     7.810
  63.700         70.00	     9.165
  63.720         57.50	     8.307
  63.740         50.83	     7.810
  63.760         51.67	     7.874
  63.780         73.33	     9.381
  63.800         52.50	     7.937
  63.820         45.83	     7.416
  63.840         46.67	     7.483
  63.860         62.50	     8.660
  63.880         64.17	     8.775
  63.900         70.00	     9.165
  63.920         52.50	     7.937
  63.940         70.00	     9.165
  63.960         65.83	     8.888
  63.980         65.83	     8.888
  64.000         74.17	     9.434
  64.020         70.00	     9.165
  64.040         77.50	     9.644
  64.060         73.33	     9.381
  64.080         73.33	     9.381
  64.100         64.17	     8.775
  64.120         83.33	    10.000
  64.140         67.50	     9.000
  64.160         62.50	     8.660
  64.180         58.33	     8.367
  64.200         69.17	     9.110
  64.220         71.67	     9.274
  64.240         69.17	     9.110
  64.260         68.33	     9.055
  64.280         66.67	     8.944
  64.300         52.50	     7.937
  64.320         60.00	     8.485
  64.340         61.67	     8.602
  64.360         55.83	     8.185
  64.380         56.67	     8.246
  64.400         70.00	     9.165
  64.420         39.17	     6.856
  64.440         60.83	     8.544
  64.460         51.67	     7.874
  64.480         52.50	     7.937
  64.500         35.83	     6.557
  64.520         55.00	     8.124
  64.540         51.67	     7.874
  64.560         45.83	     7.416
  64.580         51.67	     7.874
  64.600         46.67	     7.483
  64.620         43.33	     7.211
  64.640         45.83	     7.416
  64.660         49.17	     7.681
  64.680         62.50	     8.660
  64.700         50.83	     7.810
  64.720         65.00	     8.832
  64.740         59.17	     8.426
  64.760         72.50	     9.327
  64.780         46.67	     7.483
  64.800         48.33	     7.616
  64.820         55.00	     8.124
  64.840         55.00	     8.124
  64.860         62.50	     8.660
  64.880         45.83	     7.416
  64.900         61.67	     8.602
  64.920         55.83	     8.185
  64.940         49.17	     7.681
  64.960         45.83	     7.416
  64.980         44.17	     7.280
  65.000         48.33	     7.616
