
Filename:
	C:\Program Files\Thermo Electron\WinXRD\Datafiles\F_HERMAN\GEO\G12_RT.raw

File Created:
	February 21, 2020 - 04:27 PM

Specimen Id:
	G12_RT

Specimen Name:
	

Specimen Description:
	

Comment:
Scan Type: 2Theta Scan
Start Angle: 3 deg.
Stop Angle: 65 deg.
Num Points: 3101
Step Size: 0.02 deg.
Scan Rate: 1.000000
Scan Mode: Continuous
Wavelength: 1.540562
\Kalpha1: 1.540562	\Kalpha2: 1.544390	\Kbeta: 1.392218

Optics:
		Detector:
			 Type: Fixed Slits
		Tube: 
			 Type: Fixed Slits


Datas:
 Pos [deg]       Rate [CPS]      ESD [-]

Range 1 ---> Iteration 1
   3.000        428.33	    22.672
   3.020        462.50	    23.558
   3.040        485.00	    24.125
   3.060        464.17	    23.601
   3.080        435.00	    22.847
   3.100        452.50	    23.302
   3.120        429.17	    22.694
   3.140        434.17	    22.825
   3.160        382.50	    21.424
   3.180        398.33	    21.863
   3.200        400.83	    21.932
   3.220        447.50	    23.173
   3.240        431.67	    22.760
   3.260        412.50	    22.249
   3.280        372.50	    21.142
   3.300        391.67	    21.679
   3.320        396.67	    21.817
   3.340        402.50	    21.977
   3.360        421.67	    22.494
   3.380        430.00	    22.716
   3.400        388.33	    21.587
   3.420        395.83	    21.794
   3.440        369.17	    21.048
   3.460        356.67	    20.688
   3.480        389.17	    21.610
   3.500        386.67	    21.541
   3.520        352.50	    20.567
   3.540        365.00	    20.928
   3.560        419.17	    22.428
   3.580        380.00	    21.354
   3.600        385.00	    21.494
   3.620        388.33	    21.587
   3.640        341.67	    20.248
   3.660        345.83	    20.372
   3.680        359.17	    20.761
   3.700        361.67	    20.833
   3.720        347.50	    20.421
   3.740        360.00	    20.785
   3.760        349.17	    20.469
   3.780        375.00	    21.213
   3.800        364.17	    20.905
   3.820        314.17	    19.416
   3.840        333.33	    20.000
   3.860        355.00	    20.640
   3.880        354.17	    20.616
   3.900        311.67	    19.339
   3.920        330.83	    19.925
   3.940        327.50	    19.824
   3.960        310.83	    19.313
   3.980        298.33	    18.921
   4.000        326.67	    19.799
   4.020        321.67	    19.647
   4.040        318.33	    19.545
   4.060        314.17	    19.416
   4.080        316.67	    19.494
   4.100        324.17	    19.723
   4.120        305.83	    19.157
   4.140        316.67	    19.494
   4.160        306.67	    19.183
   4.180        306.67	    19.183
   4.200        355.83	    20.664
   4.220        330.00	    19.900
   4.240        305.83	    19.157
   4.260        315.00	    19.442
   4.280        316.67	    19.494
   4.300        279.17	    18.303
   4.320        285.00	    18.493
   4.340        307.50	    19.209
   4.360        280.00	    18.330
   4.380        298.33	    18.921
   4.400        281.67	    18.385
   4.420        295.83	    18.841
   4.440        312.50	    19.365
   4.460        282.50	    18.412
   4.480        272.50	    18.083
   4.500        278.33	    18.276
   4.520        263.33	    17.776
   4.540        312.50	    19.365
   4.560        268.33	    17.944
   4.580        268.33	    17.944
   4.600        265.00	    17.833
   4.620        245.00	    17.146
   4.640        265.83	    17.861
   4.660        273.33	    18.111
   4.680        279.17	    18.303
   4.700        279.17	    18.303
   4.720        275.00	    18.166
   4.740        240.00	    16.971
   4.760        258.33	    17.607
   4.780        225.83	    16.462
   4.800        249.17	    17.292
   4.820        272.50	    18.083
   4.840        229.17	    16.583
   4.860        243.33	    17.088
   4.880        260.83	    17.692
   4.900        240.00	    16.971
   4.920        261.67	    17.720
   4.940        271.67	    18.055
   4.960        265.00	    17.833
   4.980        238.33	    16.912
   5.000        244.17	    17.117
   5.020        240.00	    16.971
   5.040        248.33	    17.263
   5.060        253.33	    17.436
   5.080        228.33	    16.553
   5.100        236.67	    16.852
   5.120        233.33	    16.733
   5.140        250.00	    17.321
   5.160        231.67	    16.673
   5.180        230.83	    16.643
   5.200        225.00	    16.432
   5.220        218.33	    16.186
   5.240        220.83	    16.279
   5.260        216.67	    16.125
   5.280        226.67	    16.492
   5.300        225.83	    16.462
   5.320        206.67	    15.748
   5.340        230.83	    16.643
   5.360        248.33	    17.263
   5.380        216.67	    16.125
   5.400        203.33	    15.620
   5.420        235.00	    16.793
   5.440        219.17	    16.217
   5.460        205.83	    15.716
   5.480        214.17	    16.031
   5.500        212.50	    15.969
   5.520        218.33	    16.186
   5.540        214.17	    16.031
   5.560        238.33	    16.912
   5.580        202.50	    15.588
   5.600        219.17	    16.217
   5.620        222.50	    16.340
   5.640        186.67	    14.967
   5.660        228.33	    16.553
   5.680        221.67	    16.310
   5.700        224.17	    16.401
   5.720        207.50	    15.780
   5.740        255.00	    17.493
   5.760        189.17	    15.067
   5.780        202.50	    15.588
   5.800        193.33	    15.232
   5.820        228.33	    16.553
   5.840        210.00	    15.875
   5.860        215.83	    16.093
   5.880        215.83	    16.093
   5.900        234.17	    16.763
   5.920        216.67	    16.125
   5.940        241.67	    17.029
   5.960        222.50	    16.340
   5.980        233.33	    16.733
   6.000        242.50	    17.059
   6.020        224.17	    16.401
   6.040        250.00	    17.321
   6.060        245.00	    17.146
   6.080        289.17	    18.628
   6.100        255.00	    17.493
   6.120        287.50	    18.574
   6.140        291.67	    18.708
   6.160        324.17	    19.723
   6.180        285.83	    18.520
   6.200        299.17	    18.947
   6.220        223.33	    16.371
   6.240        198.33	    15.427
   6.260        217.50	    16.155
   6.280        204.17	    15.652
   6.300        190.00	    15.100
   6.320        220.83	    16.279
   6.340        217.50	    16.155
   6.360        215.83	    16.093
   6.380        212.50	    15.969
   6.400        175.83	    14.526
   6.420        220.83	    16.279
   6.440        190.83	    15.133
   6.460        190.83	    15.133
   6.480        181.67	    14.765
   6.500        198.33	    15.427
   6.520        180.00	    14.697
   6.540        212.50	    15.969
   6.560        167.50	    14.177
   6.580        190.00	    15.100
   6.600        170.83	    14.318
   6.620        191.67	    15.166
   6.640        170.00	    14.283
   6.660        191.67	    15.166
   6.680        185.83	    14.933
   6.700        206.67	    15.748
   6.720        184.17	    14.866
   6.740        211.67	    15.937
   6.760        199.17	    15.460
   6.780        187.50	    15.000
   6.800        192.50	    15.199
   6.820        188.33	    15.033
   6.840        201.67	    15.556
   6.860        188.33	    15.033
   6.880        164.17	    14.036
   6.900        187.50	    15.000
   6.920        194.17	    15.264
   6.940        187.50	    15.000
   6.960        172.50	    14.387
   6.980        175.00	    14.491
   7.000        157.50	    13.748
   7.020        185.83	    14.933
   7.040        176.67	    14.560
   7.060        203.33	    15.620
   7.080        192.50	    15.199
   7.100        174.17	    14.457
   7.120        181.67	    14.765
   7.140        189.17	    15.067
   7.160        172.50	    14.387
   7.180        164.17	    14.036
   7.200        195.83	    15.330
   7.220        162.50	    13.964
   7.240        169.17	    14.248
   7.260        160.83	    13.892
   7.280        178.33	    14.629
   7.300        174.17	    14.457
   7.320        160.00	    13.856
   7.340        163.33	    14.000
   7.360        175.00	    14.491
   7.380        159.17	    13.820
   7.400        148.33	    13.342
   7.420        170.83	    14.318
   7.440        164.17	    14.036
   7.460        155.83	    13.675
   7.480        159.17	    13.820
   7.500        170.83	    14.318
   7.520        162.50	    13.964
   7.540        145.83	    13.229
   7.560        160.83	    13.892
   7.580        166.67	    14.142
   7.600        175.00	    14.491
   7.620        166.67	    14.142
   7.640        154.17	    13.601
   7.660        135.83	    12.767
   7.680        147.50	    13.304
   7.700        144.17	    13.153
   7.720        169.17	    14.248
   7.740        155.00	    13.638
   7.760        154.17	    13.601
   7.780        158.33	    13.784
   7.800        165.83	    14.107
   7.820        156.67	    13.711
   7.840        160.00	    13.856
   7.860        135.83	    12.767
   7.880        144.17	    13.153
   7.900        163.33	    14.000
   7.920        174.17	    14.457
   7.940        168.33	    14.213
   7.960        141.67	    13.038
   7.980        151.67	    13.491
   8.000        161.67	    13.928
   8.020        163.33	    14.000
   8.040        170.83	    14.318
   8.060        128.33	    12.410
   8.080        158.33	    13.784
   8.100        168.33	    14.213
   8.120        170.83	    14.318
   8.140        152.50	    13.528
   8.160        155.00	    13.638
   8.180        150.00	    13.416
   8.200        165.83	    14.107
   8.220        162.50	    13.964
   8.240        145.83	    13.229
   8.260        169.17	    14.248
   8.280        144.17	    13.153
   8.300        167.50	    14.177
   8.320        150.00	    13.416
   8.340        155.83	    13.675
   8.360        176.67	    14.560
   8.380        161.67	    13.928
   8.400        160.00	    13.856
   8.420        159.17	    13.820
   8.440        160.00	    13.856
   8.460        170.83	    14.318
   8.480        165.00	    14.071
   8.500        180.83	    14.731
   8.520        154.17	    13.601
   8.540        180.00	    14.697
   8.560        200.83	    15.524
   8.580        208.33	    15.811
   8.600        217.50	    16.155
   8.620        227.50	    16.523
   8.640        235.00	    16.793
   8.660        280.83	    18.358
   8.680        263.33	    17.776
   8.700        339.17	    20.174
   8.720        332.50	    19.975
   8.740        414.17	    22.293
   8.760        465.00	    23.622
   8.780        600.00	    26.833
   8.800        759.17	    30.183
   8.820        803.33	    31.048
   8.840        713.33	    29.257
   8.860        534.17	    25.318
   8.880        374.17	    21.190
   8.900        251.67	    17.378
   8.920        201.67	    15.556
   8.940        184.17	    14.866
   8.960        167.50	    14.177
   8.980        165.00	    14.071
   9.000        137.50	    12.845
   9.020        184.17	    14.866
   9.040        173.33	    14.422
   9.060        158.33	    13.784
   9.080        163.33	    14.000
   9.100        174.17	    14.457
   9.120        161.67	    13.928
   9.140        165.00	    14.071
   9.160        171.67	    14.353
   9.180        176.67	    14.560
   9.200        127.50	    12.369
   9.220        119.17	    11.958
   9.240        149.17	    13.379
   9.260        130.83	    12.530
   9.280        135.83	    12.767
   9.300        140.83	    13.000
   9.320        143.33	    13.115
   9.340        147.50	    13.304
   9.360        171.67	    14.353
   9.380        146.67	    13.266
   9.400        150.00	    13.416
   9.420        153.33	    13.565
   9.440        135.83	    12.767
   9.460        136.67	    12.806
   9.480        140.83	    13.000
   9.500        109.17	    11.446
   9.520        128.33	    12.410
   9.540        126.67	    12.329
   9.560        127.50	    12.369
   9.580        130.00	    12.490
   9.600        110.00	    11.489
   9.620         95.00	    10.677
   9.640        130.00	    12.490
   9.660        142.50	    13.077
   9.680        150.00	    13.416
   9.700        116.67	    11.832
   9.720        136.67	    12.806
   9.740        165.00	    14.071
   9.760        153.33	    13.565
   9.780        116.67	    11.832
   9.800        120.83	    12.042
   9.820        120.00	    12.000
   9.840        116.67	    11.832
   9.860        126.67	    12.329
   9.880        117.50	    11.874
   9.900        125.83	    12.288
   9.920        135.83	    12.767
   9.940        115.00	    11.747
   9.960        114.17	    11.705
   9.980        106.67	    11.314
  10.000        121.67	    12.083
  10.020        104.17	    11.180
  10.040        110.83	    11.533
  10.060        101.67	    11.045
  10.080        124.17	    12.207
  10.100        135.83	    12.767
  10.120         97.50	    10.817
  10.140        107.50	    11.358
  10.160        108.33	    11.402
  10.180        111.67	    11.576
  10.200        114.17	    11.705
  10.220        115.83	    11.790
  10.240        110.83	    11.533
  10.260        110.00	    11.489
  10.280        108.33	    11.402
  10.300        114.17	    11.705
  10.320        136.67	    12.806
  10.340        116.67	    11.832
  10.360        135.00	    12.728
  10.380        116.67	    11.832
  10.400        129.17	    12.450
  10.420        153.33	    13.565
  10.440        163.33	    14.000
  10.460        166.67	    14.142
  10.480        169.17	    14.248
  10.500        182.50	    14.799
  10.520        146.67	    13.266
  10.540        140.83	    13.000
  10.560        105.00	    11.225
  10.580        103.33	    11.136
  10.600        108.33	    11.402
  10.620        115.83	    11.790
  10.640        114.17	    11.705
  10.660        123.33	    12.166
  10.680         94.17	    10.630
  10.700        120.00	    12.000
  10.720        102.50	    11.091
  10.740        100.83	    11.000
  10.760        112.50	    11.619
  10.780         94.17	    10.630
  10.800        113.33	    11.662
  10.820        130.00	    12.490
  10.840        103.33	    11.136
  10.860        111.67	    11.576
  10.880        103.33	    11.136
  10.900        100.00	    10.954
  10.920        115.83	    11.790
  10.940        104.17	    11.180
  10.960        135.83	    12.767
  10.980        130.83	    12.530
  11.000        100.00	    10.954
  11.020        100.83	    11.000
  11.040        102.50	    11.091
  11.060         94.17	    10.630
  11.080         95.00	    10.677
  11.100        105.83	    11.269
  11.120        115.00	    11.747
  11.140        103.33	    11.136
  11.160         84.17	    10.050
  11.180        113.33	    11.662
  11.200         89.17	    10.344
  11.220         91.67	    10.488
  11.240         95.00	    10.677
  11.260        108.33	    11.402
  11.280        113.33	    11.662
  11.300         93.33	    10.583
  11.320         96.67	    10.770
  11.340        106.67	    11.314
  11.360         91.67	    10.488
  11.380        114.17	    11.705
  11.400        108.33	    11.402
  11.420         93.33	    10.583
  11.440         99.17	    10.909
  11.460        110.00	    11.489
  11.480        110.83	    11.533
  11.500        105.83	    11.269
  11.520        115.83	    11.790
  11.540        100.00	    10.954
  11.560        115.00	    11.747
  11.580         96.67	    10.770
  11.600         95.00	    10.677
  11.620        114.17	    11.705
  11.640        125.83	    12.288
  11.660        107.50	    11.358
  11.680        127.50	    12.369
  11.700        100.83	    11.000
  11.720         92.50	    10.536
  11.740         86.67	    10.198
  11.760         90.83	    10.440
  11.780        115.00	    11.747
  11.800         95.83	    10.724
  11.820        107.50	    11.358
  11.840        114.17	    11.705
  11.860        115.00	    11.747
  11.880        135.00	    12.728
  11.900        103.33	    11.136
  11.920        113.33	    11.662
  11.940        117.50	    11.874
  11.960        130.83	    12.530
  11.980        141.67	    13.038
  12.000        158.33	    13.784
  12.020        177.50	    14.595
  12.040        202.50	    15.588
  12.060        207.50	    15.780
  12.080        276.67	    18.221
  12.100        378.33	    21.307
  12.120        529.17	    25.199
  12.140        615.83	    27.185
  12.160        498.33	    24.454
  12.180        392.50	    21.703
  12.200        291.67	    18.708
  12.220        250.83	    17.349
  12.240        207.50	    15.780
  12.260        239.17	    16.941
  12.280        272.50	    18.083
  12.300        267.50	    17.916
  12.320        240.83	    17.000
  12.340        241.67	    17.029
  12.360        286.67	    18.547
  12.380        262.50	    17.748
  12.400        305.00	    19.131
  12.420        374.17	    21.190
  12.440        387.50	    21.564
  12.460        385.00	    21.494
  12.480        284.17	    18.466
  12.500        197.50	    15.395
  12.520        125.83	    12.288
  12.540        120.00	    12.000
  12.560        120.00	    12.000
  12.580        104.17	    11.180
  12.600        115.83	    11.790
  12.620        100.83	    11.000
  12.640         93.33	    10.583
  12.660         98.33	    10.863
  12.680        102.50	    11.091
  12.700        100.83	    11.000
  12.720         77.50	     9.644
  12.740        109.17	    11.446
  12.760         98.33	    10.863
  12.780        115.00	    11.747
  12.800         98.33	    10.863
  12.820         89.17	    10.344
  12.840         80.83	     9.849
  12.860         93.33	    10.583
  12.880         88.33	    10.296
  12.900         73.33	     9.381
  12.920         82.50	     9.950
  12.940         99.17	    10.909
  12.960         88.33	    10.296
  12.980         90.00	    10.392
  13.000         90.00	    10.392
  13.020         89.17	    10.344
  13.040         90.00	    10.392
  13.060         80.00	     9.798
  13.080         94.17	    10.630
  13.100         87.50	    10.247
  13.120         76.67	     9.592
  13.140         98.33	    10.863
  13.160        101.67	    11.045
  13.180         90.00	    10.392
  13.200         96.67	    10.770
  13.220         91.67	    10.488
  13.240         98.33	    10.863
  13.260         90.00	    10.392
  13.280         85.00	    10.100
  13.300         94.17	    10.630
  13.320         98.33	    10.863
  13.340         88.33	    10.296
  13.360         94.17	    10.630
  13.380         85.83	    10.149
  13.400         82.50	     9.950
  13.420         88.33	    10.296
  13.440         73.33	     9.381
  13.460         94.17	    10.630
  13.480         94.17	    10.630
  13.500         78.33	     9.695
  13.520         81.67	     9.899
  13.540         88.33	    10.296
  13.560         89.17	    10.344
  13.580         92.50	    10.536
  13.600         99.17	    10.909
  13.620        100.00	    10.954
  13.640         92.50	    10.536
  13.660         74.17	     9.434
  13.680         95.83	    10.724
  13.700         88.33	    10.296
  13.720         94.17	    10.630
  13.740        102.50	    11.091
  13.760         92.50	    10.536
  13.780        125.00	    12.247
  13.800        119.17	    11.958
  13.820        109.17	    11.446
  13.840        105.00	    11.225
  13.860        118.33	    11.916
  13.880         82.50	     9.950
  13.900        100.00	    10.954
  13.920         89.17	    10.344
  13.940         94.17	    10.630
  13.960         90.83	    10.440
  13.980         85.83	    10.149
  14.000         80.83	     9.849
  14.020         88.33	    10.296
  14.040         75.00	     9.487
  14.060         85.83	    10.149
  14.080         86.67	    10.198
  14.100         77.50	     9.644
  14.120         82.50	     9.950
  14.140         79.17	     9.747
  14.160         77.50	     9.644
  14.180         81.67	     9.899
  14.200         83.33	    10.000
  14.220         80.83	     9.849
  14.240         72.50	     9.327
  14.260         77.50	     9.644
  14.280         72.50	     9.327
  14.300         81.67	     9.899
  14.320         80.83	     9.849
  14.340         68.33	     9.055
  14.360         72.50	     9.327
  14.380         63.33	     8.718
  14.400         75.83	     9.539
  14.420         93.33	    10.583
  14.440         94.17	    10.630
  14.460         71.67	     9.274
  14.480         83.33	    10.000
  14.500         73.33	     9.381
  14.520         69.17	     9.110
  14.540         79.17	     9.747
  14.560         85.83	    10.149
  14.580         94.17	    10.630
  14.600         71.67	     9.274
  14.620         77.50	     9.644
  14.640         74.17	     9.434
  14.660         80.00	     9.798
  14.680         90.00	    10.392
  14.700         86.67	    10.198
  14.720         80.83	     9.849
  14.740         68.33	     9.055
  14.760         76.67	     9.592
  14.780         59.17	     8.426
  14.800         88.33	    10.296
  14.820         85.00	    10.100
  14.840         80.00	     9.798
  14.860         83.33	    10.000
  14.880         90.83	    10.440
  14.900         81.67	     9.899
  14.920         97.50	    10.817
  14.940        101.67	    11.045
  14.960         82.50	     9.950
  14.980         76.67	     9.592
  15.000         75.00	     9.487
  15.020         84.17	    10.050
  15.040         79.17	     9.747
  15.060         58.33	     8.367
  15.080         86.67	    10.198
  15.100         98.33	    10.863
  15.120         73.33	     9.381
  15.140         72.50	     9.327
  15.160         71.67	     9.274
  15.180         88.33	    10.296
  15.200         60.83	     8.544
  15.220         70.00	     9.165
  15.240         72.50	     9.327
  15.260         66.67	     8.944
  15.280         78.33	     9.695
  15.300         65.00	     8.832
  15.320         78.33	     9.695
  15.340         80.00	     9.798
  15.360         80.00	     9.798
  15.380         65.83	     8.888
  15.400         72.50	     9.327
  15.420         80.00	     9.798
  15.440         73.33	     9.381
  15.460         75.83	     9.539
  15.480         80.83	     9.849
  15.500         68.33	     9.055
  15.520         77.50	     9.644
  15.540         60.00	     8.485
  15.560         75.83	     9.539
  15.580         75.00	     9.487
  15.600         68.33	     9.055
  15.620         75.83	     9.539
  15.640         68.33	     9.055
  15.660         70.83	     9.220
  15.680         76.67	     9.592
  15.700         75.00	     9.487
  15.720         71.67	     9.274
  15.740         69.17	     9.110
  15.760         67.50	     9.000
  15.780         75.00	     9.487
  15.800         75.00	     9.487
  15.820         70.83	     9.220
  15.840         68.33	     9.055
  15.860         74.17	     9.434
  15.880         70.83	     9.220
  15.900         74.17	     9.434
  15.920         66.67	     8.944
  15.940         63.33	     8.718
  15.960         71.67	     9.274
  15.980         68.33	     9.055
  16.000         73.33	     9.381
  16.020         79.17	     9.747
  16.040         69.17	     9.110
  16.060         60.83	     8.544
  16.080         67.50	     9.000
  16.100         79.17	     9.747
  16.120         64.17	     8.775
  16.140         77.50	     9.644
  16.160         69.17	     9.110
  16.180         77.50	     9.644
  16.200         66.67	     8.944
  16.220         61.67	     8.602
  16.240         73.33	     9.381
  16.260         68.33	     9.055
  16.280         71.67	     9.274
  16.300         75.00	     9.487
  16.320         78.33	     9.695
  16.340         74.17	     9.434
  16.360         74.17	     9.434
  16.380         77.50	     9.644
  16.400         58.33	     8.367
  16.420         66.67	     8.944
  16.440         70.83	     9.220
  16.460         83.33	    10.000
  16.480         80.00	     9.798
  16.500         70.00	     9.165
  16.520         71.67	     9.274
  16.540         69.17	     9.110
  16.560         66.67	     8.944
  16.580         68.33	     9.055
  16.600         59.17	     8.426
  16.620         69.17	     9.110
  16.640         62.50	     8.660
  16.660         63.33	     8.718
  16.680         71.67	     9.274
  16.700         66.67	     8.944
  16.720         77.50	     9.644
  16.740         70.00	     9.165
  16.760         62.50	     8.660
  16.780         85.00	    10.100
  16.800         76.67	     9.592
  16.820         75.83	     9.539
  16.840         73.33	     9.381
  16.860         61.67	     8.602
  16.880         60.00	     8.485
  16.900         75.00	     9.487
  16.920         70.00	     9.165
  16.940         79.17	     9.747
  16.960         70.00	     9.165
  16.980         75.00	     9.487
  17.000         60.00	     8.485
  17.020         75.00	     9.487
  17.040         65.83	     8.888
  17.060         80.83	     9.849
  17.080         58.33	     8.367
  17.100         81.67	     9.899
  17.120         77.50	     9.644
  17.140         75.00	     9.487
  17.160         50.83	     7.810
  17.180         77.50	     9.644
  17.200         71.67	     9.274
  17.220         80.83	     9.849
  17.240         74.17	     9.434
  17.260        120.83	    12.042
  17.280        131.67	    12.570
  17.300         91.67	    10.488
  17.320         79.17	     9.747
  17.340         76.67	     9.592
  17.360         61.67	     8.602
  17.380         65.00	     8.832
  17.400         95.00	    10.677
  17.420         90.83	    10.440
  17.440         70.83	     9.220
  17.460         60.83	     8.544
  17.480         85.83	    10.149
  17.500         88.33	    10.296
  17.520         68.33	     9.055
  17.540         86.67	    10.198
  17.560         70.00	     9.165
  17.580         93.33	    10.583
  17.600         88.33	    10.296
  17.620         75.00	     9.487
  17.640        100.83	    11.000
  17.660        105.00	    11.225
  17.680        131.67	    12.570
  17.700        174.17	    14.457
  17.720        215.00	    16.062
  17.740        261.67	    17.720
  17.760        282.50	    18.412
  17.780        299.17	    18.947
  17.800        260.00	    17.664
  17.820        211.67	    15.937
  17.840        142.50	    13.077
  17.860        127.50	    12.369
  17.880         88.33	    10.296
  17.900         90.83	    10.440
  17.920         80.83	     9.849
  17.940         64.17	     8.775
  17.960         82.50	     9.950
  17.980         67.50	     9.000
  18.000         82.50	     9.950
  18.020         82.50	     9.950
  18.040         86.67	    10.198
  18.060         73.33	     9.381
  18.080         80.00	     9.798
  18.100         67.50	     9.000
  18.120         67.50	     9.000
  18.140         76.67	     9.592
  18.160         79.17	     9.747
  18.180         78.33	     9.695
  18.200         72.50	     9.327
  18.220         74.17	     9.434
  18.240         71.67	     9.274
  18.260         70.00	     9.165
  18.280         69.17	     9.110
  18.300         68.33	     9.055
  18.320         70.83	     9.220
  18.340         70.00	     9.165
  18.360         92.50	    10.536
  18.380         94.17	    10.630
  18.400         85.83	    10.149
  18.420        104.17	    11.180
  18.440         88.33	    10.296
  18.460        117.50	    11.874
  18.480        125.83	    12.288
  18.500        125.83	    12.288
  18.520        130.00	    12.490
  18.540        140.00	    12.961
  18.560        115.00	    11.747
  18.580        101.67	    11.045
  18.600        121.67	    12.083
  18.620         94.17	    10.630
  18.640        112.50	    11.619
  18.660        127.50	    12.369
  18.680        135.83	    12.767
  18.700        159.17	    13.820
  18.720        166.67	    14.142
  18.740        182.50	    14.799
  18.760        165.83	    14.107
  18.780        144.17	    13.153
  18.800        128.33	    12.410
  18.820         98.33	    10.863
  18.840         85.00	    10.100
  18.860         81.67	     9.899
  18.880         85.83	    10.149
  18.900         75.00	     9.487
  18.920         75.83	     9.539
  18.940         72.50	     9.327
  18.960         83.33	    10.000
  18.980         69.17	     9.110
  19.000         64.17	     8.775
  19.020         79.17	     9.747
  19.040         67.50	     9.000
  19.060         63.33	     8.718
  19.080         80.83	     9.849
  19.100         87.50	    10.247
  19.120         83.33	    10.000
  19.140         86.67	    10.198
  19.160         66.67	     8.944
  19.180         88.33	    10.296
  19.200         66.67	     8.944
  19.220         80.83	     9.849
  19.240         84.17	    10.050
  19.260         81.67	     9.899
  19.280         83.33	    10.000
  19.300         75.00	     9.487
  19.320         80.83	     9.849
  19.340         72.50	     9.327
  19.360         76.67	     9.592
  19.380         76.67	     9.592
  19.400         72.50	     9.327
  19.420         80.00	     9.798
  19.440         72.50	     9.327
  19.460         85.00	    10.100
  19.480         85.00	    10.100
  19.500         69.17	     9.110
  19.520         66.67	     8.944
  19.540         73.33	     9.381
  19.560         66.67	     8.944
  19.580         93.33	    10.583
  19.600         76.67	     9.592
  19.620         95.00	    10.677
  19.640        109.17	    11.446
  19.660        105.00	    11.225
  19.680         81.67	     9.899
  19.700        102.50	    11.091
  19.720        105.83	    11.269
  19.740        100.83	    11.000
  19.760        110.00	    11.489
  19.780        117.50	    11.874
  19.800        116.67	    11.832
  19.820        103.33	    11.136
  19.840        104.17	    11.180
  19.860         89.17	    10.344
  19.880         77.50	     9.644
  19.900         81.67	     9.899
  19.920         82.50	     9.950
  19.940         67.50	     9.000
  19.960         88.33	    10.296
  19.980         75.83	     9.539
  20.000         94.17	    10.630
  20.020         77.50	     9.644
  20.040         83.33	    10.000
  20.060         96.67	    10.770
  20.080         73.33	     9.381
  20.100         69.17	     9.110
  20.120         61.67	     8.602
  20.140         72.50	     9.327
  20.160         71.67	     9.274
  20.180         67.50	     9.000
  20.200         70.83	     9.220
  20.220         75.00	     9.487
  20.240         62.50	     8.660
  20.260         50.00	     7.746
  20.280         63.33	     8.718
  20.300         60.00	     8.485
  20.320         69.17	     9.110
  20.340         87.50	    10.247
  20.360         70.00	     9.165
  20.380         75.83	     9.539
  20.400         75.00	     9.487
  20.420         65.00	     8.832
  20.440         65.83	     8.888
  20.460         81.67	     9.899
  20.480         75.83	     9.539
  20.500         61.67	     8.602
  20.520         81.67	     9.899
  20.540         80.83	     9.849
  20.560         92.50	    10.536
  20.580         84.17	    10.050
  20.600         83.33	    10.000
  20.620         83.33	    10.000
  20.640         84.17	    10.050
  20.660         73.33	     9.381
  20.680         79.17	     9.747
  20.700        101.67	    11.045
  20.720        121.67	    12.083
  20.740        135.83	    12.767
  20.760        239.17	    16.941
  20.780        371.67	    21.119
  20.800        384.17	    21.471
  20.820        357.50	    20.712
  20.840        287.50	    18.574
  20.860        240.00	    16.971
  20.880        164.17	    14.036
  20.900        109.17	    11.446
  20.920         90.83	    10.440
  20.940         91.67	    10.488
  20.960         87.50	    10.247
  20.980         90.83	    10.440
  21.000         90.83	    10.440
  21.020         84.17	    10.050
  21.040         78.33	     9.695
  21.060         77.50	     9.644
  21.080         78.33	     9.695
  21.100         74.17	     9.434
  21.120         73.33	     9.381
  21.140         76.67	     9.592
  21.160         70.00	     9.165
  21.180         69.17	     9.110
  21.200         60.00	     8.485
  21.220         55.83	     8.185
  21.240         69.17	     9.110
  21.260         57.50	     8.307
  21.280         64.17	     8.775
  21.300         72.50	     9.327
  21.320         66.67	     8.944
  21.340         72.50	     9.327
  21.360         70.00	     9.165
  21.380         48.33	     7.616
  21.400         69.17	     9.110
  21.420         65.00	     8.832
  21.440         65.00	     8.832
  21.460         73.33	     9.381
  21.480         64.17	     8.775
  21.500         80.83	     9.849
  21.520         74.17	     9.434
  21.540         80.83	     9.849
  21.560         68.33	     9.055
  21.580         55.83	     8.185
  21.600         62.50	     8.660
  21.620         70.00	     9.165
  21.640         67.50	     9.000
  21.660         66.67	     8.944
  21.680         54.17	     8.062
  21.700         54.17	     8.062
  21.720         62.50	     8.660
  21.740         68.33	     9.055
  21.760         52.50	     7.937
  21.780         57.50	     8.307
  21.800         71.67	     9.274
  21.820         70.00	     9.165
  21.840         66.67	     8.944
  21.860         68.33	     9.055
  21.880         81.67	     9.899
  21.900         84.17	    10.050
  21.920        126.67	    12.329
  21.940        176.67	    14.560
  21.960        192.50	    15.199
  21.980        173.33	    14.422
  22.000        158.33	    13.784
  22.020        175.83	    14.526
  22.040        111.67	    11.576
  22.060        130.00	    12.490
  22.080        110.00	    11.489
  22.100         98.33	    10.863
  22.120         94.17	    10.630
  22.140         83.33	    10.000
  22.160         88.33	    10.296
  22.180         63.33	     8.718
  22.200         57.50	     8.307
  22.220         65.83	     8.888
  22.240         70.83	     9.220
  22.260         60.83	     8.544
  22.280         66.67	     8.944
  22.300         65.00	     8.832
  22.320         69.17	     9.110
  22.340         53.33	     8.000
  22.360         70.00	     9.165
  22.380         70.00	     9.165
  22.400         66.67	     8.944
  22.420         69.17	     9.110
  22.440         62.50	     8.660
  22.460         72.50	     9.327
  22.480         62.50	     8.660
  22.500         52.50	     7.937
  22.520         65.83	     8.888
  22.540         50.83	     7.810
  22.560         65.00	     8.832
  22.580         62.50	     8.660
  22.600         61.67	     8.602
  22.620         52.50	     7.937
  22.640         60.83	     8.544
  22.660         64.17	     8.775
  22.680         70.00	     9.165
  22.700         65.00	     8.832
  22.720         61.67	     8.602
  22.740         81.67	     9.899
  22.760         71.67	     9.274
  22.780         95.83	    10.724
  22.800         99.17	    10.909
  22.820         93.33	    10.583
  22.840        112.50	    11.619
  22.860         96.67	    10.770
  22.880        112.50	    11.619
  22.900        100.83	    11.000
  22.920         96.67	    10.770
  22.940        110.83	    11.533
  22.960         80.83	     9.849
  22.980         91.67	    10.488
  23.000         91.67	    10.488
  23.020         80.00	     9.798
  23.040         81.67	     9.899
  23.060         73.33	     9.381
  23.080         71.67	     9.274
  23.100         59.17	     8.426
  23.120         64.17	     8.775
  23.140         66.67	     8.944
  23.160         65.00	     8.832
  23.180         61.67	     8.602
  23.200         76.67	     9.592
  23.220         65.83	     8.888
  23.240         72.50	     9.327
  23.260         66.67	     8.944
  23.280         64.17	     8.775
  23.300         68.33	     9.055
  23.320         70.00	     9.165
  23.340         65.00	     8.832
  23.360         75.83	     9.539
  23.380         60.00	     8.485
  23.400         83.33	    10.000
  23.420         81.67	     9.899
  23.440        105.83	    11.269
  23.460        140.83	    13.000
  23.480        141.67	    13.038
  23.500        165.00	    14.071
  23.520        140.00	    12.961
  23.540        153.33	    13.565
  23.560        132.50	    12.610
  23.580         92.50	    10.536
  23.600         85.00	    10.100
  23.620        100.00	    10.954
  23.640         80.83	     9.849
  23.660         71.67	     9.274
  23.680         91.67	    10.488
  23.700         90.00	    10.392
  23.720         90.00	    10.392
  23.740         87.50	    10.247
  23.760         92.50	    10.536
  23.780         81.67	     9.899
  23.800         90.83	    10.440
  23.820        100.83	    11.000
  23.840         91.67	    10.488
  23.860         95.83	    10.724
  23.880         82.50	     9.950
  23.900         88.33	    10.296
  23.920         68.33	     9.055
  23.940         81.67	     9.899
  23.960        102.50	    11.091
  23.980         98.33	    10.863
  24.000        126.67	    12.329
  24.020         83.33	    10.000
  24.040         91.67	    10.488
  24.060         96.67	    10.770
  24.080        100.83	    11.000
  24.100        104.17	    11.180
  24.120         87.50	    10.247
  24.140        109.17	    11.446
  24.160        118.33	    11.916
  24.180        109.17	    11.446
  24.200        127.50	    12.369
  24.220        137.50	    12.845
  24.240        128.33	    12.410
  24.260        124.17	    12.207
  24.280        129.17	    12.450
  24.300         92.50	    10.536
  24.320        120.83	    12.042
  24.340         98.33	    10.863
  24.360         92.50	    10.536
  24.380        103.33	    11.136
  24.400        115.00	    11.747
  24.420        119.17	    11.958
  24.440        138.33	    12.884
  24.460        175.00	    14.491
  24.480        226.67	    16.492
  24.500        284.17	    18.466
  24.520        307.50	    19.209
  24.540        346.67	    20.396
  24.560        348.33	    20.445
  24.580        359.17	    20.761
  24.600        305.00	    19.131
  24.620        290.00	    18.655
  24.640        246.67	    17.205
  24.660        195.83	    15.330
  24.680        165.83	    14.107
  24.700        157.50	    13.748
  24.720        152.50	    13.528
  24.740        142.50	    13.077
  24.760        155.83	    13.675
  24.780        155.83	    13.675
  24.800        145.00	    13.191
  24.820        143.33	    13.115
  24.840        134.17	    12.689
  24.860        149.17	    13.379
  24.880        148.33	    13.342
  24.900        177.50	    14.595
  24.920        135.83	    12.767
  24.940        146.67	    13.266
  24.960        145.83	    13.229
  24.980        134.17	    12.689
  25.000        172.50	    14.387
  25.020        176.67	    14.560
  25.040        200.83	    15.524
  25.060        280.83	    18.358
  25.080        330.00	    19.900
  25.100        351.67	    20.543
  25.120        288.33	    18.601
  25.140        280.83	    18.358
  25.160        220.00	    16.248
  25.180        206.67	    15.748
  25.200        173.33	    14.422
  25.220        145.00	    13.191
  25.240        120.00	    12.000
  25.260        133.33	    12.649
  25.280        123.33	    12.166
  25.300        180.00	    14.697
  25.320        270.83	    18.028
  25.340        234.17	    16.763
  25.360        193.33	    15.232
  25.380        224.17	    16.401
  25.400        217.50	    16.155
  25.420        169.17	    14.248
  25.440        170.00	    14.283
  25.460        165.00	    14.071
  25.480        155.83	    13.675
  25.500        139.17	    12.923
  25.520        124.17	    12.207
  25.540        130.00	    12.490
  25.560        125.00	    12.247
  25.580        130.83	    12.530
  25.600        128.33	    12.410
  25.620        100.00	    10.954
  25.640        105.00	    11.225
  25.660         91.67	    10.488
  25.680         90.00	    10.392
  25.700         86.67	    10.198
  25.720         85.00	    10.100
  25.740         75.00	     9.487
  25.760         93.33	    10.583
  25.780         73.33	     9.381
  25.800         67.50	     9.000
  25.820         71.67	     9.274
  25.840         63.33	     8.718
  25.860         77.50	     9.644
  25.880         68.33	     9.055
  25.900         95.00	    10.677
  25.920         87.50	    10.247
  25.940         90.00	    10.392
  25.960         77.50	     9.644
  25.980         74.17	     9.434
  26.000         85.83	    10.149
  26.020         67.50	     9.000
  26.040         85.83	    10.149
  26.060         73.33	     9.381
  26.080         71.67	     9.274
  26.100         96.67	    10.770
  26.120         70.83	     9.220
  26.140         99.17	    10.909
  26.160         94.17	    10.630
  26.180         96.67	    10.770
  26.200         90.83	    10.440
  26.220        108.33	    11.402
  26.240        100.83	    11.000
  26.260        121.67	    12.083
  26.280        107.50	    11.358
  26.300        140.83	    13.000
  26.320        141.67	    13.038
  26.340        158.33	    13.784
  26.360        185.00	    14.900
  26.380        198.33	    15.427
  26.400        208.33	    15.811
  26.420        237.50	    16.882
  26.440        252.50	    17.407
  26.460        255.83	    17.521
  26.480        313.33	    19.391
  26.500        410.00	    22.181
  26.520        662.50	    28.196
  26.540       1274.17	    39.102
  26.560       2123.33	    50.478
  26.580       2304.17	    52.583
  26.600       1731.67	    45.585
  26.620       1519.17	    42.697
  26.640       1448.33	    41.689
  26.660        995.00	    34.554
  26.680        667.50	    28.302
  26.700        430.83	    22.738
  26.720        391.67	    21.679
  26.740        431.67	    22.760
  26.760        574.17	    26.249
  26.780        587.50	    26.552
  26.800        651.67	    27.964
  26.820        658.33	    28.107
  26.840        606.67	    26.981
  26.860        535.83	    25.357
  26.880        409.17	    22.159
  26.900        355.83	    20.664
  26.920        270.00	    18.000
  26.940        195.83	    15.330
  26.960        155.83	    13.675
  26.980        164.17	    14.036
  27.000        135.83	    12.767
  27.020        119.17	    11.958
  27.040        126.67	    12.329
  27.060        120.83	    12.042
  27.080        102.50	    11.091
  27.100         90.83	    10.440
  27.120         90.00	    10.392
  27.140         80.83	     9.849
  27.160         89.17	    10.344
  27.180         86.67	    10.198
  27.200         97.50	    10.817
  27.220        100.00	    10.954
  27.240         89.17	    10.344
  27.260        108.33	    11.402
  27.280         94.17	    10.630
  27.300         90.83	    10.440
  27.320        100.83	    11.000
  27.340        123.33	    12.166
  27.360        120.83	    12.042
  27.380        157.50	    13.748
  27.400        177.50	    14.595
  27.420        191.67	    15.166
  27.440        288.33	    18.601
  27.460        332.50	    19.975
  27.480        274.17	    18.138
  27.500        220.83	    16.279
  27.520        230.00	    16.613
  27.540        200.83	    15.524
  27.560        166.67	    14.142
  27.580        122.50	    12.124
  27.600        138.33	    12.884
  27.620        151.67	    13.491
  27.640        211.67	    15.937
  27.660        222.50	    16.340
  27.680        215.83	    16.093
  27.700        215.00	    16.062
  27.720        240.83	    17.000
  27.740        269.17	    17.972
  27.760        241.67	    17.029
  27.780        262.50	    17.748
  27.800        320.00	    19.596
  27.820        430.83	    22.738
  27.840        549.17	    25.671
  27.860        557.50	    25.865
  27.880        550.00	    25.690
  27.900        463.33	    23.580
  27.920        503.33	    24.576
  27.940        324.17	    19.723
  27.960        303.33	    19.079
  27.980        190.83	    15.133
  28.000        165.83	    14.107
  28.020        153.33	    13.565
  28.040        160.83	    13.892
  28.060        223.33	    16.371
  28.080        310.00	    19.287
  28.100        255.00	    17.493
  28.120        220.83	    16.279
  28.140        259.17	    17.635
  28.160        272.50	    18.083
  28.180        234.17	    16.763
  28.200        202.50	    15.588
  28.220        167.50	    14.177
  28.240        148.33	    13.342
  28.260        138.33	    12.884
  28.280        133.33	    12.649
  28.300        107.50	    11.358
  28.320        106.67	    11.314
  28.340         76.67	     9.592
  28.360         76.67	     9.592
  28.380         74.17	     9.434
  28.400         69.17	     9.110
  28.420         91.67	    10.488
  28.440         90.00	    10.392
  28.460         98.33	    10.863
  28.480         90.83	    10.440
  28.500        104.17	    11.180
  28.520        137.50	    12.845
  28.540        165.00	    14.071
  28.560        206.67	    15.748
  28.580        242.50	    17.059
  28.600        266.67	    17.889
  28.620        236.67	    16.852
  28.640        215.00	    16.062
  28.660        185.83	    14.933
  28.680        157.50	    13.748
  28.700        149.17	    13.379
  28.720        115.00	    11.747
  28.740         90.83	    10.440
  28.760         73.33	     9.381
  28.780         77.50	     9.644
  28.800         68.33	     9.055
  28.820         72.50	     9.327
  28.840         71.67	     9.274
  28.860         65.83	     8.888
  28.880         50.00	     7.746
  28.900         63.33	     8.718
  28.920         60.83	     8.544
  28.940         68.33	     9.055
  28.960         75.83	     9.539
  28.980         68.33	     9.055
  29.000         51.67	     7.874
  29.020         57.50	     8.307
  29.040         79.17	     9.747
  29.060         50.83	     7.810
  29.080         63.33	     8.718
  29.100         58.33	     8.367
  29.120         55.83	     8.185
  29.140         59.17	     8.426
  29.160         47.50	     7.550
  29.180         45.83	     7.416
  29.200         58.33	     8.367
  29.220         55.00	     8.124
  29.240         50.83	     7.810
  29.260         51.67	     7.874
  29.280         53.33	     8.000
  29.300         50.83	     7.810
  29.320         64.17	     8.775
  29.340         55.83	     8.185
  29.360         64.17	     8.775
  29.380         66.67	     8.944
  29.400         53.33	     8.000
  29.420         61.67	     8.602
  29.440         62.50	     8.660
  29.460         66.67	     8.944
  29.480         68.33	     9.055
  29.500         80.00	     9.798
  29.520         66.67	     8.944
  29.540         64.17	     8.775
  29.560         76.67	     9.592
  29.580         69.17	     9.110
  29.600         82.50	     9.950
  29.620         80.00	     9.798
  29.640         65.00	     8.832
  29.660         78.33	     9.695
  29.680         78.33	     9.695
  29.700         64.17	     8.775
  29.720         95.83	    10.724
  29.740         99.17	    10.909
  29.760        110.83	    11.533
  29.780        125.00	    12.247
  29.800        125.83	    12.288
  29.820        136.67	    12.806
  29.840        126.67	    12.329
  29.860        128.33	    12.410
  29.880        127.50	    12.369
  29.900        135.83	    12.767
  29.920        116.67	    11.832
  29.940         99.17	    10.909
  29.960        115.00	    11.747
  29.980         88.33	    10.296
  30.000        110.83	    11.533
  30.020        124.17	    12.207
  30.040        122.50	    12.124
  30.060        128.33	    12.410
  30.080        107.50	    11.358
  30.100         95.83	    10.724
  30.120         80.83	     9.849
  30.140         92.50	    10.536
  30.160        102.50	    11.091
  30.180         91.67	    10.488
  30.200         86.67	    10.198
  30.220         80.83	     9.849
  30.240         60.83	     8.544
  30.260         77.50	     9.644
  30.280         75.83	     9.539
  30.300         94.17	    10.630
  30.320        115.83	    11.790
  30.340        110.00	    11.489
  30.360         97.50	    10.817
  30.380        104.17	    11.180
  30.400         87.50	    10.247
  30.420        121.67	    12.083
  30.440         95.00	    10.677
  30.460        106.67	    11.314
  30.480         79.17	     9.747
  30.500         85.00	    10.100
  30.520         67.50	     9.000
  30.540         71.67	     9.274
  30.560         80.83	     9.849
  30.580         67.50	     9.000
  30.600         48.33	     7.616
  30.620         61.67	     8.602
  30.640         59.17	     8.426
  30.660         59.17	     8.426
  30.680         58.33	     8.367
  30.700         60.00	     8.485
  30.720         74.17	     9.434
  30.740         97.50	    10.817
  30.760        111.67	    11.576
  30.780        124.17	    12.207
  30.800        120.83	    12.042
  30.820        115.83	    11.790
  30.840        118.33	    11.916
  30.860        155.83	    13.675
  30.880        139.17	    12.923
  30.900        108.33	    11.402
  30.920         83.33	    10.000
  30.940        101.67	    11.045
  30.960         95.83	    10.724
  30.980         87.50	    10.247
  31.000         86.67	    10.198
  31.020         64.17	     8.775
  31.040         89.17	    10.344
  31.060         65.83	     8.888
  31.080         80.83	     9.849
  31.100         87.50	    10.247
  31.120         98.33	    10.863
  31.140        109.17	    11.446
  31.160        133.33	    12.649
  31.180        117.50	    11.874
  31.200        148.33	    13.342
  31.220        132.50	    12.610
  31.240         91.67	    10.488
  31.260        105.83	    11.269
  31.280        102.50	    11.091
  31.300         91.67	    10.488
  31.320         72.50	     9.327
  31.340         88.33	    10.296
  31.360         69.17	     9.110
  31.380         70.00	     9.165
  31.400         68.33	     9.055
  31.420         75.83	     9.539
  31.440         80.83	     9.849
  31.460         58.33	     8.367
  31.480         68.33	     9.055
  31.500         85.00	    10.100
  31.520        109.17	    11.446
  31.540         95.00	    10.677
  31.560         90.83	    10.440
  31.580         90.83	    10.440
  31.600         60.00	     8.485
  31.620         70.00	     9.165
  31.640         58.33	     8.367
  31.660         62.50	     8.660
  31.680         71.67	     9.274
  31.700         70.00	     9.165
  31.720         55.00	     8.124
  31.740         62.50	     8.660
  31.760         75.83	     9.539
  31.780         80.83	     9.849
  31.800         90.83	    10.440
  31.820         81.67	     9.899
  31.840         73.33	     9.381
  31.860         70.00	     9.165
  31.880         80.00	     9.798
  31.900         76.67	     9.592
  31.920         72.50	     9.327
  31.940         85.00	    10.100
  31.960         82.50	     9.950
  31.980         81.67	     9.899
  32.000         84.17	    10.050
  32.020         83.33	    10.000
  32.040         78.33	     9.695
  32.060         93.33	    10.583
  32.080         90.00	    10.392
  32.100        102.50	    11.091
  32.120         85.00	    10.100
  32.140        100.00	    10.954
  32.160         75.83	     9.539
  32.180         76.67	     9.592
  32.200         71.67	     9.274
  32.220         60.00	     8.485
  32.240         74.17	     9.434
  32.260         70.00	     9.165
  32.280         65.00	     8.832
  32.300         62.50	     8.660
  32.320         53.33	     8.000
  32.340         49.17	     7.681
  32.360         58.33	     8.367
  32.380         56.67	     8.246
  32.400         47.50	     7.550
  32.420         50.00	     7.746
  32.440         50.83	     7.810
  32.460         46.67	     7.483
  32.480         52.50	     7.937
  32.500         56.67	     8.246
  32.520         42.50	     7.141
  32.540         52.50	     7.937
  32.560         41.67	     7.071
  32.580         54.17	     8.062
  32.600         57.50	     8.307
  32.620         54.17	     8.062
  32.640         39.17	     6.856
  32.660         44.17	     7.280
  32.680         54.17	     8.062
  32.700         60.00	     8.485
  32.720         50.83	     7.810
  32.740         50.00	     7.746
  32.760         62.50	     8.660
  32.780         54.17	     8.062
  32.800         60.00	     8.485
  32.820         50.00	     7.746
  32.840         59.17	     8.426
  32.860         55.83	     8.185
  32.880         54.17	     8.062
  32.900         55.83	     8.185
  32.920         63.33	     8.718
  32.940        103.33	    11.136
  32.960        133.33	    12.649
  32.980        108.33	    11.402
  33.000        101.67	    11.045
  33.020        102.50	    11.091
  33.040        105.83	    11.269
  33.060         90.83	    10.440
  33.080         85.00	    10.100
  33.100         77.50	     9.644
  33.120         79.17	     9.747
  33.140         64.17	     8.775
  33.160         67.50	     9.000
  33.180         55.83	     8.185
  33.200         73.33	     9.381
  33.220         59.17	     8.426
  33.240         62.50	     8.660
  33.260         68.33	     9.055
  33.280         70.00	     9.165
  33.300         82.50	     9.950
  33.320         63.33	     8.718
  33.340         75.00	     9.487
  33.360         65.00	     8.832
  33.380         54.17	     8.062
  33.400         73.33	     9.381
  33.420         57.50	     8.307
  33.440         73.33	     9.381
  33.460         81.67	     9.899
  33.480         54.17	     8.062
  33.500         53.33	     8.000
  33.520         57.50	     8.307
  33.540         54.17	     8.062
  33.560         53.33	     8.000
  33.580         53.33	     8.000
  33.600         57.50	     8.307
  33.620         45.83	     7.416
  33.640         56.67	     8.246
  33.660         41.67	     7.071
  33.680         53.33	     8.000
  33.700         54.17	     8.062
  33.720         65.83	     8.888
  33.740         52.50	     7.937
  33.760         53.33	     8.000
  33.780         55.83	     8.185
  33.800         60.00	     8.485
  33.820         57.50	     8.307
  33.840         66.67	     8.944
  33.860         74.17	     9.434
  33.880         85.83	    10.149
  33.900         93.33	    10.583
  33.920         79.17	     9.747
  33.940         87.50	    10.247
  33.960         84.17	    10.050
  33.980         72.50	     9.327
  34.000         72.50	     9.327
  34.020         70.83	     9.220
  34.040         81.67	     9.899
  34.060         94.17	    10.630
  34.080         67.50	     9.000
  34.100         77.50	     9.644
  34.120         79.17	     9.747
  34.140         64.17	     8.775
  34.160         59.17	     8.426
  34.180         61.67	     8.602
  34.200         65.83	     8.888
  34.220         82.50	     9.950
  34.240         57.50	     8.307
  34.260         76.67	     9.592
  34.280         78.33	     9.695
  34.300         70.83	     9.220
  34.320         79.17	     9.747
  34.340         88.33	    10.296
  34.360         85.83	    10.149
  34.380        107.50	    11.358
  34.400        108.33	    11.402
  34.420        131.67	    12.570
  34.440        135.83	    12.767
  34.460        120.83	    12.042
  34.480        120.00	    12.000
  34.500        114.17	    11.705
  34.520         99.17	    10.909
  34.540        130.83	    12.530
  34.560        103.33	    11.136
  34.580        104.17	    11.180
  34.600         80.83	     9.849
  34.620         92.50	    10.536
  34.640         77.50	     9.644
  34.660         94.17	    10.630
  34.680         86.67	    10.198
  34.700         84.17	    10.050
  34.720         89.17	    10.344
  34.740         95.83	    10.724
  34.760         85.83	    10.149
  34.780         98.33	    10.863
  34.800        103.33	    11.136
  34.820        114.17	    11.705
  34.840        117.50	    11.874
  34.860        134.17	    12.689
  34.880        157.50	    13.748
  34.900        140.83	    13.000
  34.920        163.33	    14.000
  34.940        152.50	    13.528
  34.960        160.83	    13.892
  34.980        139.17	    12.923
  35.000        134.17	    12.689
  35.020        145.00	    13.191
  35.040        127.50	    12.369
  35.060        131.67	    12.570
  35.080        120.00	    12.000
  35.100        108.33	    11.402
  35.120        113.33	    11.662
  35.140         93.33	    10.583
  35.160         88.33	    10.296
  35.180        103.33	    11.136
  35.200         80.00	     9.798
  35.220         75.83	     9.539
  35.240         90.00	    10.392
  35.260         95.00	    10.677
  35.280        105.83	    11.269
  35.300         85.83	    10.149
  35.320        107.50	    11.358
  35.340        107.50	    11.358
  35.360        128.33	    12.410
  35.380        139.17	    12.923
  35.400        150.00	    13.416
  35.420        163.33	    14.000
  35.440        178.33	    14.629
  35.460        205.83	    15.716
  35.480        199.17	    15.460
  35.500        181.67	    14.765
  35.520        165.83	    14.107
  35.540        165.00	    14.071
  35.560        171.67	    14.353
  35.580        190.00	    15.100
  35.600        255.00	    17.493
  35.620        213.33	    16.000
  35.640        169.17	    14.248
  35.660        115.83	    11.790
  35.680        140.00	    12.961
  35.700        177.50	    14.595
  35.720        120.00	    12.000
  35.740        106.67	    11.314
  35.760         86.67	    10.198
  35.780         87.50	    10.247
  35.800         73.33	     9.381
  35.820         79.17	     9.747
  35.840         81.67	     9.899
  35.860         75.83	     9.539
  35.880         84.17	    10.050
  35.900         79.17	     9.747
  35.920         74.17	     9.434
  35.940         93.33	    10.583
  35.960         87.50	    10.247
  35.980         85.83	    10.149
  36.000        100.83	    11.000
  36.020         78.33	     9.695
  36.040         88.33	    10.296
  36.060        100.83	    11.000
  36.080         85.83	    10.149
  36.100         79.17	     9.747
  36.120         83.33	    10.000
  36.140         81.67	     9.899
  36.160         71.67	     9.274
  36.180         75.00	     9.487
  36.200         80.00	     9.798
  36.220         55.83	     8.185
  36.240         53.33	     8.000
  36.260         49.17	     7.681
  36.280         55.83	     8.185
  36.300         72.50	     9.327
  36.320         70.83	     9.220
  36.340         88.33	    10.296
  36.360        105.00	    11.225
  36.380        102.50	    11.091
  36.400        103.33	    11.136
  36.420        120.83	    12.042
  36.440        175.83	    14.526
  36.460        248.33	    17.263
  36.480        294.17	    18.788
  36.500        265.00	    17.833
  36.520        185.00	    14.900
  36.540        167.50	    14.177
  36.560        178.33	    14.629
  36.580        164.17	    14.036
  36.600        169.17	    14.248
  36.620        125.83	    12.288
  36.640        101.67	    11.045
  36.660        101.67	    11.045
  36.680         90.83	    10.440
  36.700        102.50	    11.091
  36.720         98.33	    10.863
  36.740         71.67	     9.274
  36.760         74.17	     9.434
  36.780         75.00	     9.487
  36.800         85.00	    10.100
  36.820         65.83	     8.888
  36.840         82.50	     9.950
  36.860         59.17	     8.426
  36.880         83.33	    10.000
  36.900         69.17	     9.110
  36.920         66.67	     8.944
  36.940         80.83	     9.849
  36.960         85.83	    10.149
  36.980         80.00	     9.798
  37.000         80.00	     9.798
  37.020         63.33	     8.718
  37.040        100.00	    10.954
  37.060         90.00	    10.392
  37.080         78.33	     9.695
  37.100         87.50	    10.247
  37.120         75.00	     9.487
  37.140         82.50	     9.950
  37.160         79.17	     9.747
  37.180         65.83	     8.888
  37.200         78.33	     9.695
  37.220         83.33	    10.000
  37.240        100.83	    11.000
  37.260         92.50	    10.536
  37.280        108.33	    11.402
  37.300         90.00	    10.392
  37.320         85.00	    10.100
  37.340         84.17	    10.050
  37.360         82.50	     9.950
  37.380         89.17	    10.344
  37.400         95.00	    10.677
  37.420         98.33	    10.863
  37.440         90.83	    10.440
  37.460         80.83	     9.849
  37.480         75.83	     9.539
  37.500         82.50	     9.950
  37.520         81.67	     9.899
  37.540         96.67	    10.770
  37.560         75.83	     9.539
  37.580         91.67	    10.488
  37.600         96.67	    10.770
  37.620         88.33	    10.296
  37.640         80.00	     9.798
  37.660         85.83	    10.149
  37.680         95.00	    10.677
  37.700         77.50	     9.644
  37.720         74.17	     9.434
  37.740         70.83	     9.220
  37.760         63.33	     8.718
  37.780         64.17	     8.775
  37.800         66.67	     8.944
  37.820         63.33	     8.718
  37.840         73.33	     9.381
  37.860         63.33	     8.718
  37.880         55.00	     8.124
  37.900         42.50	     7.141
  37.920         35.83	     6.557
  37.940         41.67	     7.071
  37.960         46.67	     7.483
  37.980         50.83	     7.810
  38.000         55.00	     8.124
  38.020         45.00	     7.348
  38.040         43.33	     7.211
  38.060         58.33	     8.367
  38.080         30.83	     6.083
  38.100         37.50	     6.708
  38.120         46.67	     7.483
  38.140         47.50	     7.550
  38.160         54.17	     8.062
  38.180         51.67	     7.874
  38.200         31.67	     6.164
  38.220         36.67	     6.633
  38.240         42.50	     7.141
  38.260         47.50	     7.550
  38.280         49.17	     7.681
  38.300         40.83	     7.000
  38.320         34.17	     6.403
  38.340         45.83	     7.416
  38.360         49.17	     7.681
  38.380         53.33	     8.000
  38.400         50.00	     7.746
  38.420         47.50	     7.550
  38.440         45.00	     7.348
  38.460         53.33	     8.000
  38.480         53.33	     8.000
  38.500         47.50	     7.550
  38.520         44.17	     7.280
  38.540         57.50	     8.307
  38.560         52.50	     7.937
  38.580         60.83	     8.544
  38.600         65.00	     8.832
  38.620         55.83	     8.185
  38.640         47.50	     7.550
  38.660         45.83	     7.416
  38.680         55.00	     8.124
  38.700         50.83	     7.810
  38.720         59.17	     8.426
  38.740         65.00	     8.832
  38.760         52.50	     7.937
  38.780         72.50	     9.327
  38.800         59.17	     8.426
  38.820         59.17	     8.426
  38.840         62.50	     8.660
  38.860         61.67	     8.602
  38.880         53.33	     8.000
  38.900         40.83	     7.000
  38.920         56.67	     8.246
  38.940         46.67	     7.483
  38.960         43.33	     7.211
  38.980         45.00	     7.348
  39.000         51.67	     7.874
  39.020         45.00	     7.348
  39.040         61.67	     8.602
  39.060         55.83	     8.185
  39.080         59.17	     8.426
  39.100         47.50	     7.550
  39.120         55.00	     8.124
  39.140         58.33	     8.367
  39.160         51.67	     7.874
  39.180         62.50	     8.660
  39.200         61.67	     8.602
  39.220         64.17	     8.775
  39.240         60.83	     8.544
  39.260         50.83	     7.810
  39.280         55.83	     8.185
  39.300         59.17	     8.426
  39.320         69.17	     9.110
  39.340         92.50	    10.536
  39.360        113.33	    11.662
  39.380        187.50	    15.000
  39.400        190.83	    15.133
  39.420        179.17	    14.663
  39.440        144.17	    13.153
  39.460        104.17	    11.180
  39.480        127.50	    12.369
  39.500        143.33	    13.115
  39.520        120.00	    12.000
  39.540         91.67	    10.488
  39.560         83.33	    10.000
  39.580         65.83	     8.888
  39.600         50.00	     7.746
  39.620         68.33	     9.055
  39.640         59.17	     8.426
  39.660         56.67	     8.246
  39.680         67.50	     9.000
  39.700         55.83	     8.185
  39.720         44.17	     7.280
  39.740         59.17	     8.426
  39.760         57.50	     8.307
  39.780         65.83	     8.888
  39.800         63.33	     8.718
  39.820         54.17	     8.062
  39.840         49.17	     7.681
  39.860         70.00	     9.165
  39.880         62.50	     8.660
  39.900         60.83	     8.544
  39.920         76.67	     9.592
  39.940         56.67	     8.246
  39.960         61.67	     8.602
  39.980         70.00	     9.165
  40.000         58.33	     8.367
  40.020         70.00	     9.165
  40.040         54.17	     8.062
  40.060         51.67	     7.874
  40.080         70.83	     9.220
  40.100         50.83	     7.810
  40.120         54.17	     8.062
  40.140         58.33	     8.367
  40.160         74.17	     9.434
  40.180         86.67	    10.198
  40.200        112.50	    11.619
  40.220        136.67	    12.806
  40.240        115.83	    11.790
  40.260         99.17	    10.909
  40.280         60.83	     8.544
  40.300         80.00	     9.798
  40.320        114.17	    11.705
  40.340         88.33	    10.296
  40.360         69.17	     9.110
  40.380         60.00	     8.485
  40.400         61.67	     8.602
  40.420         50.00	     7.746
  40.440         61.67	     8.602
  40.460         53.33	     8.000
  40.480         59.17	     8.426
  40.500         45.00	     7.348
  40.520         55.83	     8.185
  40.540         60.83	     8.544
  40.560         59.17	     8.426
  40.580         42.50	     7.141
  40.600         62.50	     8.660
  40.620         59.17	     8.426
  40.640         54.17	     8.062
  40.660         48.33	     7.616
  40.680         52.50	     7.937
  40.700         69.17	     9.110
  40.720         57.50	     8.307
  40.740         65.00	     8.832
  40.760         58.33	     8.367
  40.780         70.83	     9.220
  40.800         60.00	     8.485
  40.820         58.33	     8.367
  40.840         57.50	     8.307
  40.860         60.83	     8.544
  40.880         46.67	     7.483
  40.900         54.17	     8.062
  40.920         48.33	     7.616
  40.940         58.33	     8.367
  40.960         67.50	     9.000
  40.980         55.83	     8.185
  41.000         70.00	     9.165
  41.020         75.83	     9.539
  41.040         63.33	     8.718
  41.060         60.00	     8.485
  41.080         56.67	     8.246
  41.100         55.00	     8.124
  41.120         64.17	     8.775
  41.140         62.50	     8.660
  41.160         65.83	     8.888
  41.180         77.50	     9.644
  41.200         65.00	     8.832
  41.220         74.17	     9.434
  41.240         63.33	     8.718
  41.260         65.00	     8.832
  41.280         83.33	    10.000
  41.300         53.33	     8.000
  41.320         70.00	     9.165
  41.340         64.17	     8.775
  41.360         61.67	     8.602
  41.380         60.00	     8.485
  41.400         57.50	     8.307
  41.420         58.33	     8.367
  41.440         59.17	     8.426
  41.460         54.17	     8.062
  41.480         45.83	     7.416
  41.500         70.83	     9.220
  41.520         78.33	     9.695
  41.540         86.67	    10.198
  41.560         95.00	    10.677
  41.580         82.50	     9.950
  41.600        111.67	    11.576
  41.620        101.67	    11.045
  41.640        123.33	    12.166
  41.660        100.83	    11.000
  41.680        108.33	    11.402
  41.700         96.67	    10.770
  41.720         80.83	     9.849
  41.740         85.83	    10.149
  41.760         98.33	    10.863
  41.780        114.17	    11.705
  41.800         91.67	    10.488
  41.820         89.17	    10.344
  41.840         77.50	     9.644
  41.860        100.83	    11.000
  41.880         85.00	    10.100
  41.900        104.17	    11.180
  41.920         85.83	    10.149
  41.940         78.33	     9.695
  41.960         92.50	    10.536
  41.980         89.17	    10.344
  42.000         80.00	     9.798
  42.020         95.00	    10.677
  42.040         84.17	    10.050
  42.060         69.17	     9.110
  42.080         70.00	     9.165
  42.100         69.17	     9.110
  42.120         74.17	     9.434
  42.140         80.00	     9.798
  42.160         70.83	     9.220
  42.180         57.50	     8.307
  42.200         75.83	     9.539
  42.220         75.83	     9.539
  42.240         74.17	     9.434
  42.260         76.67	     9.592
  42.280         90.00	    10.392
  42.300        100.00	    10.954
  42.320        110.83	    11.533
  42.340        116.67	    11.832
  42.360        153.33	    13.565
  42.380        150.83	    13.454
  42.400        149.17	    13.379
  42.420        134.17	    12.689
  42.440        135.00	    12.728
  42.460        124.17	    12.207
  42.480        117.50	    11.874
  42.500        121.67	    12.083
  42.520         95.00	    10.677
  42.540        102.50	    11.091
  42.560         93.33	    10.583
  42.580         70.00	     9.165
  42.600         86.67	    10.198
  42.620         90.83	    10.440
  42.640         77.50	     9.644
  42.660         70.83	     9.220
  42.680         80.83	     9.849
  42.700         83.33	    10.000
  42.720         75.00	     9.487
  42.740         63.33	     8.718
  42.760         82.50	     9.950
  42.780         70.83	     9.220
  42.800         91.67	    10.488
  42.820         73.33	     9.381
  42.840         78.33	     9.695
  42.860         86.67	    10.198
  42.880         70.00	     9.165
  42.900         80.00	     9.798
  42.920         92.50	    10.536
  42.940         75.83	     9.539
  42.960         77.50	     9.644
  42.980         86.67	    10.198
  43.000         75.83	     9.539
  43.020         95.83	    10.724
  43.040        100.83	    11.000
  43.060         90.83	    10.440
  43.080        116.67	    11.832
  43.100         95.83	    10.724
  43.120        125.83	    12.288
  43.140        112.50	    11.619
  43.160        129.17	    12.450
  43.180        136.67	    12.806
  43.200        153.33	    13.565
  43.220        160.83	    13.892
  43.240        155.83	    13.675
  43.260        164.17	    14.036
  43.280        167.50	    14.177
  43.300        185.00	    14.900
  43.320        198.33	    15.427
  43.340        205.00	    15.684
  43.360        219.17	    16.217
  43.380        230.00	    16.613
  43.400        225.83	    16.462
  43.420        255.00	    17.493
  43.440        244.17	    17.117
  43.460        267.50	    17.916
  43.480        235.83	    16.823
  43.500        261.67	    17.720
  43.520        215.00	    16.062
  43.540        222.50	    16.340
  43.560        235.83	    16.823
  43.580        196.67	    15.362
  43.600        225.00	    16.432
  43.620        175.00	    14.491
  43.640        183.33	    14.832
  43.660        175.83	    14.526
  43.680        170.83	    14.318
  43.700        148.33	    13.342
  43.720        135.00	    12.728
  43.740        157.50	    13.748
  43.760        142.50	    13.077
  43.780        132.50	    12.610
  43.800        115.83	    11.790
  43.820        120.83	    12.042
  43.840        111.67	    11.576
  43.860        102.50	    11.091
  43.880        104.17	    11.180
  43.900         94.17	    10.630
  43.920         78.33	     9.695
  43.940         83.33	    10.000
  43.960         80.83	     9.849
  43.980         95.00	    10.677
  44.000         67.50	     9.000
  44.020         96.67	    10.770
  44.040         78.33	     9.695
  44.060         67.50	     9.000
  44.080         76.67	     9.592
  44.100         83.33	    10.000
  44.120         55.83	     8.185
  44.140         72.50	     9.327
  44.160         76.67	     9.592
  44.180         70.83	     9.220
  44.200         65.83	     8.888
  44.220         50.83	     7.810
  44.240         67.50	     9.000
  44.260         68.33	     9.055
  44.280         63.33	     8.718
  44.300         53.33	     8.000
  44.320         50.00	     7.746
  44.340         58.33	     8.367
  44.360         56.67	     8.246
  44.380         60.00	     8.485
  44.400         64.17	     8.775
  44.420         66.67	     8.944
  44.440         60.83	     8.544
  44.460         64.17	     8.775
  44.480         54.17	     8.062
  44.500         57.50	     8.307
  44.520         49.17	     7.681
  44.540         47.50	     7.550
  44.560         55.83	     8.185
  44.580         45.83	     7.416
  44.600         62.50	     8.660
  44.620         54.17	     8.062
  44.640         56.67	     8.246
  44.660         56.67	     8.246
  44.680         45.00	     7.348
  44.700         55.83	     8.185
  44.720         63.33	     8.718
  44.740         58.33	     8.367
  44.760         61.67	     8.602
  44.780         61.67	     8.602
  44.800         72.50	     9.327
  44.820         59.17	     8.426
  44.840         80.00	     9.798
  44.860         80.83	     9.849
  44.880         83.33	    10.000
  44.900         86.67	    10.198
  44.920         98.33	    10.863
  44.940         96.67	    10.770
  44.960        105.83	    11.269
  44.980         73.33	     9.381
  45.000         71.67	     9.274
  45.020         89.17	    10.344
  45.040         82.50	     9.950
  45.060        100.00	    10.954
  45.080         87.50	    10.247
  45.100         90.83	    10.440
  45.120         75.00	     9.487
  45.140         68.33	     9.055
  45.160         70.83	     9.220
  45.180         67.50	     9.000
  45.200         71.67	     9.274
  45.220         80.83	     9.849
  45.240        122.50	    12.124
  45.260        171.67	    14.353
  45.280        154.17	    13.601
  45.300        143.33	    13.115
  45.320        108.33	    11.402
  45.340        121.67	    12.083
  45.360        138.33	    12.884
  45.380        175.00	    14.491
  45.400        186.67	    14.967
  45.420        180.83	    14.731
  45.440        192.50	    15.199
  45.460        190.83	    15.133
  45.480        192.50	    15.199
  45.500        209.17	    15.843
  45.520        209.17	    15.843
  45.540        214.17	    16.031
  45.560        200.00	    15.492
  45.580        196.67	    15.362
  45.600        178.33	    14.629
  45.620        139.17	    12.923
  45.640        142.50	    13.077
  45.660        171.67	    14.353
  45.680        166.67	    14.142
  45.700        193.33	    15.232
  45.720        194.17	    15.264
  45.740        239.17	    16.941
  45.760        161.67	    13.928
  45.780        110.00	    11.489
  45.800         90.83	    10.440
  45.820        100.83	    11.000
  45.840        125.83	    12.288
  45.860        139.17	    12.923
  45.880        109.17	    11.446
  45.900         96.67	    10.770
  45.920         71.67	     9.274
  45.940         82.50	     9.950
  45.960         56.67	     8.246
  45.980         66.67	     8.944
  46.000         67.50	     9.000
  46.020         65.83	     8.888
  46.040         50.00	     7.746
  46.060         60.00	     8.485
  46.080         55.00	     8.124
  46.100         63.33	     8.718
  46.120         59.17	     8.426
  46.140         58.33	     8.367
  46.160         48.33	     7.616
  46.180         48.33	     7.616
  46.200         51.67	     7.874
  46.220         60.00	     8.485
  46.240         42.50	     7.141
  46.260         50.83	     7.810
  46.280         38.33	     6.782
  46.300         49.17	     7.681
  46.320         49.17	     7.681
  46.340         44.17	     7.280
  46.360         40.83	     7.000
  46.380         45.83	     7.416
  46.400         46.67	     7.483
  46.420         43.33	     7.211
  46.440         31.67	     6.164
  46.460         39.17	     6.856
  46.480         35.83	     6.557
  46.500         47.50	     7.550
  46.520         36.67	     6.633
  46.540         39.17	     6.856
  46.560         37.50	     6.708
  46.580         37.50	     6.708
  46.600         39.17	     6.856
  46.620         45.83	     7.416
  46.640         47.50	     7.550
  46.660         36.67	     6.633
  46.680         56.67	     8.246
  46.700         39.17	     6.856
  46.720         41.67	     7.071
  46.740         33.33	     6.325
  46.760         56.67	     8.246
  46.780         54.17	     8.062
  46.800         43.33	     7.211
  46.820         40.83	     7.000
  46.840         38.33	     6.782
  46.860         50.00	     7.746
  46.880         36.67	     6.633
  46.900         57.50	     8.307
  46.920         53.33	     8.000
  46.940         44.17	     7.280
  46.960         42.50	     7.141
  46.980         40.00	     6.928
  47.000         54.17	     8.062
  47.020         50.83	     7.810
  47.040         45.83	     7.416
  47.060         55.83	     8.185
  47.080         43.33	     7.211
  47.100         49.17	     7.681
  47.120         54.17	     8.062
  47.140         50.83	     7.810
  47.160         52.50	     7.937
  47.180         47.50	     7.550
  47.200         45.83	     7.416
  47.220         52.50	     7.937
  47.240         54.17	     8.062
  47.260         48.33	     7.616
  47.280         39.17	     6.856
  47.300         44.17	     7.280
  47.320         40.83	     7.000
  47.340         44.17	     7.280
  47.360         43.33	     7.211
  47.380         31.67	     6.164
  47.400         42.50	     7.141
  47.420         31.67	     6.164
  47.440         35.83	     6.557
  47.460         28.33	     5.831
  47.480         42.50	     7.141
  47.500         47.50	     7.550
  47.520         33.33	     6.325
  47.540         40.83	     7.000
  47.560         41.67	     7.071
  47.580         23.33	     5.292
  47.600         37.50	     6.708
  47.620         39.17	     6.856
  47.640         40.00	     6.928
  47.660         44.17	     7.280
  47.680         43.33	     7.211
  47.700         46.67	     7.483
  47.720         35.83	     6.557
  47.740         30.00	     6.000
  47.760         39.17	     6.856
  47.780         35.00	     6.481
  47.800         53.33	     8.000
  47.820         35.83	     6.557
  47.840         35.83	     6.557
  47.860         49.17	     7.681
  47.880         53.33	     8.000
  47.900         45.83	     7.416
  47.920         53.33	     8.000
  47.940         58.33	     8.367
  47.960         50.00	     7.746
  47.980         49.17	     7.681
  48.000         38.33	     6.782
  48.020         53.33	     8.000
  48.040         54.17	     8.062
  48.060         62.50	     8.660
  48.080         78.33	     9.695
  48.100         94.17	    10.630
  48.120         66.67	     8.944
  48.140         71.67	     9.274
  48.160         55.83	     8.185
  48.180         72.50	     9.327
  48.200         58.33	     8.367
  48.220         85.00	    10.100
  48.240         70.00	     9.165
  48.260         79.17	     9.747
  48.280         75.00	     9.487
  48.300         61.67	     8.602
  48.320         69.17	     9.110
  48.340         58.33	     8.367
  48.360         65.83	     8.888
  48.380         55.83	     8.185
  48.400         53.33	     8.000
  48.420         45.83	     7.416
  48.440         50.83	     7.810
  48.460         55.83	     8.185
  48.480         51.67	     7.874
  48.500         65.83	     8.888
  48.520         48.33	     7.616
  48.540         52.50	     7.937
  48.560         45.83	     7.416
  48.580         58.33	     8.367
  48.600         44.17	     7.280
  48.620         55.83	     8.185
  48.640         45.83	     7.416
  48.660         40.83	     7.000
  48.680         55.00	     8.124
  48.700         45.83	     7.416
  48.720         51.67	     7.874
  48.740         46.67	     7.483
  48.760         55.83	     8.185
  48.780         55.00	     8.124
  48.800         50.00	     7.746
  48.820         51.67	     7.874
  48.840         50.00	     7.746
  48.860         42.50	     7.141
  48.880         57.50	     8.307
  48.900         45.83	     7.416
  48.920         51.67	     7.874
  48.940         47.50	     7.550
  48.960         35.83	     6.557
  48.980         47.50	     7.550
  49.000         43.33	     7.211
  49.020         43.33	     7.211
  49.040         40.00	     6.928
  49.060         55.83	     8.185
  49.080         54.17	     8.062
  49.100         53.33	     8.000
  49.120         55.00	     8.124
  49.140         71.67	     9.274
  49.160         50.83	     7.810
  49.180         65.83	     8.888
  49.200         53.33	     8.000
  49.220         59.17	     8.426
  49.240         46.67	     7.483
  49.260         61.67	     8.602
  49.280         49.17	     7.681
  49.300         50.83	     7.810
  49.320         51.67	     7.874
  49.340         56.67	     8.246
  49.360         52.50	     7.937
  49.380         54.17	     8.062
  49.400         54.17	     8.062
  49.420         57.50	     8.307
  49.440         61.67	     8.602
  49.460         48.33	     7.616
  49.480         45.83	     7.416
  49.500         50.00	     7.746
  49.520         68.33	     9.055
  49.540         58.33	     8.367
  49.560         50.00	     7.746
  49.580         48.33	     7.616
  49.600         63.33	     8.718
  49.620         72.50	     9.327
  49.640         67.50	     9.000
  49.660         59.17	     8.426
  49.680         70.83	     9.220
  49.700         71.67	     9.274
  49.720         82.50	     9.950
  49.740         69.17	     9.110
  49.760         72.50	     9.327
  49.780         90.83	    10.440
  49.800         82.50	     9.950
  49.820         81.67	     9.899
  49.840         93.33	    10.583
  49.860         92.50	    10.536
  49.880        109.17	    11.446
  49.900         96.67	    10.770
  49.920         99.17	    10.909
  49.940         95.83	    10.724
  49.960        114.17	    11.705
  49.980        122.50	    12.124
  50.000        165.83	    14.107
  50.020        195.00	    15.297
  50.040        292.50	    18.735
  50.060        390.83	    21.656
  50.080        432.50	    22.782
  50.100        390.83	    21.656
  50.120        295.00	    18.815
  50.140        221.67	    16.310
  50.160        212.50	    15.969
  50.180        230.00	    16.613
  50.200        249.17	    17.292
  50.220        233.33	    16.733
  50.240        210.00	    15.875
  50.260        160.00	    13.856
  50.280        120.00	    12.000
  50.300         90.00	    10.392
  50.320         91.67	    10.488
  50.340         95.00	    10.677
  50.360         77.50	     9.644
  50.380         83.33	    10.000
  50.400         74.17	     9.434
  50.420         90.00	    10.392
  50.440         73.33	     9.381
  50.460         82.50	     9.950
  50.480         91.67	    10.488
  50.500        109.17	    11.446
  50.520        169.17	    14.248
  50.540        235.83	    16.823
  50.560        269.17	    17.972
  50.580        215.00	    16.062
  50.600        177.50	    14.595
  50.620        142.50	    13.077
  50.640        148.33	    13.342
  50.660        132.50	    12.610
  50.680        169.17	    14.248
  50.700        140.00	    12.961
  50.720        128.33	    12.410
  50.740        114.17	    11.705
  50.760         95.83	    10.724
  50.780         83.33	    10.000
  50.800         60.83	     8.544
  50.820         61.67	     8.602
  50.840         55.83	     8.185
  50.860         51.67	     7.874
  50.880         51.67	     7.874
  50.900         55.00	     8.124
  50.920         55.00	     8.124
  50.940         48.33	     7.616
  50.960         48.33	     7.616
  50.980         56.67	     8.246
  51.000         47.50	     7.550
  51.020         41.67	     7.071
  51.040         55.83	     8.185
  51.060         56.67	     8.246
  51.080         70.00	     9.165
  51.100         76.67	     9.592
  51.120         68.33	     9.055
  51.140         76.67	     9.592
  51.160         60.00	     8.485
  51.180         58.33	     8.367
  51.200         65.00	     8.832
  51.220         63.33	     8.718
  51.240         68.33	     9.055
  51.260         60.00	     8.485
  51.280         81.67	     9.899
  51.300         73.33	     9.381
  51.320         61.67	     8.602
  51.340         59.17	     8.426
  51.360         45.83	     7.416
  51.380         37.50	     6.708
  51.400         46.67	     7.483
  51.420         42.50	     7.141
  51.440         48.33	     7.616
  51.460         57.50	     8.307
  51.480         53.33	     8.000
  51.500         40.83	     7.000
  51.520         45.00	     7.348
  51.540         40.83	     7.000
  51.560         53.33	     8.000
  51.580         38.33	     6.782
  51.600         39.17	     6.856
  51.620         41.67	     7.071
  51.640         33.33	     6.325
  51.660         40.83	     7.000
  51.680         40.83	     7.000
  51.700         41.67	     7.071
  51.720         39.17	     6.856
  51.740         37.50	     6.708
  51.760         28.33	     5.831
  51.780         33.33	     6.325
  51.800         44.17	     7.280
  51.820         30.83	     6.083
  51.840         43.33	     7.211
  51.860         28.33	     5.831
  51.880         43.33	     7.211
  51.900         45.83	     7.416
  51.920         39.17	     6.856
  51.940         35.83	     6.557
  51.960         42.50	     7.141
  51.980         47.50	     7.550
  52.000         46.67	     7.483
  52.020         42.50	     7.141
  52.040         56.67	     8.246
  52.060         44.17	     7.280
  52.080         63.33	     8.718
  52.100         62.50	     8.660
  52.120         55.00	     8.124
  52.140         52.50	     7.937
  52.160         50.83	     7.810
  52.180         45.83	     7.416
  52.200         45.83	     7.416
  52.220         51.67	     7.874
  52.240         60.00	     8.485
  52.260         53.33	     8.000
  52.280         36.67	     6.633
  52.300         40.00	     6.928
  52.320         51.67	     7.874
  52.340         53.33	     8.000
  52.360         45.83	     7.416
  52.380         43.33	     7.211
  52.400         42.50	     7.141
  52.420         53.33	     8.000
  52.440         54.17	     8.062
  52.460         47.50	     7.550
  52.480         60.00	     8.485
  52.500         60.00	     8.485
  52.520         52.50	     7.937
  52.540         50.00	     7.746
  52.560         45.83	     7.416
  52.580         45.83	     7.416
  52.600         53.33	     8.000
  52.620         54.17	     8.062
  52.640         40.83	     7.000
  52.660         40.00	     6.928
  52.680         50.00	     7.746
  52.700         44.17	     7.280
  52.720         53.33	     8.000
  52.740         43.33	     7.211
  52.760         46.67	     7.483
  52.780         55.00	     8.124
  52.800         43.33	     7.211
  52.820         55.83	     8.185
  52.840         50.83	     7.810
  52.860         50.83	     7.810
  52.880         41.67	     7.071
  52.900         52.50	     7.937
  52.920         47.50	     7.550
  52.940         55.00	     8.124
  52.960         53.33	     8.000
  52.980         56.67	     8.246
  53.000         60.00	     8.485
  53.020         52.50	     7.937
  53.040         50.00	     7.746
  53.060         50.00	     7.746
  53.080         59.17	     8.426
  53.100         60.83	     8.544
  53.120         49.17	     7.681
  53.140         52.50	     7.937
  53.160         70.00	     9.165
  53.180         52.50	     7.937
  53.200         67.50	     9.000
  53.220         52.50	     7.937
  53.240         50.83	     7.810
  53.260         55.83	     8.185
  53.280         39.17	     6.856
  53.300         54.17	     8.062
  53.320         58.33	     8.367
  53.340         52.50	     7.937
  53.360         50.00	     7.746
  53.380         51.67	     7.874
  53.400         51.67	     7.874
  53.420         48.33	     7.616
  53.440         44.17	     7.280
  53.460         50.00	     7.746
  53.480         35.83	     6.557
  53.500         46.67	     7.483
  53.520         44.17	     7.280
  53.540         34.17	     6.403
  53.560         41.67	     7.071
  53.580         41.67	     7.071
  53.600         37.50	     6.708
  53.620         36.67	     6.633
  53.640         60.83	     8.544
  53.660         55.00	     8.124
  53.680         48.33	     7.616
  53.700         60.00	     8.485
  53.720         45.00	     7.348
  53.740         35.83	     6.557
  53.760         46.67	     7.483
  53.780         43.33	     7.211
  53.800         45.00	     7.348
  53.820         48.33	     7.616
  53.840         35.00	     6.481
  53.860         48.33	     7.616
  53.880         44.17	     7.280
  53.900         40.00	     6.928
  53.920         43.33	     7.211
  53.940         36.67	     6.633
  53.960         40.00	     6.928
  53.980         36.67	     6.633
  54.000         40.00	     6.928
  54.020         43.33	     7.211
  54.040         35.83	     6.557
  54.060         45.00	     7.348
  54.080         29.17	     5.916
  54.100         31.67	     6.164
  54.120         45.83	     7.416
  54.140         49.17	     7.681
  54.160         43.33	     7.211
  54.180         49.17	     7.681
  54.200         51.67	     7.874
  54.220         37.50	     6.708
  54.240         40.83	     7.000
  54.260         63.33	     8.718
  54.280         63.33	     8.718
  54.300         69.17	     9.110
  54.320         58.33	     8.367
  54.340         53.33	     8.000
  54.360         48.33	     7.616
  54.380         52.50	     7.937
  54.400         40.00	     6.928
  54.420         55.00	     8.124
  54.440         58.33	     8.367
  54.460         51.67	     7.874
  54.480         55.83	     8.185
  54.500         51.67	     7.874
  54.520         39.17	     6.856
  54.540         53.33	     8.000
  54.560         45.83	     7.416
  54.580         53.33	     8.000
  54.600         50.83	     7.810
  54.620         50.00	     7.746
  54.640         55.00	     8.124
  54.660         50.83	     7.810
  54.680         50.83	     7.810
  54.700         77.50	     9.644
  54.720         56.67	     8.246
  54.740         77.50	     9.644
  54.760         78.33	     9.695
  54.780        106.67	    11.314
  54.800        120.00	    12.000
  54.820        121.67	    12.083
  54.840        108.33	    11.402
  54.860         90.00	    10.392
  54.880         75.83	     9.539
  54.900         83.33	    10.000
  54.920         80.83	     9.849
  54.940         96.67	    10.770
  54.960         93.33	    10.583
  54.980         75.00	     9.487
  55.000         84.17	    10.050
  55.020         55.83	     8.185
  55.040         50.83	     7.810
  55.060         50.83	     7.810
  55.080         53.33	     8.000
  55.100         74.17	     9.434
  55.120         62.50	     8.660
  55.140         67.50	     9.000
  55.160         58.33	     8.367
  55.180         53.33	     8.000
  55.200         57.50	     8.307
  55.220         74.17	     9.434
  55.240         85.83	    10.149
  55.260         76.67	     9.592
  55.280         63.33	     8.718
  55.300         55.00	     8.124
  55.320         62.50	     8.660
  55.340         79.17	     9.747
  55.360         61.67	     8.602
  55.380         70.00	     9.165
  55.400         60.83	     8.544
  55.420         69.17	     9.110
  55.440         56.67	     8.246
  55.460         52.50	     7.937
  55.480         60.00	     8.485
  55.500         70.83	     9.220
  55.520         50.83	     7.810
  55.540         63.33	     8.718
  55.560         51.67	     7.874
  55.580         55.83	     8.185
  55.600         56.67	     8.246
  55.620         81.67	     9.899
  55.640         71.67	     9.274
  55.660         72.50	     9.327
  55.680         82.50	     9.950
  55.700         79.17	     9.747
  55.720         95.00	    10.677
  55.740         94.17	    10.630
  55.760        102.50	    11.091
  55.780         91.67	    10.488
  55.800         81.67	     9.899
  55.820         85.00	    10.100
  55.840         80.83	     9.849
  55.860         75.00	     9.487
  55.880         72.50	     9.327
  55.900         70.83	     9.220
  55.920         73.33	     9.381
  55.940         63.33	     8.718
  55.960         62.50	     8.660
  55.980         71.67	     9.274
  56.000         48.33	     7.616
  56.020         45.83	     7.416
  56.040         65.83	     8.888
  56.060         45.83	     7.416
  56.080         61.67	     8.602
  56.100         40.83	     7.000
  56.120         40.83	     7.000
  56.140         46.67	     7.483
  56.160         44.17	     7.280
  56.180         55.83	     8.185
  56.200         50.00	     7.746
  56.220         44.17	     7.280
  56.240         41.67	     7.071
  56.260         40.83	     7.000
  56.280         39.17	     6.856
  56.300         48.33	     7.616
  56.320         51.67	     7.874
  56.340         58.33	     8.367
  56.360         50.83	     7.810
  56.380         40.83	     7.000
  56.400         46.67	     7.483
  56.420         38.33	     6.782
  56.440         46.67	     7.483
  56.460         46.67	     7.483
  56.480         47.50	     7.550
  56.500         68.33	     9.055
  56.520         56.67	     8.246
  56.540         52.50	     7.937
  56.560         49.17	     7.681
  56.580         57.50	     8.307
  56.600         43.33	     7.211
  56.620         42.50	     7.141
  56.640         55.00	     8.124
  56.660         47.50	     7.550
  56.680         50.83	     7.810
  56.700         34.17	     6.403
  56.720         37.50	     6.708
  56.740         38.33	     6.782
  56.760         47.50	     7.550
  56.780         55.83	     8.185
  56.800         37.50	     6.708
  56.820         39.17	     6.856
  56.840         47.50	     7.550
  56.860         41.67	     7.071
  56.880         48.33	     7.616
  56.900         39.17	     6.856
  56.920         43.33	     7.211
  56.940         40.83	     7.000
  56.960         52.50	     7.937
  56.980         43.33	     7.211
  57.000         47.50	     7.550
  57.020         44.17	     7.280
  57.040         49.17	     7.681
  57.060         40.00	     6.928
  57.080         46.67	     7.483
  57.100         37.50	     6.708
  57.120         42.50	     7.141
  57.140         45.83	     7.416
  57.160         50.00	     7.746
  57.180         57.50	     8.307
  57.200         42.50	     7.141
  57.220         50.83	     7.810
  57.240         65.00	     8.832
  57.260         40.00	     6.928
  57.280         54.17	     8.062
  57.300         45.83	     7.416
  57.320         56.67	     8.246
  57.340         59.17	     8.426
  57.360         58.33	     8.367
  57.380         55.00	     8.124
  57.400         77.50	     9.644
  57.420         56.67	     8.246
  57.440         62.50	     8.660
  57.460         43.33	     7.211
  57.480         51.67	     7.874
  57.500         56.67	     8.246
  57.520         51.67	     7.874
  57.540         51.67	     7.874
  57.560         52.50	     7.937
  57.580         44.17	     7.280
  57.600         29.17	     5.916
  57.620         40.83	     7.000
  57.640         50.83	     7.810
  57.660         48.33	     7.616
  57.680         45.00	     7.348
  57.700         44.17	     7.280
  57.720         39.17	     6.856
  57.740         37.50	     6.708
  57.760         40.00	     6.928
  57.780         30.83	     6.083
  57.800         38.33	     6.782
  57.820         45.83	     7.416
  57.840         34.17	     6.403
  57.860         32.50	     6.245
  57.880         34.17	     6.403
  57.900         42.50	     7.141
  57.920         30.83	     6.083
  57.940         30.83	     6.083
  57.960         35.00	     6.481
  57.980         35.83	     6.557
  58.000         48.33	     7.616
  58.020         44.17	     7.280
  58.040         42.50	     7.141
  58.060         46.67	     7.483
  58.080         52.50	     7.937
  58.100         55.00	     8.124
  58.120         49.17	     7.681
  58.140         55.00	     8.124
  58.160         37.50	     6.708
  58.180         52.50	     7.937
  58.200         52.50	     7.937
  58.220         46.67	     7.483
  58.240         53.33	     8.000
  58.260         58.33	     8.367
  58.280         46.67	     7.483
  58.300         58.33	     8.367
  58.320         51.67	     7.874
  58.340         55.83	     8.185
  58.360         53.33	     8.000
  58.380         67.50	     9.000
  58.400         89.17	    10.344
  58.420         95.00	    10.677
  58.440         75.00	     9.487
  58.460         75.00	     9.487
  58.480         57.50	     8.307
  58.500         69.17	     9.110
  58.520         65.83	     8.888
  58.540         75.00	     9.487
  58.560         71.67	     9.274
  58.580         85.00	    10.100
  58.600         64.17	     8.775
  58.620         59.17	     8.426
  58.640         63.33	     8.718
  58.660         58.33	     8.367
  58.680         45.00	     7.348
  58.700         65.83	     8.888
  58.720         51.67	     7.874
  58.740         54.17	     8.062
  58.760         61.67	     8.602
  58.780         44.17	     7.280
  58.800         50.83	     7.810
  58.820         58.33	     8.367
  58.840         44.17	     7.280
  58.860         60.00	     8.485
  58.880         61.67	     8.602
  58.900         60.83	     8.544
  58.920         60.00	     8.485
  58.940         72.50	     9.327
  58.960         55.83	     8.185
  58.980         71.67	     9.274
  59.000         65.00	     8.832
  59.020         56.67	     8.246
  59.040         41.67	     7.071
  59.060         65.00	     8.832
  59.080         70.00	     9.165
  59.100         62.50	     8.660
  59.120         80.83	     9.849
  59.140         71.67	     9.274
  59.160         72.50	     9.327
  59.180         70.83	     9.220
  59.200         68.33	     9.055
  59.220         61.67	     8.602
  59.240         68.33	     9.055
  59.260         58.33	     8.367
  59.280         57.50	     8.307
  59.300         62.50	     8.660
  59.320         56.67	     8.246
  59.340         39.17	     6.856
  59.360         38.33	     6.782
  59.380         45.00	     7.348
  59.400         50.83	     7.810
  59.420         52.50	     7.937
  59.440         29.17	     5.916
  59.460         46.67	     7.483
  59.480         51.67	     7.874
  59.500         52.50	     7.937
  59.520         43.33	     7.211
  59.540         47.50	     7.550
  59.560         56.67	     8.246
  59.580         43.33	     7.211
  59.600         56.67	     8.246
  59.620         53.33	     8.000
  59.640         51.67	     7.874
  59.660         59.17	     8.426
  59.680         56.67	     8.246
  59.700         62.50	     8.660
  59.720         51.67	     7.874
  59.740         56.67	     8.246
  59.760         76.67	     9.592
  59.780         85.00	    10.100
  59.800        105.83	    11.269
  59.820        110.83	    11.533
  59.840        159.17	    13.820
  59.860        205.83	    15.716
  59.880        255.83	    17.521
  59.900        307.50	    19.209
  59.920        234.17	    16.763
  59.940        210.00	    15.875
  59.960        157.50	    13.748
  59.980        143.33	    13.115
  60.000        176.67	    14.560
  60.020        190.83	    15.133
  60.040        194.17	    15.264
  60.060        175.83	    14.526
  60.080        161.67	    13.928
  60.100        147.50	    13.304
  60.120        112.50	    11.619
  60.140        101.67	    11.045
  60.160         99.17	    10.909
  60.180         96.67	    10.770
  60.200         75.83	     9.539
  60.220         79.17	     9.747
  60.240         81.67	     9.899
  60.260         64.17	     8.775
  60.280         63.33	     8.718
  60.300         71.67	     9.274
  60.320         62.50	     8.660
  60.340         78.33	     9.695
  60.360         60.83	     8.544
  60.380         65.00	     8.832
  60.400         66.67	     8.944
  60.420         66.67	     8.944
  60.440         60.83	     8.544
  60.460         55.00	     8.124
  60.480         66.67	     8.944
  60.500         65.00	     8.832
  60.520         70.00	     9.165
  60.540         58.33	     8.367
  60.560         69.17	     9.110
  60.580         54.17	     8.062
  60.600         56.67	     8.246
  60.620         67.50	     9.000
  60.640         58.33	     8.367
  60.660         62.50	     8.660
  60.680         63.33	     8.718
  60.700         68.33	     9.055
  60.720         71.67	     9.274
  60.740         61.67	     8.602
  60.760         60.83	     8.544
  60.780         69.17	     9.110
  60.800         75.00	     9.487
  60.820         69.17	     9.110
  60.840         74.17	     9.434
  60.860         62.50	     8.660
  60.880         80.83	     9.849
  60.900         79.17	     9.747
  60.920         69.17	     9.110
  60.940         64.17	     8.775
  60.960         57.50	     8.307
  60.980         76.67	     9.592
  61.000         68.33	     9.055
  61.020         60.83	     8.544
  61.040         56.67	     8.246
  61.060         46.67	     7.483
  61.080         46.67	     7.483
  61.100         55.00	     8.124
  61.120         64.17	     8.775
  61.140         53.33	     8.000
  61.160         48.33	     7.616
  61.180         40.83	     7.000
  61.200         69.17	     9.110
  61.220         45.83	     7.416
  61.240         51.67	     7.874
  61.260         63.33	     8.718
  61.280         60.00	     8.485
  61.300         55.83	     8.185
  61.320         74.17	     9.434
  61.340         64.17	     8.775
  61.360         88.33	    10.296
  61.380         80.00	     9.798
  61.400         80.00	     9.798
  61.420         87.50	    10.247
  61.440         82.50	     9.950
  61.460         79.17	     9.747
  61.480         95.83	    10.724
  61.500         83.33	    10.000
  61.520         83.33	    10.000
  61.540        101.67	    11.045
  61.560        100.00	    10.954
  61.580         86.67	    10.198
  61.600        108.33	    11.402
  61.620         86.67	    10.198
  61.640         96.67	    10.770
  61.660        136.67	    12.806
  61.680        126.67	    12.329
  61.700        115.00	    11.747
  61.720        123.33	    12.166
  61.740        198.33	    15.427
  61.760        284.17	    18.466
  61.780        287.50	    18.574
  61.800        275.83	    18.193
  61.820        176.67	    14.560
  61.840        137.50	    12.845
  61.860        109.17	    11.446
  61.880        103.33	    11.136
  61.900        112.50	    11.619
  61.920        120.83	    12.042
  61.940        179.17	    14.663
  61.960        181.67	    14.765
  61.980        126.67	    12.329
  62.000        109.17	    11.446
  62.020         83.33	    10.000
  62.040         73.33	     9.381
  62.060         66.67	     8.944
  62.080         65.00	     8.832
  62.100         43.33	     7.211
  62.120         43.33	     7.211
  62.140         41.67	     7.071
  62.160         54.17	     8.062
  62.180         52.50	     7.937
  62.200         49.17	     7.681
  62.220         47.50	     7.550
  62.240         46.67	     7.483
  62.260         51.67	     7.874
  62.280         46.67	     7.483
  62.300         50.83	     7.810
  62.320         37.50	     6.708
  62.340         52.50	     7.937
  62.360         41.67	     7.071
  62.380         41.67	     7.071
  62.400         45.83	     7.416
  62.420         52.50	     7.937
  62.440         48.33	     7.616
  62.460         56.67	     8.246
  62.480         60.00	     8.485
  62.500         46.67	     7.483
  62.520         55.83	     8.185
  62.540         56.67	     8.246
  62.560         64.17	     8.775
  62.580         67.50	     9.000
  62.600         66.67	     8.944
  62.620         47.50	     7.550
  62.640         51.67	     7.874
  62.660         60.00	     8.485
  62.680         50.00	     7.746
  62.700         51.67	     7.874
  62.720         46.67	     7.483
  62.740         45.83	     7.416
  62.760         57.50	     8.307
  62.780         48.33	     7.616
  62.800         45.83	     7.416
  62.820         51.67	     7.874
  62.840         35.00	     6.481
  62.860         45.83	     7.416
  62.880         48.33	     7.616
  62.900         48.33	     7.616
  62.920         40.00	     6.928
  62.940         42.50	     7.141
  62.960         45.83	     7.416
  62.980         31.67	     6.164
  63.000         37.50	     6.708
  63.020         40.00	     6.928
  63.040         42.50	     7.141
  63.060         51.67	     7.874
  63.080         40.00	     6.928
  63.100         31.67	     6.164
  63.120         45.00	     7.348
  63.140         44.17	     7.280
  63.160         40.00	     6.928
  63.180         57.50	     8.307
  63.200         35.83	     6.557
  63.220         52.50	     7.937
  63.240         48.33	     7.616
  63.260         43.33	     7.211
  63.280         52.50	     7.937
  63.300         54.17	     8.062
  63.320         48.33	     7.616
  63.340         43.33	     7.211
  63.360         35.83	     6.557
  63.380         55.00	     8.124
  63.400         43.33	     7.211
  63.420         49.17	     7.681
  63.440         35.00	     6.481
  63.460         43.33	     7.211
  63.480         55.00	     8.124
  63.500         45.00	     7.348
  63.520         50.83	     7.810
  63.540         34.17	     6.403
  63.560         37.50	     6.708
  63.580         46.67	     7.483
  63.600         47.50	     7.550
  63.620         42.50	     7.141
  63.640         50.00	     7.746
  63.660         53.33	     8.000
  63.680         46.67	     7.483
  63.700         40.83	     7.000
  63.720         31.67	     6.164
  63.740         47.50	     7.550
  63.760         41.67	     7.071
  63.780         53.33	     8.000
  63.800         56.67	     8.246
  63.820         64.17	     8.775
  63.840         44.17	     7.280
  63.860         45.00	     7.348
  63.880         42.50	     7.141
  63.900         46.67	     7.483
  63.920         65.83	     8.888
  63.940         68.33	     9.055
  63.960         89.17	    10.344
  63.980         90.83	    10.440
  64.000         70.83	     9.220
  64.020         70.83	     9.220
  64.040         46.67	     7.483
  64.060         60.83	     8.544
  64.080         46.67	     7.483
  64.100         52.50	     7.937
  64.120         64.17	     8.775
  64.140         73.33	     9.381
  64.160         71.67	     9.274
  64.180         56.67	     8.246
  64.200         55.83	     8.185
  64.220         55.83	     8.185
  64.240         42.50	     7.141
  64.260         50.00	     7.746
  64.280         28.33	     5.831
  64.300         52.50	     7.937
  64.320         44.17	     7.280
  64.340         39.17	     6.856
  64.360         54.17	     8.062
  64.380         50.83	     7.810
  64.400         39.17	     6.856
  64.420         49.17	     7.681
  64.440         46.67	     7.483
  64.460         45.00	     7.348
  64.480         45.83	     7.416
  64.500         43.33	     7.211
  64.520         39.17	     6.856
  64.540         35.83	     6.557
  64.560         47.50	     7.550
  64.580         48.33	     7.616
  64.600         54.17	     8.062
  64.620         48.33	     7.616
  64.640         40.83	     7.000
  64.660         42.50	     7.141
  64.680         50.00	     7.746
  64.700         35.83	     6.557
  64.720         50.83	     7.810
  64.740         37.50	     6.708
  64.760         48.33	     7.616
  64.780         50.83	     7.810
  64.800         45.00	     7.348
  64.820         47.50	     7.550
  64.840         35.00	     6.481
  64.860         49.17	     7.681
  64.880         45.83	     7.416
  64.900         46.67	     7.483
  64.920         42.50	     7.141
  64.940         47.50	     7.550
  64.960         50.00	     7.746
  64.980         50.83	     7.810
  65.000         41.67	     7.071
