
Filename:
	C:\Program Files\Thermo Electron\WinXRD\Datafiles\F_HERMAN\FIEN\G12_FT.raw

File Created:
	October 04, 2019 - 04:36 PM

Specimen Id:
	G12 FT

Specimen Name:
	

Specimen Description:
	

Comment:
Scan Type: 2Theta Scan
Start Angle: 1 deg.
Stop Angle: 65 deg.
Num Points: 3201
Step Size: 0.02 deg.
Scan Rate: 1.000000
Scan Mode: Continuous
Wavelength: 1.540562
\Kalpha1: 1.540562	\Kalpha2: 1.544390	\Kbeta: 1.392218

Optics:
		Detector:
			 Type: Fixed Slits
		Tube: 
			 Type: Fixed Slits


Datas:
 Pos [deg]       Rate [CPS]      ESD [-]

Range 1 ---> Iteration 1
   1.000         91.67	    10.488
   1.020        103.33	    11.136
   1.040        107.50	    11.358
   1.060        102.50	    11.091
   1.080         91.67	    10.488
   1.100         95.00	    10.677
   1.120        105.83	    11.269
   1.140        110.00	    11.489
   1.160        101.67	    11.045
   1.180        110.83	    11.533
   1.200        109.17	    11.446
   1.220        106.67	    11.314
   1.240        107.50	    11.358
   1.260        114.17	    11.705
   1.280         97.50	    10.817
   1.300        100.00	    10.954
   1.320        103.33	    11.136
   1.340        113.33	    11.662
   1.360        120.83	    12.042
   1.380         92.50	    10.536
   1.400        108.33	    11.402
   1.420        113.33	    11.662
   1.440        100.00	    10.954
   1.460        118.33	    11.916
   1.480        125.83	    12.288
   1.500        105.00	    11.225
   1.520        101.67	    11.045
   1.540        133.33	    12.649
   1.560        115.00	    11.747
   1.580        116.67	    11.832
   1.600        143.33	    13.115
   1.620        106.67	    11.314
   1.640        125.00	    12.247
   1.660        133.33	    12.649
   1.680        138.33	    12.884
   1.700        120.83	    12.042
   1.720        138.33	    12.884
   1.740        147.50	    13.304
   1.760        145.83	    13.229
   1.780        143.33	    13.115
   1.800        149.17	    13.379
   1.820        146.67	    13.266
   1.840        178.33	    14.629
   1.860        167.50	    14.177
   1.880        135.00	    12.728
   1.900        162.50	    13.964
   1.920        153.33	    13.565
   1.940        166.67	    14.142
   1.960        160.00	    13.856
   1.980        160.83	    13.892
   2.000        171.67	    14.353
   2.020        163.33	    14.000
   2.040        166.67	    14.142
   2.060        141.67	    13.038
   2.080        196.67	    15.362
   2.100        193.33	    15.232
   2.120        193.33	    15.232
   2.140        175.83	    14.526
   2.160        195.00	    15.297
   2.180        181.67	    14.765
   2.200        172.50	    14.387
   2.220        187.50	    15.000
   2.240        182.50	    14.799
   2.260        184.17	    14.866
   2.280        195.83	    15.330
   2.300        214.17	    16.031
   2.320        200.83	    15.524
   2.340        236.67	    16.852
   2.360        226.67	    16.492
   2.380        232.50	    16.703
   2.400        237.50	    16.882
   2.420        266.67	    17.889
   2.440        235.83	    16.823
   2.460        254.17	    17.464
   2.480        276.67	    18.221
   2.500        247.50	    17.234
   2.520        294.17	    18.788
   2.540        255.00	    17.493
   2.560        275.00	    18.166
   2.580        293.33	    18.762
   2.600        306.67	    19.183
   2.620        282.50	    18.412
   2.640        318.33	    19.545
   2.660        304.17	    19.105
   2.680        316.67	    19.494
   2.700        324.17	    19.723
   2.720        331.67	    19.950
   2.740        336.67	    20.100
   2.760        375.00	    21.213
   2.780        380.00	    21.354
   2.800        377.50	    21.284
   2.820        424.17	    22.561
   2.840        456.67	    23.409
   2.860        502.50	    24.556
   2.880        598.33	    26.796
   2.900       1049.17	    35.482
   2.920       8225.83	    99.353
   2.940      33500.00	   200.499
   2.960       6405.83	    87.676
   2.980          0.00	     0.000
   3.000          0.00	     0.000
   3.020          0.00	     0.000
   3.040          0.00	     0.000
   3.060          0.00	     0.000
   3.080          0.00	     0.000
   3.100          0.00	     0.000
   3.120          0.00	     0.000
   3.140        244.17	    17.117
   3.160          3.33	     2.000
   3.180          0.00	     0.000
   3.200          0.00	     0.000
   3.220          0.00	     0.000
   3.240          0.00	     0.000
   3.260          0.00	     0.000
   3.280          0.00	     0.000
   3.300          0.00	     0.000
   3.320          0.00	     0.000
   3.340          0.00	     0.000
   3.360          0.00	     0.000
   3.380          0.00	     0.000
   3.400          0.00	     0.000
   3.420          0.00	     0.000
   3.440          0.00	     0.000
   3.460          0.00	     0.000
   3.480          0.00	     0.000
   3.500          0.00	     0.000
   3.520          0.00	     0.000
   3.540          0.00	     0.000
   3.560          0.00	     0.000
   3.580          0.00	     0.000
   3.600          0.00	     0.000
   3.620          0.00	     0.000
   3.640          0.00	     0.000
   3.660          0.00	     0.000
   3.680          0.00	     0.000
   3.700          0.00	     0.000
   3.720          0.00	     0.000
   3.740          1.67	     1.414
   3.760          0.00	     0.000
   3.780          0.00	     0.000
   3.800          0.00	     0.000
   3.820          0.00	     0.000
   3.840          0.00	     0.000
   3.860          0.00	     0.000
   3.880          0.00	     0.000
   3.900          0.00	     0.000
   3.920        218.33	    16.186
   3.940          0.00	     0.000
   3.960          0.00	     0.000
   3.980          0.00	     0.000
   4.000          0.00	     0.000
   4.020          0.00	     0.000
   4.040          0.00	     0.000
   4.060          0.00	     0.000
   4.080          0.00	     0.000
   4.100          0.00	     0.000
   4.120        205.00	    15.684
   4.140        334.17	    20.025
   4.160        449.17	    23.216
   4.180        479.17	    23.979
   4.200        247.50	    17.234
   4.220        325.00	    19.748
   4.240        285.83	    18.520
   4.260        334.17	    20.025
   4.280        303.33	    19.079
   4.300        260.83	    17.692
   4.320        387.50	    21.564
   4.340        315.83	    19.468
   4.360        344.17	    20.322
   4.380        397.50	    21.840
   4.400        585.00	    26.495
   4.420        726.67	    29.530
   4.440        940.83	    33.601
   4.460       1311.67	    39.674
   4.480       1898.33	    47.728
   4.500       2578.33	    55.624
   4.520       2594.17	    55.794
   4.540       2542.50	    55.236
   4.560       2532.50	    55.127
   4.580       2500.83	    54.781
   4.600       2426.67	    53.963
   4.620       2356.67	    53.179
   4.640       2325.00	    52.820
   4.660       2450.00	    54.222
   4.680       2286.67	    52.383
   4.700       2141.67	    50.695
   4.720       2275.00	    52.249
   4.740       2167.50	    51.000
   4.760       2141.67	    50.695
   4.780       1993.33	    48.908
   4.800       1870.00	    47.371
   4.820       1749.17	    45.815
   4.840       1632.50	    44.261
   4.860       1446.67	    41.665
   4.880       1259.17	    38.872
   4.900       1143.33	    37.041
   4.920        920.83	    33.242
   4.940        865.83	    32.234
   4.960        800.83	    31.000
   4.980        756.67	    30.133
   5.000        740.00	    29.799
   5.020        803.33	    31.048
   5.040        737.50	    29.749
   5.060        680.83	    28.583
   5.080        722.50	    29.445
   5.100        748.33	    29.967
   5.120        696.67	    28.914
   5.140        709.17	    29.172
   5.160        666.67	    28.284
   5.180        655.00	    28.036
   5.200        662.50	    28.196
   5.220        631.67	    27.532
   5.240        638.33	    27.677
   5.260        624.17	    27.368
   5.280        641.67	    27.749
   5.300        615.83	    27.185
   5.320        633.33	    27.568
   5.340        645.00	    27.821
   5.360        604.17	    26.926
   5.380        585.83	    26.514
   5.400        612.50	    27.111
   5.420        611.67	    27.092
   5.440        570.00	    26.153
   5.460        625.83	    27.404
   5.480        575.83	    26.287
   5.500        545.83	    25.593
   5.520        537.50	    25.397
   5.540        550.83	    25.710
   5.560        527.50	    25.159
   5.580        525.00	    25.100
   5.600        552.50	    25.749
   5.620        510.00	    24.739
   5.640        534.17	    25.318
   5.660        538.33	    25.417
   5.680        525.00	    25.100
   5.700        506.67	    24.658
   5.720        500.83	    24.515
   5.740        460.00	    23.495
   5.760        487.50	    24.187
   5.780        490.00	    24.249
   5.800        479.17	    23.979
   5.820        518.33	    24.940
   5.840        505.00	    24.617
   5.860        481.67	    24.042
   5.880        491.67	    24.290
   5.900        491.67	    24.290
   5.920        463.33	    23.580
   5.940        467.50	    23.685
   5.960        467.50	    23.685
   5.980        485.00	    24.125
   6.000        505.00	    24.617
   6.020        481.67	    24.042
   6.040        468.33	    23.707
   6.060        465.00	    23.622
   6.080        420.83	    22.472
   6.100        432.50	    22.782
   6.120        447.50	    23.173
   6.140        424.17	    22.561
   6.160        439.17	    22.956
   6.180        422.50	    22.517
   6.200        392.50	    21.703
   6.220        400.83	    21.932
   6.240        390.00	    21.633
   6.260        406.67	    22.091
   6.280        408.33	    22.136
   6.300        393.33	    21.726
   6.320        406.67	    22.091
   6.340        387.50	    21.564
   6.360        400.83	    21.932
   6.380        395.83	    21.794
   6.400        369.17	    21.048
   6.420        385.00	    21.494
   6.440        393.33	    21.726
   6.460        397.50	    21.840
   6.480        390.83	    21.656
   6.500        369.17	    21.048
   6.520        376.67	    21.260
   6.540        392.50	    21.703
   6.560        355.00	    20.640
   6.580        361.67	    20.833
   6.600        417.50	    22.383
   6.620        346.67	    20.396
   6.640        366.67	    20.976
   6.660        369.17	    21.048
   6.680        375.83	    21.237
   6.700        357.50	    20.712
   6.720        372.50	    21.142
   6.740        348.33	    20.445
   6.760        320.00	    19.596
   6.780        346.67	    20.396
   6.800        345.00	    20.347
   6.820        343.33	    20.298
   6.840        371.67	    21.119
   6.860        340.83	    20.224
   6.880        342.50	    20.273
   6.900        343.33	    20.298
   6.920        326.67	    19.799
   6.940        331.67	    19.950
   6.960        324.17	    19.723
   6.980        353.33	    20.591
   7.000        335.00	    20.050
   7.020        320.00	    19.596
   7.040        323.33	    19.698
   7.060        330.83	    19.925
   7.080        311.67	    19.339
   7.100        348.33	    20.445
   7.120        307.50	    19.209
   7.140        310.83	    19.313
   7.160        312.50	    19.365
   7.180        304.17	    19.105
   7.200        337.50	    20.125
   7.220        299.17	    18.947
   7.240        334.17	    20.025
   7.260        300.00	    18.974
   7.280        291.67	    18.708
   7.300        270.00	    18.000
   7.320        311.67	    19.339
   7.340        304.17	    19.105
   7.360        310.83	    19.313
   7.380        290.00	    18.655
   7.400        285.83	    18.520
   7.420        306.67	    19.183
   7.440        303.33	    19.079
   7.460        293.33	    18.762
   7.480        270.83	    18.028
   7.500        279.17	    18.303
   7.520        305.83	    19.157
   7.540        287.50	    18.574
   7.560        295.00	    18.815
   7.580        276.67	    18.221
   7.600        291.67	    18.708
   7.620        280.00	    18.330
   7.640        271.67	    18.055
   7.660        270.00	    18.000
   7.680        305.00	    19.131
   7.700        253.33	    17.436
   7.720        273.33	    18.111
   7.740        256.67	    17.550
   7.760        270.83	    18.028
   7.780        280.00	    18.330
   7.800        296.67	    18.868
   7.820        293.33	    18.762
   7.840        256.67	    17.550
   7.860        273.33	    18.111
   7.880        258.33	    17.607
   7.900        284.17	    18.466
   7.920        271.67	    18.055
   7.940        281.67	    18.385
   7.960        257.50	    17.578
   7.980        238.33	    16.912
   8.000        268.33	    17.944
   8.020        260.00	    17.664
   8.040        285.83	    18.520
   8.060        261.67	    17.720
   8.080        243.33	    17.088
   8.100        262.50	    17.748
   8.120        254.17	    17.464
   8.140        269.17	    17.972
   8.160        270.00	    18.000
   8.180        255.83	    17.521
   8.200        219.17	    16.217
   8.220        245.00	    17.146
   8.240        245.00	    17.146
   8.260        262.50	    17.748
   8.280        232.50	    16.703
   8.300        258.33	    17.607
   8.320        235.00	    16.793
   8.340        213.33	    16.000
   8.360        257.50	    17.578
   8.380        240.00	    16.971
   8.400        248.33	    17.263
   8.420        246.67	    17.205
   8.440        240.83	    17.000
   8.460        228.33	    16.553
   8.480        234.17	    16.763
   8.500        230.83	    16.643
   8.520        240.00	    16.971
   8.540        218.33	    16.186
   8.560        245.00	    17.146
   8.580        238.33	    16.912
   8.600        233.33	    16.733
   8.620        216.67	    16.125
   8.640        205.00	    15.684
   8.660        231.67	    16.673
   8.680        256.67	    17.550
   8.700        260.00	    17.664
   8.720        250.83	    17.349
   8.740        243.33	    17.088
   8.760        237.50	    16.882
   8.780        268.33	    17.944
   8.800        299.17	    18.947
   8.820        316.67	    19.494
   8.840        315.00	    19.442
   8.860        305.00	    19.131
   8.880        323.33	    19.698
   8.900        344.17	    20.322
   8.920        369.17	    21.048
   8.940        417.50	    22.383
   8.960        392.50	    21.703
   8.980        393.33	    21.726
   9.000        433.33	    22.804
   9.020        426.67	    22.627
   9.040        425.00	    22.583
   9.060        400.83	    21.932
   9.080        377.50	    21.284
   9.100        332.50	    19.975
   9.120        335.83	    20.075
   9.140        340.83	    20.224
   9.160        320.83	    19.621
   9.180        348.33	    20.445
   9.200        283.33	    18.439
   9.220        320.83	    19.621
   9.240        330.83	    19.925
   9.260        328.33	    19.849
   9.280        348.33	    20.445
   9.300        322.50	    19.672
   9.320        272.50	    18.083
   9.340        254.17	    17.464
   9.360        236.67	    16.852
   9.380        242.50	    17.059
   9.400        230.83	    16.643
   9.420        227.50	    16.523
   9.440        210.00	    15.875
   9.460        205.00	    15.684
   9.480        207.50	    15.780
   9.500        215.83	    16.093
   9.520        226.67	    16.492
   9.540        210.83	    15.906
   9.560        215.00	    16.062
   9.580        199.17	    15.460
   9.600        195.00	    15.297
   9.620        203.33	    15.620
   9.640        185.00	    14.900
   9.660        207.50	    15.780
   9.680        208.33	    15.811
   9.700        170.83	    14.318
   9.720        200.00	    15.492
   9.740        216.67	    16.125
   9.760        190.00	    15.100
   9.780        187.50	    15.000
   9.800        195.00	    15.297
   9.820        191.67	    15.166
   9.840        187.50	    15.000
   9.860        179.17	    14.663
   9.880        176.67	    14.560
   9.900        190.00	    15.100
   9.920        176.67	    14.560
   9.940        190.83	    15.133
   9.960        189.17	    15.067
   9.980        200.00	    15.492
  10.000        173.33	    14.422
  10.020        192.50	    15.199
  10.040        166.67	    14.142
  10.060        170.00	    14.283
  10.080        186.67	    14.967
  10.100        185.83	    14.933
  10.120        189.17	    15.067
  10.140        190.83	    15.133
  10.160        173.33	    14.422
  10.180        167.50	    14.177
  10.200        200.83	    15.524
  10.220        191.67	    15.166
  10.240        170.00	    14.283
  10.260        166.67	    14.142
  10.280        179.17	    14.663
  10.300        171.67	    14.353
  10.320        172.50	    14.387
  10.340        171.67	    14.353
  10.360        173.33	    14.422
  10.380        165.83	    14.107
  10.400        150.00	    13.416
  10.420        176.67	    14.560
  10.440        181.67	    14.765
  10.460        195.00	    15.297
  10.480        175.00	    14.491
  10.500        165.00	    14.071
  10.520        165.83	    14.107
  10.540        155.00	    13.638
  10.560        163.33	    14.000
  10.580        164.17	    14.036
  10.600        170.83	    14.318
  10.620        190.83	    15.133
  10.640        159.17	    13.820
  10.660        167.50	    14.177
  10.680        172.50	    14.387
  10.700        157.50	    13.748
  10.720        162.50	    13.964
  10.740        178.33	    14.629
  10.760        195.00	    15.297
  10.780        158.33	    13.784
  10.800        147.50	    13.304
  10.820        158.33	    13.784
  10.840        167.50	    14.177
  10.860        150.83	    13.454
  10.880        170.00	    14.283
  10.900        160.00	    13.856
  10.920        155.83	    13.675
  10.940        178.33	    14.629
  10.960        160.00	    13.856
  10.980        160.00	    13.856
  11.000        155.00	    13.638
  11.020        155.00	    13.638
  11.040        157.50	    13.748
  11.060        150.83	    13.454
  11.080        152.50	    13.528
  11.100        180.83	    14.731
  11.120        135.83	    12.767
  11.140        185.00	    14.900
  11.160        160.00	    13.856
  11.180        172.50	    14.387
  11.200        165.83	    14.107
  11.220        155.83	    13.675
  11.240        173.33	    14.422
  11.260        185.83	    14.933
  11.280        161.67	    13.928
  11.300        150.00	    13.416
  11.320        166.67	    14.142
  11.340        171.67	    14.353
  11.360        173.33	    14.422
  11.380        190.83	    15.133
  11.400        165.83	    14.107
  11.420        195.00	    15.297
  11.440        180.83	    14.731
  11.460        145.00	    13.191
  11.480        171.67	    14.353
  11.500        194.17	    15.264
  11.520        180.00	    14.697
  11.540        236.67	    16.852
  11.560        186.67	    14.967
  11.580        207.50	    15.780
  11.600        240.00	    16.971
  11.620        229.17	    16.583
  11.640        230.83	    16.643
  11.660        273.33	    18.111
  11.680        297.50	    18.894
  11.700        308.33	    19.235
  11.720        344.17	    20.322
  11.740        413.33	    22.271
  11.760        463.33	    23.580
  11.780        515.83	    24.880
  11.800        585.00	    26.495
  11.820        596.67	    26.758
  11.840        659.17	    28.125
  11.860        670.83	    28.373
  11.880        635.83	    27.622
  11.900        709.17	    29.172
  11.920        697.50	    28.931
  11.940        772.50	    30.447
  11.960        717.50	    29.343
  11.980        566.67	    26.077
  12.000        414.17	    22.293
  12.020        287.50	    18.574
  12.040        300.00	    18.974
  12.060        233.33	    16.733
  12.080        186.67	    14.967
  12.100        185.83	    14.933
  12.120        188.33	    15.033
  12.140        205.83	    15.716
  12.160        177.50	    14.595
  12.180        147.50	    13.304
  12.200        191.67	    15.166
  12.220        200.83	    15.524
  12.240        194.17	    15.264
  12.260        173.33	    14.422
  12.280        176.67	    14.560
  12.300        152.50	    13.528
  12.320        155.00	    13.638
  12.340        150.00	    13.416
  12.360        161.67	    13.928
  12.380        162.50	    13.964
  12.400        160.00	    13.856
  12.420        155.83	    13.675
  12.440        167.50	    14.177
  12.460        155.83	    13.675
  12.480        159.17	    13.820
  12.500        193.33	    15.232
  12.520        167.50	    14.177
  12.540        159.17	    13.820
  12.560        145.83	    13.229
  12.580        143.33	    13.115
  12.600        150.00	    13.416
  12.620        138.33	    12.884
  12.640        120.00	    12.000
  12.660        129.17	    12.450
  12.680        130.00	    12.490
  12.700        142.50	    13.077
  12.720        121.67	    12.083
  12.740        131.67	    12.570
  12.760        126.67	    12.329
  12.780        125.00	    12.247
  12.800        125.83	    12.288
  12.820        132.50	    12.610
  12.840        111.67	    11.576
  12.860        139.17	    12.923
  12.880        125.83	    12.288
  12.900        126.67	    12.329
  12.920        113.33	    11.662
  12.940        124.17	    12.207
  12.960        113.33	    11.662
  12.980        138.33	    12.884
  13.000        109.17	    11.446
  13.020        111.67	    11.576
  13.040        118.33	    11.916
  13.060        108.33	    11.402
  13.080        110.83	    11.533
  13.100        115.83	    11.790
  13.120        112.50	    11.619
  13.140        100.83	    11.000
  13.160        125.00	    12.247
  13.180        125.83	    12.288
  13.200        121.67	    12.083
  13.220        120.00	    12.000
  13.240        109.17	    11.446
  13.260        115.00	    11.747
  13.280        128.33	    12.410
  13.300        125.00	    12.247
  13.320        130.00	    12.490
  13.340        129.17	    12.450
  13.360        121.67	    12.083
  13.380        149.17	    13.379
  13.400        160.00	    13.856
  13.420        364.17	    20.905
  13.440        711.67	    29.223
  13.460        898.33	    32.833
  13.480        619.17	    27.258
  13.500        356.67	    20.688
  13.520        184.17	    14.866
  13.540        182.50	    14.799
  13.560        172.50	    14.387
  13.580        170.00	    14.283
  13.600        137.50	    12.845
  13.620        135.00	    12.728
  13.640        114.17	    11.705
  13.660         95.00	    10.677
  13.680        121.67	    12.083
  13.700        119.17	    11.958
  13.720        109.17	    11.446
  13.740        108.33	    11.402
  13.760        103.33	    11.136
  13.780        105.83	    11.269
  13.800        110.00	    11.489
  13.820         95.83	    10.724
  13.840        118.33	    11.916
  13.860         87.50	    10.247
  13.880        127.50	    12.369
  13.900        119.17	    11.958
  13.920        104.17	    11.180
  13.940        118.33	    11.916
  13.960         89.17	    10.344
  13.980        105.00	    11.225
  14.000         99.17	    10.909
  14.020        115.83	    11.790
  14.040        117.50	    11.874
  14.060         98.33	    10.863
  14.080        118.33	    11.916
  14.100        131.67	    12.570
  14.120         95.83	    10.724
  14.140        108.33	    11.402
  14.160         93.33	    10.583
  14.180        106.67	    11.314
  14.200        100.83	    11.000
  14.220        112.50	    11.619
  14.240        111.67	    11.576
  14.260         98.33	    10.863
  14.280        114.17	    11.705
  14.300         98.33	    10.863
  14.320         91.67	    10.488
  14.340        125.83	    12.288
  14.360         94.17	    10.630
  14.380        101.67	    11.045
  14.400        110.00	    11.489
  14.420         99.17	    10.909
  14.440        101.67	    11.045
  14.460        110.83	    11.533
  14.480        112.50	    11.619
  14.500        110.00	    11.489
  14.520        110.00	    11.489
  14.540        112.50	    11.619
  14.560         94.17	    10.630
  14.580         94.17	    10.630
  14.600        109.17	    11.446
  14.620        100.83	    11.000
  14.640         90.83	    10.440
  14.660        109.17	    11.446
  14.680        100.83	    11.000
  14.700        104.17	    11.180
  14.720        102.50	    11.091
  14.740        105.00	    11.225
  14.760         97.50	    10.817
  14.780        106.67	    11.314
  14.800        117.50	    11.874
  14.820        131.67	    12.570
  14.840        110.00	    11.489
  14.860        111.67	    11.576
  14.880        117.50	    11.874
  14.900        113.33	    11.662
  14.920        147.50	    13.304
  14.940        135.83	    12.767
  14.960        163.33	    14.000
  14.980        128.33	    12.410
  15.000        173.33	    14.422
  15.020        225.83	    16.462
  15.040        249.17	    17.292
  15.060        240.00	    16.971
  15.080        273.33	    18.111
  15.100        312.50	    19.365
  15.120        292.50	    18.735
  15.140        288.33	    18.601
  15.160        319.17	    19.570
  15.180        350.00	    20.494
  15.200        356.67	    20.688
  15.220        408.33	    22.136
  15.240        542.50	    25.515
  15.260        538.33	    25.417
  15.280        537.50	    25.397
  15.300        419.17	    22.428
  15.320        344.17	    20.322
  15.340        331.67	    19.950
  15.360        361.67	    20.833
  15.380        385.00	    21.494
  15.400        416.67	    22.361
  15.420        393.33	    21.726
  15.440        410.00	    22.181
  15.460        400.83	    21.932
  15.480        396.67	    21.817
  15.500        475.83	    23.896
  15.520        470.83	    23.770
  15.540        501.67	    24.536
  15.560        521.67	    25.020
  15.580        452.50	    23.302
  15.600        376.67	    21.260
  15.620        260.83	    17.692
  15.640        195.83	    15.330
  15.660        150.83	    13.454
  15.680        129.17	    12.450
  15.700        110.83	    11.533
  15.720         94.17	    10.630
  15.740        104.17	    11.180
  15.760        101.67	    11.045
  15.780         83.33	    10.000
  15.800        118.33	    11.916
  15.820         98.33	    10.863
  15.840         78.33	     9.695
  15.860         95.83	    10.724
  15.880        112.50	    11.619
  15.900         77.50	     9.644
  15.920         95.00	    10.677
  15.940         95.00	    10.677
  15.960        110.00	    11.489
  15.980         80.00	     9.798
  16.000        101.67	    11.045
  16.020         80.83	     9.849
  16.040         90.83	    10.440
  16.060         80.83	     9.849
  16.080         94.17	    10.630
  16.100         85.83	    10.149
  16.120         80.83	     9.849
  16.140         95.00	    10.677
  16.160         84.17	    10.050
  16.180         91.67	    10.488
  16.200         78.33	     9.695
  16.220        101.67	    11.045
  16.240         77.50	     9.644
  16.260         95.00	    10.677
  16.280         93.33	    10.583
  16.300         80.83	     9.849
  16.320        101.67	    11.045
  16.340        100.83	    11.000
  16.360         75.00	     9.487
  16.380         90.00	    10.392
  16.400         98.33	    10.863
  16.420        105.83	    11.269
  16.440        102.50	    11.091
  16.460        100.83	    11.000
  16.480         90.83	    10.440
  16.500         76.67	     9.592
  16.520         83.33	    10.000
  16.540         87.50	    10.247
  16.560         96.67	    10.770
  16.580         94.17	    10.630
  16.600        111.67	    11.576
  16.620         88.33	    10.296
  16.640         97.50	    10.817
  16.660         85.00	    10.100
  16.680         90.00	    10.392
  16.700         57.50	     8.307
  16.720         92.50	    10.536
  16.740        102.50	    11.091
  16.760         95.00	    10.677
  16.780         85.00	    10.100
  16.800         93.33	    10.583
  16.820        110.00	    11.489
  16.840        108.33	    11.402
  16.860        112.50	    11.619
  16.880        105.83	    11.269
  16.900        115.00	    11.747
  16.920        121.67	    12.083
  16.940        117.50	    11.874
  16.960        103.33	    11.136
  16.980        103.33	    11.136
  17.000        100.83	    11.000
  17.020         88.33	    10.296
  17.040         79.17	     9.747
  17.060         90.83	    10.440
  17.080         88.33	    10.296
  17.100         79.17	     9.747
  17.120         74.17	     9.434
  17.140         87.50	    10.247
  17.160         74.17	     9.434
  17.180         77.50	     9.644
  17.200         71.67	     9.274
  17.220         70.83	     9.220
  17.240         77.50	     9.644
  17.260         80.00	     9.798
  17.280         62.50	     8.660
  17.300         75.00	     9.487
  17.320         78.33	     9.695
  17.340         75.83	     9.539
  17.360         77.50	     9.644
  17.380         70.83	     9.220
  17.400         83.33	    10.000
  17.420         75.00	     9.487
  17.440         62.50	     8.660
  17.460         64.17	     8.775
  17.480         64.17	     8.775
  17.500         75.83	     9.539
  17.520         71.67	     9.274
  17.540         70.83	     9.220
  17.560         70.83	     9.220
  17.580         82.50	     9.950
  17.600         73.33	     9.381
  17.620         66.67	     8.944
  17.640         80.00	     9.798
  17.660         53.33	     8.000
  17.680         78.33	     9.695
  17.700         75.83	     9.539
  17.720         85.00	    10.100
  17.740         75.00	     9.487
  17.760         74.17	     9.434
  17.780         85.83	    10.149
  17.800         69.17	     9.110
  17.820         87.50	    10.247
  17.840         84.17	    10.050
  17.860         92.50	    10.536
  17.880         66.67	     8.944
  17.900         75.83	     9.539
  17.920         71.67	     9.274
  17.940         90.00	    10.392
  17.960         79.17	     9.747
  17.980         85.00	    10.100
  18.000         75.83	     9.539
  18.020         74.17	     9.434
  18.040         92.50	    10.536
  18.060         86.67	    10.198
  18.080         70.00	     9.165
  18.100         75.00	     9.487
  18.120         80.00	     9.798
  18.140         74.17	     9.434
  18.160         63.33	     8.718
  18.180         69.17	     9.110
  18.200         79.17	     9.747
  18.220         74.17	     9.434
  18.240         71.67	     9.274
  18.260         68.33	     9.055
  18.280         72.50	     9.327
  18.300         71.67	     9.274
  18.320         69.17	     9.110
  18.340         72.50	     9.327
  18.360         73.33	     9.381
  18.380         67.50	     9.000
  18.400         64.17	     8.775
  18.420         62.50	     8.660
  18.440         75.83	     9.539
  18.460         67.50	     9.000
  18.480         65.83	     8.888
  18.500         76.67	     9.592
  18.520         74.17	     9.434
  18.540         59.17	     8.426
  18.560         69.17	     9.110
  18.580         75.00	     9.487
  18.600         64.17	     8.775
  18.620         70.00	     9.165
  18.640         77.50	     9.644
  18.660         71.67	     9.274
  18.680         72.50	     9.327
  18.700         64.17	     8.775
  18.720         73.33	     9.381
  18.740         81.67	     9.899
  18.760         81.67	     9.899
  18.780         68.33	     9.055
  18.800         57.50	     8.307
  18.820         67.50	     9.000
  18.840         67.50	     9.000
  18.860         56.67	     8.246
  18.880         58.33	     8.367
  18.900         83.33	    10.000
  18.920         67.50	     9.000
  18.940         59.17	     8.426
  18.960         56.67	     8.246
  18.980         71.67	     9.274
  19.000         60.83	     8.544
  19.020         67.50	     9.000
  19.040         65.83	     8.888
  19.060         60.00	     8.485
  19.080         72.50	     9.327
  19.100         61.67	     8.602
  19.120         76.67	     9.592
  19.140         65.00	     8.832
  19.160         80.83	     9.849
  19.180         60.00	     8.485
  19.200         65.83	     8.888
  19.220         71.67	     9.274
  19.240         67.50	     9.000
  19.260         60.00	     8.485
  19.280         64.17	     8.775
  19.300         65.83	     8.888
  19.320         71.67	     9.274
  19.340         59.17	     8.426
  19.360         58.33	     8.367
  19.380         60.83	     8.544
  19.400         65.83	     8.888
  19.420         72.50	     9.327
  19.440         65.00	     8.832
  19.460         56.67	     8.246
  19.480         75.83	     9.539
  19.500         74.17	     9.434
  19.520         65.83	     8.888
  19.540         56.67	     8.246
  19.560         79.17	     9.747
  19.580         61.67	     8.602
  19.600         67.50	     9.000
  19.620         64.17	     8.775
  19.640         60.83	     8.544
  19.660         71.67	     9.274
  19.680         57.50	     8.307
  19.700         69.17	     9.110
  19.720         79.17	     9.747
  19.740         69.17	     9.110
  19.760         60.00	     8.485
  19.780         75.00	     9.487
  19.800         57.50	     8.307
  19.820         65.00	     8.832
  19.840         62.50	     8.660
  19.860         61.67	     8.602
  19.880         70.00	     9.165
  19.900         65.00	     8.832
  19.920         66.67	     8.944
  19.940         55.83	     8.185
  19.960         63.33	     8.718
  19.980         62.50	     8.660
  20.000         65.00	     8.832
  20.020         70.83	     9.220
  20.040         57.50	     8.307
  20.060         59.17	     8.426
  20.080         72.50	     9.327
  20.100         78.33	     9.695
  20.120         70.83	     9.220
  20.140         67.50	     9.000
  20.160         68.33	     9.055
  20.180         51.67	     7.874
  20.200         60.83	     8.544
  20.220         57.50	     8.307
  20.240         55.00	     8.124
  20.260         77.50	     9.644
  20.280         62.50	     8.660
  20.300         73.33	     9.381
  20.320         77.50	     9.644
  20.340         73.33	     9.381
  20.360         93.33	    10.583
  20.380         55.00	     8.124
  20.400         81.67	     9.899
  20.420         78.33	     9.695
  20.440         68.33	     9.055
  20.460         75.83	     9.539
  20.480         75.00	     9.487
  20.500         61.67	     8.602
  20.520         84.17	    10.050
  20.540         75.00	     9.487
  20.560         72.50	     9.327
  20.580         78.33	     9.695
  20.600         90.83	    10.440
  20.620        104.17	    11.180
  20.640        102.50	    11.091
  20.660        125.00	    12.247
  20.680        165.00	    14.071
  20.700        187.50	    15.000
  20.720        229.17	    16.583
  20.740        230.00	    16.613
  20.760        259.17	    17.635
  20.780        289.17	    18.628
  20.800        310.00	    19.287
  20.820        293.33	    18.762
  20.840        325.83	    19.774
  20.860        329.17	    19.875
  20.880        329.17	    19.875
  20.900        305.00	    19.131
  20.920        268.33	    17.944
  20.940        210.83	    15.906
  20.960        150.00	    13.416
  20.980        110.83	    11.533
  21.000        107.50	    11.358
  21.020         70.83	     9.220
  21.040         78.33	     9.695
  21.060         74.17	     9.434
  21.080         75.83	     9.539
  21.100         72.50	     9.327
  21.120         83.33	    10.000
  21.140         86.67	    10.198
  21.160         77.50	     9.644
  21.180         90.00	    10.392
  21.200         80.83	     9.849
  21.220         76.67	     9.592
  21.240         80.83	     9.849
  21.260         87.50	    10.247
  21.280         85.00	    10.100
  21.300         93.33	    10.583
  21.320         86.67	    10.198
  21.340         80.83	     9.849
  21.360         80.00	     9.798
  21.380         98.33	    10.863
  21.400        114.17	    11.705
  21.420        101.67	    11.045
  21.440        109.17	    11.446
  21.460        101.67	    11.045
  21.480        122.50	    12.124
  21.500        110.00	    11.489
  21.520        114.17	    11.705
  21.540        107.50	    11.358
  21.560        135.00	    12.728
  21.580        145.83	    13.229
  21.600        139.17	    12.923
  21.620        155.83	    13.675
  21.640        150.83	    13.454
  21.660        136.67	    12.806
  21.680        164.17	    14.036
  21.700        171.67	    14.353
  21.720        180.83	    14.731
  21.740        162.50	    13.964
  21.760        171.67	    14.353
  21.780        205.83	    15.716
  21.800        210.00	    15.875
  21.820        228.33	    16.553
  21.840        217.50	    16.155
  21.860        219.17	    16.217
  21.880        201.67	    15.556
  21.900        165.00	    14.071
  21.920        126.67	    12.329
  21.940        127.50	    12.369
  21.960        108.33	    11.402
  21.980         90.83	    10.440
  22.000         80.00	     9.798
  22.020         78.33	     9.695
  22.040         89.17	    10.344
  22.060         92.50	    10.536
  22.080         80.00	     9.798
  22.100         75.83	     9.539
  22.120         94.17	    10.630
  22.140         94.17	    10.630
  22.160         84.17	    10.050
  22.180         78.33	     9.695
  22.200         78.33	     9.695
  22.220         95.00	    10.677
  22.240        102.50	    11.091
  22.260         85.00	    10.100
  22.280        100.83	    11.000
  22.300         91.67	    10.488
  22.320         91.67	    10.488
  22.340         90.00	    10.392
  22.360         77.50	     9.644
  22.380         91.67	    10.488
  22.400         94.17	    10.630
  22.420         91.67	    10.488
  22.440         75.83	     9.539
  22.460         74.17	     9.434
  22.480         84.17	    10.050
  22.500         79.17	     9.747
  22.520         80.00	     9.798
  22.540         82.50	     9.950
  22.560         87.50	    10.247
  22.580         97.50	    10.817
  22.600         85.83	    10.149
  22.620        113.33	    11.662
  22.640         96.67	    10.770
  22.660        127.50	    12.369
  22.680        110.83	    11.533
  22.700        120.00	    12.000
  22.720        127.50	    12.369
  22.740        125.00	    12.247
  22.760        145.00	    13.191
  22.780        136.67	    12.806
  22.800        133.33	    12.649
  22.820        135.00	    12.728
  22.840        133.33	    12.649
  22.860        139.17	    12.923
  22.880        154.17	    13.601
  22.900        128.33	    12.410
  22.920        125.83	    12.288
  22.940        123.33	    12.166
  22.960         86.67	    10.198
  22.980        109.17	    11.446
  23.000        108.33	    11.402
  23.020         83.33	    10.000
  23.040         90.00	    10.392
  23.060         81.67	     9.899
  23.080         75.83	     9.539
  23.100         79.17	     9.747
  23.120         80.00	     9.798
  23.140         85.83	    10.149
  23.160         95.00	    10.677
  23.180         85.83	    10.149
  23.200        106.67	    11.314
  23.220         87.50	    10.247
  23.240         88.33	    10.296
  23.260         80.83	     9.849
  23.280         66.67	     8.944
  23.300         83.33	    10.000
  23.320         67.50	     9.000
  23.340         86.67	    10.198
  23.360         64.17	     8.775
  23.380         75.00	     9.487
  23.400         74.17	     9.434
  23.420         80.00	     9.798
  23.440         73.33	     9.381
  23.460         71.67	     9.274
  23.480         77.50	     9.644
  23.500         80.00	     9.798
  23.520         89.17	    10.344
  23.540         80.83	     9.849
  23.560         76.67	     9.592
  23.580         85.00	    10.100
  23.600         85.00	    10.100
  23.620         86.67	    10.198
  23.640         97.50	    10.817
  23.660         99.17	    10.909
  23.680        105.00	    11.225
  23.700        135.83	    12.767
  23.720        155.83	    13.675
  23.740        160.00	    13.856
  23.760        188.33	    15.033
  23.780        250.00	    17.321
  23.800        280.83	    18.358
  23.820        441.67	    23.022
  23.840        646.67	    27.857
  23.860        600.83	    26.851
  23.880        530.00	    25.219
  23.900        529.17	    25.199
  23.920        437.50	    22.913
  23.940        279.17	    18.303
  23.960        225.00	    16.432
  23.980        177.50	    14.595
  24.000        146.67	    13.266
  24.020        123.33	    12.166
  24.040        113.33	    11.662
  24.060        109.17	    11.446
  24.080        110.83	    11.533
  24.100         85.83	    10.149
  24.120         90.00	    10.392
  24.140         80.83	     9.849
  24.160         98.33	    10.863
  24.180         78.33	     9.695
  24.200         74.17	     9.434
  24.220         79.17	     9.747
  24.240         75.00	     9.487
  24.260         78.33	     9.695
  24.280         73.33	     9.381
  24.300         78.33	     9.695
  24.320         70.00	     9.165
  24.340         66.67	     8.944
  24.360         53.33	     8.000
  24.380         78.33	     9.695
  24.400         70.83	     9.220
  24.420         65.83	     8.888
  24.440         77.50	     9.644
  24.460         70.83	     9.220
  24.480         75.00	     9.487
  24.500         75.00	     9.487
  24.520         74.17	     9.434
  24.540         75.00	     9.487
  24.560         79.17	     9.747
  24.580         83.33	    10.000
  24.600         90.00	    10.392
  24.620         75.83	     9.539
  24.640         86.67	    10.198
  24.660         87.50	    10.247
  24.680         70.00	     9.165
  24.700         85.00	    10.100
  24.720         84.17	    10.050
  24.740         73.33	     9.381
  24.760         79.17	     9.747
  24.780         67.50	     9.000
  24.800         94.17	    10.630
  24.820         73.33	     9.381
  24.840         85.83	    10.149
  24.860        103.33	    11.136
  24.880         98.33	    10.863
  24.900        122.50	    12.124
  24.920        150.00	    13.416
  24.940        275.83	    18.193
  24.960        481.67	    24.042
  24.980        588.33	    26.571
  25.000        422.50	    22.517
  25.020        433.33	    22.804
  25.040        465.00	    23.622
  25.060        320.00	    19.596
  25.080        280.83	    18.358
  25.100        218.33	    16.186
  25.120        220.00	    16.248
  25.140        190.83	    15.133
  25.160        150.00	    13.416
  25.180        109.17	    11.446
  25.200        107.50	    11.358
  25.220         85.83	    10.149
  25.240         68.33	     9.055
  25.260         79.17	     9.747
  25.280         72.50	     9.327
  25.300         61.67	     8.602
  25.320         70.00	     9.165
  25.340         82.50	     9.950
  25.360         93.33	    10.583
  25.380         70.83	     9.220
  25.400         70.83	     9.220
  25.420         84.17	    10.050
  25.440         71.67	     9.274
  25.460         83.33	    10.000
  25.480         85.83	    10.149
  25.500         92.50	    10.536
  25.520         83.33	    10.000
  25.540         75.83	     9.539
  25.560         77.50	     9.644
  25.580         82.50	     9.950
  25.600         74.17	     9.434
  25.620         79.17	     9.747
  25.640         70.83	     9.220
  25.660         75.83	     9.539
  25.680         65.00	     8.832
  25.700         90.00	    10.392
  25.720         79.17	     9.747
  25.740         85.00	    10.100
  25.760         84.17	    10.050
  25.780         68.33	     9.055
  25.800         94.17	    10.630
  25.820         97.50	    10.817
  25.840        110.00	    11.489
  25.860        129.17	    12.450
  25.880        130.83	    12.530
  25.900        142.50	    13.077
  25.920        155.83	    13.675
  25.940        160.00	    13.856
  25.960        164.17	    14.036
  25.980        163.33	    14.000
  26.000        138.33	    12.884
  26.020        152.50	    13.528
  26.040        129.17	    12.450
  26.060        122.50	    12.124
  26.080        110.83	    11.533
  26.100         95.83	    10.724
  26.120         89.17	    10.344
  26.140         99.17	    10.909
  26.160         79.17	     9.747
  26.180         90.00	    10.392
  26.200         80.83	     9.849
  26.220         80.00	     9.798
  26.240         86.67	    10.198
  26.260         78.33	     9.695
  26.280         83.33	    10.000
  26.300         76.67	     9.592
  26.320         88.33	    10.296
  26.340         80.83	     9.849
  26.360        103.33	    11.136
  26.380         81.67	     9.899
  26.400         83.33	    10.000
  26.420        114.17	    11.705
  26.440        117.50	    11.874
  26.460        154.17	    13.601
  26.480        208.33	    15.811
  26.500        356.67	    20.688
  26.520        455.83	    23.388
  26.540        320.00	    19.596
  26.560        343.33	    20.298
  26.580        390.00	    21.633
  26.600        324.17	    19.723
  26.620        224.17	    16.401
  26.640        201.67	    15.556
  26.660        177.50	    14.595
  26.680        167.50	    14.177
  26.700        120.83	    12.042
  26.720        143.33	    13.115
  26.740        134.17	    12.689
  26.760        128.33	    12.410
  26.780        127.50	    12.369
  26.800        141.67	    13.038
  26.820        169.17	    14.248
  26.840        155.83	    13.675
  26.860        130.83	    12.530
  26.880        130.83	    12.530
  26.900        142.50	    13.077
  26.920        129.17	    12.450
  26.940        128.33	    12.410
  26.960        115.83	    11.790
  26.980        110.83	    11.533
  27.000        105.00	    11.225
  27.020        120.00	    12.000
  27.040        114.17	    11.705
  27.060        132.50	    12.610
  27.080        145.83	    13.229
  27.100        148.33	    13.342
  27.120        145.83	    13.229
  27.140        137.50	    12.845
  27.160        169.17	    14.248
  27.180        195.00	    15.297
  27.200        195.83	    15.330
  27.220        203.33	    15.620
  27.240        182.50	    14.799
  27.260        209.17	    15.843
  27.280        301.67	    19.026
  27.300        343.33	    20.298
  27.320        352.50	    20.567
  27.340        272.50	    18.083
  27.360        270.83	    18.028
  27.380        265.00	    17.833
  27.400        187.50	    15.000
  27.420        176.67	    14.560
  27.440        168.33	    14.213
  27.460        210.00	    15.875
  27.480        220.00	    16.248
  27.500        240.83	    17.000
  27.520        285.83	    18.520
  27.540        290.83	    18.682
  27.560        367.50	    21.000
  27.580        405.00	    22.045
  27.600        369.17	    21.048
  27.620        388.33	    21.587
  27.640        399.17	    21.886
  27.660        366.67	    20.976
  27.680        281.67	    18.385
  27.700        253.33	    17.436
  27.720        262.50	    17.748
  27.740        239.17	    16.941
  27.760        209.17	    15.843
  27.780        208.33	    15.811
  27.800        186.67	    14.967
  27.820        205.00	    15.684
  27.840        200.00	    15.492
  27.860        206.67	    15.748
  27.880        152.50	    13.528
  27.900        185.00	    14.900
  27.920        189.17	    15.067
  27.940        185.00	    14.900
  27.960        167.50	    14.177
  27.980        200.00	    15.492
  28.000        183.33	    14.832
  28.020        205.00	    15.684
  28.040        222.50	    16.340
  28.060        242.50	    17.059
  28.080        269.17	    17.972
  28.100        303.33	    19.079
  28.120        340.83	    20.224
  28.140        379.17	    21.331
  28.160        390.83	    21.656
  28.180        511.67	    24.779
  28.200        581.67	    26.420
  28.220        502.50	    24.556
  28.240        428.33	    22.672
  28.260        395.83	    21.794
  28.280        299.17	    18.947
  28.300        279.17	    18.303
  28.320        221.67	    16.310
  28.340        187.50	    15.000
  28.360        196.67	    15.362
  28.380        188.33	    15.033
  28.400        200.83	    15.524
  28.420        202.50	    15.588
  28.440        185.00	    14.900
  28.460        203.33	    15.620
  28.480        199.17	    15.460
  28.500        222.50	    16.340
  28.520        210.83	    15.906
  28.540        198.33	    15.427
  28.560        195.00	    15.297
  28.580        245.83	    17.176
  28.600        288.33	    18.601
  28.620        286.67	    18.547
  28.640        297.50	    18.894
  28.660        284.17	    18.466
  28.680        238.33	    16.912
  28.700        227.50	    16.523
  28.720        175.00	    14.491
  28.740        135.83	    12.767
  28.760        122.50	    12.124
  28.780        109.17	    11.446
  28.800        121.67	    12.083
  28.820        110.83	    11.533
  28.840         88.33	    10.296
  28.860         91.67	    10.488
  28.880         97.50	    10.817
  28.900        105.00	    11.225
  28.920        105.83	    11.269
  28.940         94.17	    10.630
  28.960         71.67	     9.274
  28.980         97.50	    10.817
  29.000         75.00	     9.487
  29.020        102.50	    11.091
  29.040         75.00	     9.487
  29.060        100.00	    10.954
  29.080        101.67	    11.045
  29.100         99.17	    10.909
  29.120        113.33	    11.662
  29.140        108.33	    11.402
  29.160        109.17	    11.446
  29.180        110.00	    11.489
  29.200        115.83	    11.790
  29.220        109.17	    11.446
  29.240        126.67	    12.329
  29.260        150.00	    13.416
  29.280        162.50	    13.964
  29.300        174.17	    14.457
  29.320        230.83	    16.643
  29.340        215.00	    16.062
  29.360        217.50	    16.155
  29.380        269.17	    17.972
  29.400        299.17	    18.947
  29.420        349.17	    20.469
  29.440        400.83	    21.932
  29.460        434.17	    22.825
  29.480        498.33	    24.454
  29.500        694.17	    28.862
  29.520       1034.17	    35.228
  29.540       1215.83	    38.197
  29.560       1089.17	    36.152
  29.580       1185.83	    37.723
  29.600       1420.83	    41.292
  29.620       1650.83	    44.508
  29.640       1875.83	    47.445
  29.660       1975.83	    48.693
  29.680       2097.50	    50.170
  29.700       1786.67	    46.303
  29.720       1355.00	    40.324
  29.740       1281.67	    39.217
  29.760       1167.50	    37.430
  29.780        972.50	    34.161
  29.800        909.17	    33.030
  29.820        932.50	    33.451
  29.840       1000.83	    34.655
  29.860        996.67	    34.583
  29.880       1089.17	    36.152
  29.900       1186.67	    37.736
  29.920       1155.83	    37.242
  29.940       1140.00	    36.986
  29.960       1025.83	    35.086
  29.980        883.33	    32.558
  30.000        715.00	    29.292
  30.020        533.33	    25.298
  30.040        415.83	    22.338
  30.060        311.67	    19.339
  30.080        206.67	    15.748
  30.100        203.33	    15.620
  30.120        179.17	    14.663
  30.140        152.50	    13.528
  30.160        147.50	    13.304
  30.180        155.83	    13.675
  30.200        149.17	    13.379
  30.220        164.17	    14.036
  30.240        146.67	    13.266
  30.260        132.50	    12.610
  30.280        155.00	    13.638
  30.300        155.00	    13.638
  30.320        121.67	    12.083
  30.340        145.00	    13.191
  30.360        142.50	    13.077
  30.380        185.83	    14.933
  30.400        232.50	    16.703
  30.420        362.50	    20.857
  30.440        363.33	    20.881
  30.460        315.83	    19.468
  30.480        330.83	    19.925
  30.500        313.33	    19.391
  30.520        298.33	    18.921
  30.540        203.33	    15.620
  30.560        200.00	    15.492
  30.580        189.17	    15.067
  30.600        210.83	    15.906
  30.620        180.00	    14.697
  30.640        205.00	    15.684
  30.660        205.00	    15.684
  30.680        211.67	    15.937
  30.700        229.17	    16.583
  30.720        305.00	    19.131
  30.740        302.50	    19.053
  30.760        331.67	    19.950
  30.780        362.50	    20.857
  30.800        352.50	    20.567
  30.820        409.17	    22.159
  30.840        475.83	    23.896
  30.860        605.83	    26.963
  30.880        629.17	    27.477
  30.900        624.17	    27.368
  30.920        614.17	    27.148
  30.940        630.00	    27.495
  30.960        604.17	    26.926
  30.980        495.00	    24.372
  31.000        495.00	    24.372
  31.020        395.83	    21.794
  31.040        317.50	    19.519
  31.060        281.67	    18.385
  31.080        221.67	    16.310
  31.100        218.33	    16.186
  31.120        182.50	    14.799
  31.140        173.33	    14.422
  31.160        190.83	    15.133
  31.180        185.83	    14.933
  31.200        165.00	    14.071
  31.220        164.17	    14.036
  31.240        313.33	    19.391
  31.260        317.50	    19.519
  31.280        200.83	    15.524
  31.300        174.17	    14.457
  31.320        197.50	    15.395
  31.340        175.00	    14.491
  31.360        125.00	    12.247
  31.380        118.33	    11.916
  31.400        105.83	    11.269
  31.420        100.83	    11.000
  31.440         91.67	    10.488
  31.460        101.67	    11.045
  31.480        100.83	    11.000
  31.500        110.83	    11.533
  31.520        145.83	    13.229
  31.540        162.50	    13.964
  31.560        206.67	    15.748
  31.580        174.17	    14.457
  31.600        178.33	    14.629
  31.620        200.83	    15.524
  31.640        203.33	    15.620
  31.660        165.83	    14.107
  31.680        165.83	    14.107
  31.700        169.17	    14.248
  31.720        156.67	    13.711
  31.740        156.67	    13.711
  31.760        161.67	    13.928
  31.780        148.33	    13.342
  31.800        148.33	    13.342
  31.820        131.67	    12.570
  31.840        112.50	    11.619
  31.860         90.83	    10.440
  31.880         93.33	    10.583
  31.900         95.83	    10.724
  31.920         75.00	     9.487
  31.940         70.00	     9.165
  31.960         70.83	     9.220
  31.980         78.33	     9.695
  32.000         74.17	     9.434
  32.020         65.00	     8.832
  32.040         80.83	     9.849
  32.060         59.17	     8.426
  32.080         64.17	     8.775
  32.100         65.83	     8.888
  32.120         67.50	     9.000
  32.140         66.67	     8.944
  32.160         64.17	     8.775
  32.180         81.67	     9.899
  32.200         57.50	     8.307
  32.220         58.33	     8.367
  32.240         73.33	     9.381
  32.260         63.33	     8.718
  32.280         63.33	     8.718
  32.300         57.50	     8.307
  32.320         61.67	     8.602
  32.340         64.17	     8.775
  32.360         59.17	     8.426
  32.380         68.33	     9.055
  32.400         68.33	     9.055
  32.420         72.50	     9.327
  32.440         56.67	     8.246
  32.460         65.83	     8.888
  32.480         66.67	     8.944
  32.500         66.67	     8.944
  32.520         80.00	     9.798
  32.540         75.00	     9.487
  32.560         71.67	     9.274
  32.580         84.17	    10.050
  32.600         70.83	     9.220
  32.620        105.00	    11.225
  32.640         73.33	     9.381
  32.660         76.67	     9.592
  32.680         86.67	    10.198
  32.700         87.50	    10.247
  32.720        106.67	    11.314
  32.740        141.67	    13.038
  32.760        130.00	    12.490
  32.780        196.67	    15.362
  32.800        183.33	    14.832
  32.820        237.50	    16.882
  32.840        240.00	    16.971
  32.860        233.33	    16.733
  32.880        225.83	    16.462
  32.900        225.00	    16.432
  32.920        178.33	    14.629
  32.940        183.33	    14.832
  32.960        180.00	    14.697
  32.980        145.83	    13.229
  33.000        163.33	    14.000
  33.020        137.50	    12.845
  33.040        123.33	    12.166
  33.060        149.17	    13.379
  33.080        139.17	    12.923
  33.100        136.67	    12.806
  33.120        148.33	    13.342
  33.140        159.17	    13.820
  33.160        150.83	    13.454
  33.180        167.50	    14.177
  33.200        159.17	    13.820
  33.220        185.00	    14.900
  33.240        190.00	    15.100
  33.260        195.00	    15.297
  33.280        141.67	    13.038
  33.300        165.00	    14.071
  33.320        154.17	    13.601
  33.340        141.67	    13.038
  33.360        111.67	    11.576
  33.380        142.50	    13.077
  33.400        133.33	    12.649
  33.420        124.17	    12.207
  33.440        130.00	    12.490
  33.460        131.67	    12.570
  33.480        153.33	    13.565
  33.500        158.33	    13.784
  33.520        133.33	    12.649
  33.540        139.17	    12.923
  33.560        115.83	    11.790
  33.580         89.17	    10.344
  33.600        100.00	    10.954
  33.620         90.83	    10.440
  33.640         85.83	    10.149
  33.660         71.67	     9.274
  33.680         97.50	    10.817
  33.700        101.67	    11.045
  33.720         84.17	    10.050
  33.740         92.50	    10.536
  33.760        112.50	    11.619
  33.780        130.83	    12.530
  33.800        152.50	    13.528
  33.820        195.83	    15.330
  33.840        158.33	    13.784
  33.860        127.50	    12.369
  33.880        159.17	    13.820
  33.900        174.17	    14.457
  33.920        155.83	    13.675
  33.940        116.67	    11.832
  33.960        112.50	    11.619
  33.980        112.50	    11.619
  34.000         93.33	    10.583
  34.020        105.83	    11.269
  34.040        105.83	    11.269
  34.060        116.67	    11.832
  34.080        107.50	    11.358
  34.100        133.33	    12.649
  34.120        125.00	    12.247
  34.140        130.00	    12.490
  34.160        125.00	    12.247
  34.180        130.83	    12.530
  34.200        127.50	    12.369
  34.220        160.00	    13.856
  34.240        147.50	    13.304
  34.260        165.83	    14.107
  34.280        168.33	    14.213
  34.300        136.67	    12.806
  34.320        154.17	    13.601
  34.340        177.50	    14.595
  34.360        136.67	    12.806
  34.380        144.17	    13.153
  34.400        118.33	    11.916
  34.420        128.33	    12.410
  34.440        100.83	    11.000
  34.460         98.33	    10.863
  34.480         81.67	     9.899
  34.500        100.83	    11.000
  34.520        115.00	    11.747
  34.540        120.00	    12.000
  34.560        120.00	    12.000
  34.580        147.50	    13.304
  34.600        140.83	    13.000
  34.620        145.00	    13.191
  34.640        151.67	    13.491
  34.660        143.33	    13.115
  34.680        143.33	    13.115
  34.700        105.00	    11.225
  34.720        113.33	    11.662
  34.740         98.33	    10.863
  34.760         75.83	     9.539
  34.780         84.17	    10.050
  34.800         77.50	     9.644
  34.820         87.50	    10.247
  34.840         79.17	     9.747
  34.860         80.00	     9.798
  34.880         98.33	    10.863
  34.900         89.17	    10.344
  34.920         98.33	    10.863
  34.940         75.00	     9.487
  34.960         77.50	     9.644
  34.980         87.50	    10.247
  35.000         96.67	    10.770
  35.020         86.67	    10.198
  35.040        138.33	    12.884
  35.060        120.83	    12.042
  35.080        105.00	    11.225
  35.100        121.67	    12.083
  35.120        111.67	    11.576
  35.140         88.33	    10.296
  35.160         89.17	    10.344
  35.180         83.33	    10.000
  35.200         89.17	    10.344
  35.220         77.50	     9.644
  35.240         72.50	     9.327
  35.260         77.50	     9.644
  35.280         68.33	     9.055
  35.300         70.83	     9.220
  35.320         51.67	     7.874
  35.340         60.00	     8.485
  35.360         59.17	     8.426
  35.380         60.83	     8.544
  35.400         64.17	     8.775
  35.420         49.17	     7.681
  35.440         60.00	     8.485
  35.460         45.83	     7.416
  35.480         40.00	     6.928
  35.500         55.83	     8.185
  35.520         45.00	     7.348
  35.540         48.33	     7.616
  35.560         56.67	     8.246
  35.580         45.83	     7.416
  35.600         50.83	     7.810
  35.620         45.00	     7.348
  35.640         49.17	     7.681
  35.660         50.00	     7.746
  35.680         43.33	     7.211
  35.700         35.83	     6.557
  35.720         63.33	     8.718
  35.740         43.33	     7.211
  35.760         49.17	     7.681
  35.780         52.50	     7.937
  35.800         46.67	     7.483
  35.820         60.00	     8.485
  35.840         56.67	     8.246
  35.860         47.50	     7.550
  35.880         52.50	     7.937
  35.900         50.83	     7.810
  35.920         69.17	     9.110
  35.940         70.00	     9.165
  35.960         74.17	     9.434
  35.980         72.50	     9.327
  36.000         78.33	     9.695
  36.020         79.17	     9.747
  36.040         74.17	     9.434
  36.060         89.17	    10.344
  36.080        110.00	    11.489
  36.100         97.50	    10.817
  36.120         75.83	     9.539
  36.140         85.00	    10.100
  36.160         82.50	     9.950
  36.180         82.50	     9.950
  36.200         63.33	     8.718
  36.220         70.83	     9.220
  36.240         55.83	     8.185
  36.260         59.17	     8.426
  36.280         64.17	     8.775
  36.300         66.67	     8.944
  36.320         80.83	     9.849
  36.340         64.17	     8.775
  36.360         68.33	     9.055
  36.380         74.17	     9.434
  36.400         77.50	     9.644
  36.420         69.17	     9.110
  36.440         65.83	     8.888
  36.460         83.33	    10.000
  36.480         70.00	     9.165
  36.500         72.50	     9.327
  36.520         82.50	     9.950
  36.540         57.50	     8.307
  36.560         59.17	     8.426
  36.580         74.17	     9.434
  36.600         72.50	     9.327
  36.620         59.17	     8.426
  36.640         52.50	     7.937
  36.660         59.17	     8.426
  36.680         69.17	     9.110
  36.700         55.83	     8.185
  36.720         57.50	     8.307
  36.740         67.50	     9.000
  36.760         63.33	     8.718
  36.780         72.50	     9.327
  36.800         66.67	     8.944
  36.820         70.00	     9.165
  36.840         77.50	     9.644
  36.860         89.17	    10.344
  36.880         99.17	    10.909
  36.900         87.50	    10.247
  36.920         75.83	     9.539
  36.940         95.00	    10.677
  36.960        106.67	    11.314
  36.980        100.83	    11.000
  37.000         95.00	    10.677
  37.020         90.00	    10.392
  37.040         97.50	    10.817
  37.060         92.50	    10.536
  37.080         92.50	    10.536
  37.100         95.00	    10.677
  37.120        100.83	    11.000
  37.140         66.67	     8.944
  37.160         80.83	     9.849
  37.180         85.83	    10.149
  37.200         90.83	    10.440
  37.220         90.83	    10.440
  37.240         96.67	    10.770
  37.260         82.50	     9.950
  37.280         74.17	     9.434
  37.300         81.67	     9.899
  37.320         83.33	    10.000
  37.340         95.00	    10.677
  37.360         94.17	    10.630
  37.380        114.17	    11.705
  37.400        115.00	    11.747
  37.420        122.50	    12.124
  37.440        142.50	    13.077
  37.460        155.00	    13.638
  37.480        156.67	    13.711
  37.500        146.67	    13.266
  37.520        140.00	    12.961
  37.540        147.50	    13.304
  37.560        172.50	    14.387
  37.580        164.17	    14.036
  37.600        141.67	    13.038
  37.620        180.00	    14.697
  37.640        159.17	    13.820
  37.660        139.17	    12.923
  37.680        123.33	    12.166
  37.700        136.67	    12.806
  37.720        145.83	    13.229
  37.740        140.00	    12.961
  37.760        139.17	    12.923
  37.780        111.67	    11.576
  37.800        145.83	    13.229
  37.820        177.50	    14.595
  37.840        175.00	    14.491
  37.860        170.00	    14.283
  37.880        209.17	    15.843
  37.900        198.33	    15.427
  37.920        234.17	    16.763
  37.940        202.50	    15.588
  37.960        220.00	    16.248
  37.980        199.17	    15.460
  38.000        213.33	    16.000
  38.020        200.00	    15.492
  38.040        204.17	    15.652
  38.060        173.33	    14.422
  38.080        156.67	    13.711
  38.100        139.17	    12.923
  38.120        144.17	    13.153
  38.140        152.50	    13.528
  38.160        144.17	    13.153
  38.180        137.50	    12.845
  38.200        134.17	    12.689
  38.220        137.50	    12.845
  38.240        136.67	    12.806
  38.260        115.00	    11.747
  38.280        123.33	    12.166
  38.300        115.83	    11.790
  38.320        113.33	    11.662
  38.340        117.50	    11.874
  38.360        116.67	    11.832
  38.380        119.17	    11.958
  38.400        121.67	    12.083
  38.420        148.33	    13.342
  38.440        164.17	    14.036
  38.460        168.33	    14.213
  38.480        171.67	    14.353
  38.500        201.67	    15.556
  38.520        205.00	    15.684
  38.540        199.17	    15.460
  38.560        211.67	    15.937
  38.580        242.50	    17.059
  38.600        220.00	    16.248
  38.620        190.00	    15.100
  38.640        179.17	    14.663
  38.660        200.83	    15.524
  38.680        155.83	    13.675
  38.700        135.83	    12.767
  38.720        143.33	    13.115
  38.740        123.33	    12.166
  38.760        103.33	    11.136
  38.780        110.00	    11.489
  38.800        101.67	    11.045
  38.820        105.00	    11.225
  38.840        112.50	    11.619
  38.860         92.50	    10.536
  38.880        100.00	    10.954
  38.900         76.67	     9.592
  38.920        103.33	    11.136
  38.940        103.33	    11.136
  38.960         98.33	    10.863
  38.980         82.50	     9.950
  39.000        100.83	    11.000
  39.020        112.50	    11.619
  39.040        125.83	    12.288
  39.060        126.67	    12.329
  39.080        103.33	    11.136
  39.100        135.83	    12.767
  39.120        116.67	    11.832
  39.140        134.17	    12.689
  39.160        116.67	    11.832
  39.180         99.17	    10.909
  39.200         70.83	     9.220
  39.220         80.00	     9.798
  39.240         76.67	     9.592
  39.260         80.83	     9.849
  39.280         73.33	     9.381
  39.300         94.17	    10.630
  39.320         85.83	    10.149
  39.340         92.50	    10.536
  39.360         81.67	     9.899
  39.380        116.67	    11.832
  39.400        111.67	    11.576
  39.420        119.17	    11.958
  39.440        165.83	    14.107
  39.460        175.83	    14.526
  39.480        238.33	    16.912
  39.500        278.33	    18.276
  39.520        330.83	    19.925
  39.540        342.50	    20.273
  39.560        307.50	    19.209
  39.580        283.33	    18.439
  39.600        248.33	    17.263
  39.620        248.33	    17.263
  39.640        222.50	    16.340
  39.660        187.50	    15.000
  39.680        175.00	    14.491
  39.700        146.67	    13.266
  39.720        154.17	    13.601
  39.740        137.50	    12.845
  39.760        122.50	    12.124
  39.780        131.67	    12.570
  39.800        109.17	    11.446
  39.820        113.33	    11.662
  39.840        100.00	    10.954
  39.860         88.33	    10.296
  39.880         86.67	    10.198
  39.900         74.17	     9.434
  39.920         83.33	    10.000
  39.940         70.00	     9.165
  39.960         78.33	     9.695
  39.980         70.00	     9.165
  40.000         75.83	     9.539
  40.020         85.00	    10.100
  40.040         61.67	     8.602
  40.060         72.50	     9.327
  40.080         70.83	     9.220
  40.100         80.00	     9.798
  40.120         72.50	     9.327
  40.140         74.17	     9.434
  40.160         63.33	     8.718
  40.180         77.50	     9.644
  40.200         81.67	     9.899
  40.220         79.17	     9.747
  40.240         74.17	     9.434
  40.260         85.83	    10.149
  40.280         79.17	     9.747
  40.300         76.67	     9.592
  40.320         85.00	    10.100
  40.340         89.17	    10.344
  40.360         87.50	    10.247
  40.380        101.67	    11.045
  40.400        104.17	    11.180
  40.420        115.83	    11.790
  40.440        119.17	    11.958
  40.460        107.50	    11.358
  40.480        128.33	    12.410
  40.500        135.00	    12.728
  40.520        129.17	    12.450
  40.540        133.33	    12.649
  40.560        176.67	    14.560
  40.580        164.17	    14.036
  40.600        164.17	    14.036
  40.620        141.67	    13.038
  40.640        151.67	    13.491
  40.660        150.00	    13.416
  40.680        170.00	    14.283
  40.700        155.00	    13.638
  40.720        149.17	    13.379
  40.740        142.50	    13.077
  40.760        117.50	    11.874
  40.780        106.67	    11.314
  40.800         95.83	    10.724
  40.820         85.00	    10.100
  40.840         78.33	     9.695
  40.860         80.00	     9.798
  40.880         73.33	     9.381
  40.900         79.17	     9.747
  40.920         58.33	     8.367
  40.940         75.83	     9.539
  40.960         51.67	     7.874
  40.980         75.00	     9.487
  41.000         60.83	     8.544
  41.020         53.33	     8.000
  41.040         45.00	     7.348
  41.060         51.67	     7.874
  41.080         50.83	     7.810
  41.100         40.83	     7.000
  41.120         46.67	     7.483
  41.140         44.17	     7.280
  41.160         41.67	     7.071
  41.180         50.83	     7.810
  41.200         42.50	     7.141
  41.220         43.33	     7.211
  41.240         45.83	     7.416
  41.260         46.67	     7.483
  41.280         40.83	     7.000
  41.300         43.33	     7.211
  41.320         52.50	     7.937
  41.340         53.33	     8.000
  41.360         47.50	     7.550
  41.380         52.50	     7.937
  41.400         42.50	     7.141
  41.420         65.83	     8.888
  41.440         54.17	     8.062
  41.460         66.67	     8.944
  41.480         71.67	     9.274
  41.500         57.50	     8.307
  41.520         64.17	     8.775
  41.540         85.83	    10.149
  41.560        138.33	    12.884
  41.580        137.50	    12.845
  41.600         95.00	    10.677
  41.620         81.67	     9.899
  41.640         80.83	     9.849
  41.660         85.83	    10.149
  41.680         92.50	    10.536
  41.700         73.33	     9.381
  41.720         60.00	     8.485
  41.740         68.33	     9.055
  41.760         73.33	     9.381
  41.780         87.50	    10.247
  41.800        120.83	    12.042
  41.820        111.67	    11.576
  41.840         90.83	    10.440
  41.860         67.50	     9.000
  41.880         85.83	    10.149
  41.900         80.00	     9.798
  41.920         90.83	    10.440
  41.940         66.67	     8.944
  41.960         65.83	     8.888
  41.980         40.83	     7.000
  42.000         45.83	     7.416
  42.020         48.33	     7.616
  42.040         60.00	     8.485
  42.060         55.83	     8.185
  42.080         59.17	     8.426
  42.100         49.17	     7.681
  42.120         54.17	     8.062
  42.140         50.83	     7.810
  42.160         65.83	     8.888
  42.180         50.00	     7.746
  42.200         55.00	     8.124
  42.220         55.00	     8.124
  42.240         60.83	     8.544
  42.260         59.17	     8.426
  42.280         60.00	     8.485
  42.300         64.17	     8.775
  42.320         70.83	     9.220
  42.340         77.50	     9.644
  42.360        105.00	    11.225
  42.380        103.33	    11.136
  42.400        115.83	    11.790
  42.420        138.33	    12.884
  42.440        175.00	    14.491
  42.460        203.33	    15.620
  42.480        252.50	    17.407
  42.500        223.33	    16.371
  42.520        144.17	    13.153
  42.540        136.67	    12.806
  42.560        135.00	    12.728
  42.580        153.33	    13.565
  42.600        157.50	    13.748
  42.620        116.67	    11.832
  42.640         99.17	    10.909
  42.660         83.33	    10.000
  42.680         84.17	    10.050
  42.700         77.50	     9.644
  42.720         85.00	    10.100
  42.740         82.50	     9.950
  42.760         82.50	     9.950
  42.780         80.83	     9.849
  42.800         63.33	     8.718
  42.820         72.50	     9.327
  42.840         73.33	     9.381
  42.860         75.00	     9.487
  42.880         59.17	     8.426
  42.900         80.00	     9.798
  42.920         78.33	     9.695
  42.940         64.17	     8.775
  42.960         65.00	     8.832
  42.980         66.67	     8.944
  43.000         61.67	     8.602
  43.020         75.83	     9.539
  43.040         65.83	     8.888
  43.060         70.00	     9.165
  43.080         60.83	     8.544
  43.100         73.33	     9.381
  43.120         67.50	     9.000
  43.140         59.17	     8.426
  43.160         75.00	     9.487
  43.180         66.67	     8.944
  43.200         92.50	    10.536
  43.220         83.33	    10.000
  43.240         95.83	    10.724
  43.260        113.33	    11.662
  43.280        111.67	    11.576
  43.300        122.50	    12.124
  43.320        127.50	    12.369
  43.340        109.17	    11.446
  43.360         98.33	    10.863
  43.380         94.17	    10.630
  43.400         85.00	    10.100
  43.420         92.50	    10.536
  43.440         75.83	     9.539
  43.460         87.50	    10.247
  43.480         64.17	     8.775
  43.500         64.17	     8.775
  43.520         57.50	     8.307
  43.540         64.17	     8.775
  43.560         56.67	     8.246
  43.580         56.67	     8.246
  43.600         49.17	     7.681
  43.620         54.17	     8.062
  43.640         40.83	     7.000
  43.660         53.33	     8.000
  43.680         58.33	     8.367
  43.700         55.00	     8.124
  43.720         56.67	     8.246
  43.740         64.17	     8.775
  43.760         58.33	     8.367
  43.780         65.00	     8.832
  43.800         58.33	     8.367
  43.820         69.17	     9.110
  43.840         60.00	     8.485
  43.860         63.33	     8.718
  43.880         62.50	     8.660
  43.900         70.83	     9.220
  43.920         60.83	     8.544
  43.940         64.17	     8.775
  43.960         70.00	     9.165
  43.980         64.17	     8.775
  44.000         65.00	     8.832
  44.020         55.83	     8.185
  44.040         65.00	     8.832
  44.060         53.33	     8.000
  44.080         55.83	     8.185
  44.100         64.17	     8.775
  44.120         64.17	     8.775
  44.140         65.83	     8.888
  44.160         73.33	     9.381
  44.180         56.67	     8.246
  44.200         81.67	     9.899
  44.220         80.83	     9.849
  44.240         76.67	     9.592
  44.260         85.83	    10.149
  44.280         82.50	     9.950
  44.300         65.83	     8.888
  44.320         68.33	     9.055
  44.340         74.17	     9.434
  44.360         64.17	     8.775
  44.380         70.83	     9.220
  44.400         65.83	     8.888
  44.420         47.50	     7.550
  44.440         70.83	     9.220
  44.460         63.33	     8.718
  44.480         55.83	     8.185
  44.500         67.50	     9.000
  44.520         68.33	     9.055
  44.540         77.50	     9.644
  44.560         79.17	     9.747
  44.580         66.67	     8.944
  44.600         77.50	     9.644
  44.620        110.83	    11.533
  44.640         98.33	    10.863
  44.660        112.50	    11.619
  44.680         92.50	    10.536
  44.700        110.00	    11.489
  44.720        117.50	    11.874
  44.740        124.17	    12.207
  44.760        130.00	    12.490
  44.780        101.67	    11.045
  44.800        132.50	    12.610
  44.820        115.83	    11.790
  44.840        100.83	    11.000
  44.860        111.67	    11.576
  44.880        100.83	    11.000
  44.900        107.50	    11.358
  44.920        106.67	    11.314
  44.940         97.50	    10.817
  44.960        105.00	    11.225
  44.980        116.67	    11.832
  45.000         85.00	    10.100
  45.020         88.33	    10.296
  45.040         81.67	     9.899
  45.060         95.00	    10.677
  45.080         77.50	     9.644
  45.100         90.00	    10.392
  45.120         71.67	     9.274
  45.140         72.50	     9.327
  45.160         84.17	    10.050
  45.180         75.83	     9.539
  45.200         77.50	     9.644
  45.220         88.33	    10.296
  45.240        113.33	    11.662
  45.260         90.00	    10.392
  45.280         94.17	    10.630
  45.300        105.83	    11.269
  45.320        115.83	    11.790
  45.340        130.83	    12.530
  45.360        161.67	    13.928
  45.380        165.83	    14.107
  45.400        196.67	    15.362
  45.420        205.00	    15.684
  45.440        210.00	    15.875
  45.460        195.83	    15.330
  45.480        183.33	    14.832
  45.500        159.17	    13.820
  45.520        180.83	    14.731
  45.540        159.17	    13.820
  45.560        122.50	    12.124
  45.580        128.33	    12.410
  45.600         90.83	    10.440
  45.620         91.67	    10.488
  45.640         75.83	     9.539
  45.660         68.33	     9.055
  45.680         66.67	     8.944
  45.700         73.33	     9.381
  45.720         74.17	     9.434
  45.740         78.33	     9.695
  45.760         66.67	     8.944
  45.780         79.17	     9.747
  45.800         60.00	     8.485
  45.820         62.50	     8.660
  45.840         60.83	     8.544
  45.860         64.17	     8.775
  45.880         55.83	     8.185
  45.900         62.50	     8.660
  45.920         51.67	     7.874
  45.940         55.83	     8.185
  45.960         48.33	     7.616
  45.980         55.00	     8.124
  46.000         51.67	     7.874
  46.020         57.50	     8.307
  46.040         42.50	     7.141
  46.060         46.67	     7.483
  46.080         67.50	     9.000
  46.100         41.67	     7.071
  46.120         42.50	     7.141
  46.140         50.00	     7.746
  46.160         52.50	     7.937
  46.180         49.17	     7.681
  46.200         52.50	     7.937
  46.220         49.17	     7.681
  46.240         51.67	     7.874
  46.260         45.83	     7.416
  46.280         45.00	     7.348
  46.300         48.33	     7.616
  46.320         39.17	     6.856
  46.340         41.67	     7.071
  46.360         52.50	     7.937
  46.380         42.50	     7.141
  46.400         65.83	     8.888
  46.420         55.83	     8.185
  46.440         47.50	     7.550
  46.460         44.17	     7.280
  46.480         45.00	     7.348
  46.500         61.67	     8.602
  46.520         60.00	     8.485
  46.540         55.83	     8.185
  46.560         60.83	     8.544
  46.580         55.00	     8.124
  46.600         58.33	     8.367
  46.620         40.83	     7.000
  46.640         54.17	     8.062
  46.660         42.50	     7.141
  46.680         48.33	     7.616
  46.700         44.17	     7.280
  46.720         56.67	     8.246
  46.740         60.83	     8.544
  46.760         58.33	     8.367
  46.780         45.83	     7.416
  46.800         67.50	     9.000
  46.820         61.67	     8.602
  46.840         49.17	     7.681
  46.860         62.50	     8.660
  46.880         61.67	     8.602
  46.900         60.83	     8.544
  46.920         62.50	     8.660
  46.940         75.83	     9.539
  46.960         51.67	     7.874
  46.980         58.33	     8.367
  47.000         61.67	     8.602
  47.020         60.00	     8.485
  47.040         54.17	     8.062
  47.060         54.17	     8.062
  47.080         65.83	     8.888
  47.100         63.33	     8.718
  47.120         74.17	     9.434
  47.140         86.67	    10.198
  47.160         83.33	    10.000
  47.180         94.17	    10.630
  47.200         95.00	    10.677
  47.220        130.00	    12.490
  47.240        103.33	    11.136
  47.260         89.17	    10.344
  47.280         63.33	     8.718
  47.300         91.67	    10.488
  47.320         72.50	     9.327
  47.340         96.67	    10.770
  47.360         82.50	     9.950
  47.380         57.50	     8.307
  47.400         54.17	     8.062
  47.420         55.83	     8.185
  47.440         60.00	     8.485
  47.460         73.33	     9.381
  47.480         55.83	     8.185
  47.500         69.17	     9.110
  47.520         64.17	     8.775
  47.540         55.83	     8.185
  47.560         59.17	     8.426
  47.580         47.50	     7.550
  47.600         65.83	     8.888
  47.620         66.67	     8.944
  47.640         57.50	     8.307
  47.660         52.50	     7.937
  47.680         57.50	     8.307
  47.700         46.67	     7.483
  47.720         52.50	     7.937
  47.740         74.17	     9.434
  47.760         65.83	     8.888
  47.780         75.00	     9.487
  47.800         77.50	     9.644
  47.820         85.83	    10.149
  47.840         93.33	    10.583
  47.860         84.17	    10.050
  47.880        100.00	    10.954
  47.900        102.50	    11.091
  47.920        118.33	    11.916
  47.940         91.67	    10.488
  47.960         95.83	    10.724
  47.980        106.67	    11.314
  48.000        108.33	    11.402
  48.020         93.33	    10.583
  48.040         96.67	    10.770
  48.060        100.00	    10.954
  48.080         94.17	    10.630
  48.100        115.00	    11.747
  48.120         98.33	    10.863
  48.140        102.50	    11.091
  48.160        116.67	    11.832
  48.180        110.00	    11.489
  48.200         84.17	    10.050
  48.220         99.17	    10.909
  48.240         96.67	    10.770
  48.260        104.17	    11.180
  48.280        127.50	    12.369
  48.300        122.50	    12.124
  48.320        153.33	    13.565
  48.340        230.00	    16.613
  48.360        368.33	    21.024
  48.380        428.33	    22.672
  48.400        277.50	    18.248
  48.420        255.83	    17.521
  48.440        286.67	    18.547
  48.460        361.67	    20.833
  48.480        553.33	    25.768
  48.500        672.50	    28.408
  48.520        647.50	    27.875
  48.540        457.50	    23.431
  48.560        372.50	    21.142
  48.580        361.67	    20.833
  48.600        400.83	    21.932
  48.620        423.33	    22.539
  48.640        390.83	    21.656
  48.660        301.67	    19.026
  48.680        245.00	    17.146
  48.700        209.17	    15.843
  48.720        201.67	    15.556
  48.740        195.00	    15.297
  48.760        200.00	    15.492
  48.780        195.00	    15.297
  48.800        166.67	    14.142
  48.820        150.00	    13.416
  48.840        145.83	    13.229
  48.860        145.00	    13.191
  48.880        121.67	    12.083
  48.900        125.83	    12.288
  48.920        116.67	    11.832
  48.940        125.00	    12.247
  48.960        113.33	    11.662
  48.980         83.33	    10.000
  49.000         77.50	     9.644
  49.020         90.00	    10.392
  49.040         75.00	     9.487
  49.060         77.50	     9.644
  49.080         75.83	     9.539
  49.100         93.33	    10.583
  49.120         72.50	     9.327
  49.140         90.00	    10.392
  49.160        137.50	    12.845
  49.180        105.83	    11.269
  49.200         94.17	    10.630
  49.220         64.17	     8.775
  49.240         60.83	     8.544
  49.260         71.67	     9.274
  49.280         68.33	     9.055
  49.300         84.17	    10.050
  49.320         59.17	     8.426
  49.340         60.83	     8.544
  49.360         54.17	     8.062
  49.380         46.67	     7.483
  49.400         39.17	     6.856
  49.420         60.83	     8.544
  49.440         46.67	     7.483
  49.460         41.67	     7.071
  49.480         49.17	     7.681
  49.500         54.17	     8.062
  49.520         51.67	     7.874
  49.540         53.33	     8.000
  49.560         50.00	     7.746
  49.580         55.83	     8.185
  49.600         45.83	     7.416
  49.620         60.83	     8.544
  49.640         45.00	     7.348
  49.660         47.50	     7.550
  49.680         43.33	     7.211
  49.700         46.67	     7.483
  49.720         48.33	     7.616
  49.740         50.83	     7.810
  49.760         40.83	     7.000
  49.780         41.67	     7.071
  49.800         45.00	     7.348
  49.820         44.17	     7.280
  49.840         43.33	     7.211
  49.860         39.17	     6.856
  49.880         35.83	     6.557
  49.900         36.67	     6.633
  49.920         39.17	     6.856
  49.940         40.83	     7.000
  49.960         35.00	     6.481
  49.980         48.33	     7.616
  50.000         56.67	     8.246
  50.020         60.83	     8.544
  50.040         56.67	     8.246
  50.060         64.17	     8.775
  50.080         59.17	     8.426
  50.100         48.33	     7.616
  50.120         53.33	     8.000
  50.140         55.00	     8.124
  50.160         59.17	     8.426
  50.180         54.17	     8.062
  50.200         69.17	     9.110
  50.220         60.83	     8.544
  50.240         53.33	     8.000
  50.260         63.33	     8.718
  50.280         65.83	     8.888
  50.300         50.00	     7.746
  50.320         45.83	     7.416
  50.340         50.83	     7.810
  50.360         51.67	     7.874
  50.380         45.83	     7.416
  50.400         39.17	     6.856
  50.420         32.50	     6.245
  50.440         41.67	     7.071
  50.460         45.00	     7.348
  50.480         49.17	     7.681
  50.500         35.00	     6.481
  50.520         44.17	     7.280
  50.540         37.50	     6.708
  50.560         29.17	     5.916
  50.580         42.50	     7.141
  50.600         37.50	     6.708
  50.620         36.67	     6.633
  50.640         35.00	     6.481
  50.660         36.67	     6.633
  50.680         47.50	     7.550
  50.700         49.17	     7.681
  50.720         35.83	     6.557
  50.740         32.50	     6.245
  50.760         45.83	     7.416
  50.780         40.83	     7.000
  50.800         39.17	     6.856
  50.820         40.00	     6.928
  50.840         40.00	     6.928
  50.860         50.00	     7.746
  50.880         55.83	     8.185
  50.900         60.83	     8.544
  50.920         41.67	     7.071
  50.940         53.33	     8.000
  50.960         70.83	     9.220
  50.980         58.33	     8.367
  51.000         58.33	     8.367
  51.020         81.67	     9.899
  51.040         67.50	     9.000
  51.060         91.67	    10.488
  51.080         92.50	    10.536
  51.100        100.00	    10.954
  51.120        131.67	    12.570
  51.140         83.33	    10.000
  51.160         77.50	     9.644
  51.180         81.67	     9.899
  51.200         77.50	     9.644
  51.220        100.00	    10.954
  51.240         91.67	    10.488
  51.260         70.83	     9.220
  51.280         81.67	     9.899
  51.300         56.67	     8.246
  51.320         60.83	     8.544
  51.340         57.50	     8.307
  51.360         59.17	     8.426
  51.380         50.83	     7.810
  51.400         42.50	     7.141
  51.420         65.00	     8.832
  51.440         63.33	     8.718
  51.460         53.33	     8.000
  51.480         53.33	     8.000
  51.500         52.50	     7.937
  51.520         54.17	     8.062
  51.540         40.83	     7.000
  51.560         44.17	     7.280
  51.580         48.33	     7.616
  51.600         40.83	     7.000
  51.620         56.67	     8.246
  51.640         59.17	     8.426
  51.660         62.50	     8.660
  51.680         57.50	     8.307
  51.700         54.17	     8.062
  51.720         56.67	     8.246
  51.740         53.33	     8.000
  51.760         50.83	     7.810
  51.780         50.00	     7.746
  51.800         56.67	     8.246
  51.820         44.17	     7.280
  51.840         47.50	     7.550
  51.860         42.50	     7.141
  51.880         45.83	     7.416
  51.900         42.50	     7.141
  51.920         45.83	     7.416
  51.940         51.67	     7.874
  51.960         40.83	     7.000
  51.980         50.83	     7.810
  52.000         45.83	     7.416
  52.020         40.00	     6.928
  52.040         40.83	     7.000
  52.060         37.50	     6.708
  52.080         40.00	     6.928
  52.100         39.17	     6.856
  52.120         65.00	     8.832
  52.140         78.33	     9.695
  52.160        100.00	    10.954
  52.180        101.67	    11.045
  52.200         95.00	    10.677
  52.220         75.83	     9.539
  52.240         61.67	     8.602
  52.260         83.33	    10.000
  52.280         87.50	    10.247
  52.300         95.83	    10.724
  52.320         80.00	     9.798
  52.340         74.17	     9.434
  52.360         76.67	     9.592
  52.380         65.00	     8.832
  52.400         60.00	     8.485
  52.420         50.00	     7.746
  52.440         53.33	     8.000
  52.460         65.00	     8.832
  52.480         64.17	     8.775
  52.500         50.83	     7.810
  52.520         55.00	     8.124
  52.540         65.00	     8.832
  52.560         61.67	     8.602
  52.580         70.83	     9.220
  52.600         82.50	     9.950
  52.620         80.83	     9.849
  52.640         65.83	     8.888
  52.660         65.83	     8.888
  52.680         65.00	     8.832
  52.700         57.50	     8.307
  52.720         75.00	     9.487
  52.740         73.33	     9.381
  52.760         65.00	     8.832
  52.780         79.17	     9.747
  52.800         75.00	     9.487
  52.820         64.17	     8.775
  52.840         77.50	     9.644
  52.860         93.33	    10.583
  52.880         93.33	    10.583
  52.900         95.00	    10.677
  52.920         97.50	    10.817
  52.940         98.33	    10.863
  52.960        120.83	    12.042
  52.980        109.17	    11.446
  53.000        124.17	    12.207
  53.020        142.50	    13.077
  53.040        161.67	    13.928
  53.060        210.00	    15.875
  53.080        270.83	    18.028
  53.100        289.17	    18.628
  53.120        325.83	    19.774
  53.140        331.67	    19.950
  53.160        351.67	    20.543
  53.180        259.17	    17.635
  53.200        207.50	    15.780
  53.220        184.17	    14.866
  53.240        167.50	    14.177
  53.260        156.67	    13.711
  53.280        175.00	    14.491
  53.300        166.67	    14.142
  53.320        112.50	    11.619
  53.340         95.83	    10.724
  53.360         72.50	     9.327
  53.380         66.67	     8.944
  53.400         62.50	     8.660
  53.420         54.17	     8.062
  53.440         55.00	     8.124
  53.460         54.17	     8.062
  53.480         73.33	     9.381
  53.500         70.83	     9.220
  53.520         60.00	     8.485
  53.540         80.83	     9.849
  53.560         74.17	     9.434
  53.580         93.33	    10.583
  53.600         78.33	     9.695
  53.620        100.00	    10.954
  53.640         89.17	    10.344
  53.660         73.33	     9.381
  53.680         72.50	     9.327
  53.700         66.67	     8.944
  53.720         75.83	     9.539
  53.740         80.00	     9.798
  53.760         65.83	     8.888
  53.780         84.17	    10.050
  53.800         66.67	     8.944
  53.820         87.50	    10.247
  53.840        117.50	    11.874
  53.860        115.00	    11.747
  53.880         85.83	    10.149
  53.900         55.83	     8.185
  53.920         44.17	     7.280
  53.940         61.67	     8.602
  53.960         58.33	     8.367
  53.980         85.83	    10.149
  54.000         77.50	     9.644
  54.020         50.00	     7.746
  54.040         47.50	     7.550
  54.060         71.67	     9.274
  54.080        120.00	    12.000
  54.100        108.33	    11.402
  54.120        109.17	    11.446
  54.140         85.83	    10.149
  54.160         75.83	     9.539
  54.180         84.17	    10.050
  54.200         90.00	    10.392
  54.220         97.50	    10.817
  54.240         82.50	     9.950
  54.260         99.17	    10.909
  54.280         83.33	    10.000
  54.300         57.50	     8.307
  54.320         56.67	     8.246
  54.340         69.17	     9.110
  54.360         51.67	     7.874
  54.380         60.83	     8.544
  54.400         60.00	     8.485
  54.420         50.83	     7.810
  54.440         43.33	     7.211
  54.460         40.83	     7.000
  54.480         38.33	     6.782
  54.500         39.17	     6.856
  54.520         39.17	     6.856
  54.540         36.67	     6.633
  54.560         41.67	     7.071
  54.580         46.67	     7.483
  54.600         28.33	     5.831
  54.620         49.17	     7.681
  54.640         48.33	     7.616
  54.660         36.67	     6.633
  54.680         44.17	     7.280
  54.700         42.50	     7.141
  54.720         35.83	     6.557
  54.740         40.00	     6.928
  54.760         42.50	     7.141
  54.780         36.67	     6.633
  54.800         30.83	     6.083
  54.820         40.00	     6.928
  54.840         30.83	     6.083
  54.860         35.83	     6.557
  54.880         34.17	     6.403
  54.900         30.83	     6.083
  54.920         40.83	     7.000
  54.940         35.83	     6.557
  54.960         41.67	     7.071
  54.980         36.67	     6.633
  55.000         42.50	     7.141
  55.020         55.83	     8.185
  55.040         55.83	     8.185
  55.060         54.17	     8.062
  55.080         52.50	     7.937
  55.100         59.17	     8.426
  55.120         60.83	     8.544
  55.140         66.67	     8.944
  55.160         64.17	     8.775
  55.180         63.33	     8.718
  55.200         77.50	     9.644
  55.220         75.83	     9.539
  55.240         58.33	     8.367
  55.260         65.00	     8.832
  55.280         67.50	     9.000
  55.300         63.33	     8.718
  55.320         60.00	     8.485
  55.340         49.17	     7.681
  55.360         58.33	     8.367
  55.380         49.17	     7.681
  55.400         45.83	     7.416
  55.420         60.83	     8.544
  55.440         56.67	     8.246
  55.460         61.67	     8.602
  55.480         52.50	     7.937
  55.500         56.67	     8.246
  55.520         57.50	     8.307
  55.540         56.67	     8.246
  55.560         50.83	     7.810
  55.580         73.33	     9.381
  55.600         63.33	     8.718
  55.620         56.67	     8.246
  55.640         59.17	     8.426
  55.660         58.33	     8.367
  55.680         50.00	     7.746
  55.700         52.50	     7.937
  55.720         55.00	     8.124
  55.740         45.00	     7.348
  55.760         70.83	     9.220
  55.780         54.17	     8.062
  55.800         50.00	     7.746
  55.820         50.00	     7.746
  55.840         57.50	     8.307
  55.860         56.67	     8.246
  55.880         60.00	     8.485
  55.900         60.00	     8.485
  55.920         61.67	     8.602
  55.940         49.17	     7.681
  55.960         60.00	     8.485
  55.980         45.83	     7.416
  56.000         60.83	     8.544
  56.020         61.67	     8.602
  56.040         74.17	     9.434
  56.060         62.50	     8.660
  56.080         61.67	     8.602
  56.100         53.33	     8.000
  56.120         49.17	     7.681
  56.140         60.00	     8.485
  56.160         68.33	     9.055
  56.180         85.00	    10.100
  56.200         70.00	     9.165
  56.220         75.00	     9.487
  56.240         50.83	     7.810
  56.260         85.00	    10.100
  56.280         69.17	     9.110
  56.300         80.83	     9.849
  56.320         72.50	     9.327
  56.340         76.67	     9.592
  56.360         65.83	     8.888
  56.380         60.00	     8.485
  56.400         48.33	     7.616
  56.420         63.33	     8.718
  56.440         57.50	     8.307
  56.460         80.83	     9.849
  56.480         52.50	     7.937
  56.500         48.33	     7.616
  56.520         43.33	     7.211
  56.540         37.50	     6.708
  56.560         45.00	     7.348
  56.580         46.67	     7.483
  56.600         50.00	     7.746
  56.620         42.50	     7.141
  56.640         59.17	     8.426
  56.660         54.17	     8.062
  56.680         46.67	     7.483
  56.700         41.67	     7.071
  56.720         40.83	     7.000
  56.740         41.67	     7.071
  56.760         49.17	     7.681
  56.780         46.67	     7.483
  56.800         54.17	     8.062
  56.820         44.17	     7.280
  56.840         45.83	     7.416
  56.860         45.00	     7.348
  56.880         45.83	     7.416
  56.900         56.67	     8.246
  56.920         44.17	     7.280
  56.940         40.83	     7.000
  56.960         55.83	     8.185
  56.980         45.00	     7.348
  57.000         50.83	     7.810
  57.020         50.00	     7.746
  57.040         57.50	     8.307
  57.060         56.67	     8.246
  57.080         66.67	     8.944
  57.100         44.17	     7.280
  57.120         54.17	     8.062
  57.140         53.33	     8.000
  57.160         62.50	     8.660
  57.180         48.33	     7.616
  57.200         50.83	     7.810
  57.220         46.67	     7.483
  57.240         48.33	     7.616
  57.260         65.83	     8.888
  57.280         88.33	    10.296
  57.300         84.17	    10.050
  57.320         85.00	    10.100
  57.340         63.33	     8.718
  57.360         73.33	     9.381
  57.380         67.50	     9.000
  57.400         78.33	     9.695
  57.420         72.50	     9.327
  57.440         84.17	    10.050
  57.460         81.67	     9.899
  57.480         74.17	     9.434
  57.500         82.50	     9.950
  57.520         56.67	     8.246
  57.540         60.00	     8.485
  57.560         63.33	     8.718
  57.580         57.50	     8.307
  57.600         50.83	     7.810
  57.620         66.67	     8.944
  57.640         61.67	     8.602
  57.660         68.33	     9.055
  57.680         67.50	     9.000
  57.700         73.33	     9.381
  57.720         74.17	     9.434
  57.740         70.00	     9.165
  57.760         81.67	     9.899
  57.780         95.00	    10.677
  57.800        105.83	    11.269
  57.820        105.00	    11.225
  57.840        115.83	    11.790
  57.860        108.33	    11.402
  57.880        115.83	    11.790
  57.900        100.83	    11.000
  57.920         81.67	     9.899
  57.940         89.17	    10.344
  57.960         86.67	    10.198
  57.980         83.33	    10.000
  58.000         75.83	     9.539
  58.020         96.67	    10.770
  58.040         70.83	     9.220
  58.060         57.50	     8.307
  58.080         72.50	     9.327
  58.100         65.83	     8.888
  58.120         66.67	     8.944
  58.140         63.33	     8.718
  58.160         92.50	    10.536
  58.180         74.17	     9.434
  58.200         85.83	    10.149
  58.220         81.67	     9.899
  58.240         95.83	    10.724
  58.260         85.83	    10.149
  58.280        104.17	    11.180
  58.300        107.50	    11.358
  58.320        110.00	    11.489
  58.340        106.67	    11.314
  58.360        105.83	    11.269
  58.380         80.83	     9.849
  58.400         75.00	     9.487
  58.420         82.50	     9.950
  58.440         98.33	    10.863
  58.460         85.00	    10.100
  58.480         80.83	     9.849
  58.500         79.17	     9.747
  58.520         83.33	    10.000
  58.540         71.67	     9.274
  58.560         65.00	     8.832
  58.580         70.00	     9.165
  58.600         65.00	     8.832
  58.620         75.00	     9.487
  58.640         73.33	     9.381
  58.660         65.83	     8.888
  58.680         70.83	     9.220
  58.700         92.50	    10.536
  58.720         84.17	    10.050
  58.740         95.00	    10.677
  58.760         93.33	    10.583
  58.780         98.33	    10.863
  58.800        119.17	    11.958
  58.820         99.17	    10.909
  58.840         91.67	    10.488
  58.860        110.00	    11.489
  58.880         96.67	    10.770
  58.900        108.33	    11.402
  58.920         90.83	    10.440
  58.940         75.00	     9.487
  58.960         94.17	    10.630
  58.980         84.17	    10.050
  59.000         84.17	    10.050
  59.020         82.50	     9.950
  59.040         99.17	    10.909
  59.060         94.17	    10.630
  59.080        109.17	    11.446
  59.100        129.17	    12.450
  59.120        160.83	    13.892
  59.140        245.00	    17.146
  59.160        262.50	    17.748
  59.180        224.17	    16.401
  59.200        170.00	    14.283
  59.220        138.33	    12.884
  59.240        111.67	    11.576
  59.260         95.00	    10.677
  59.280        126.67	    12.329
  59.300        144.17	    13.153
  59.320        163.33	    14.000
  59.340        145.83	    13.229
  59.360        119.17	    11.958
  59.380         83.33	    10.000
  59.400         55.00	     8.124
  59.420         47.50	     7.550
  59.440         55.00	     8.124
  59.460         55.83	     8.185
  59.480         55.83	     8.185
  59.500         50.83	     7.810
  59.520         41.67	     7.071
  59.540         55.83	     8.185
  59.560         50.83	     7.810
  59.580         51.67	     7.874
  59.600         55.83	     8.185
  59.620         54.17	     8.062
  59.640         60.83	     8.544
  59.660         75.00	     9.487
  59.680         82.50	     9.950
  59.700        102.50	    11.091
  59.720         86.67	    10.198
  59.740         50.00	     7.746
  59.760         55.83	     8.185
  59.780         55.00	     8.124
  59.800         55.83	     8.185
  59.820         69.17	     9.110
  59.840         80.00	     9.798
  59.860         77.50	     9.644
  59.880         54.17	     8.062
  59.900         57.50	     8.307
  59.920         60.00	     8.485
  59.940         62.50	     8.660
  59.960         63.33	     8.718
  59.980         53.33	     8.000
  60.000         49.17	     7.681
  60.020         54.17	     8.062
  60.040         43.33	     7.211
  60.060         64.17	     8.775
  60.080         51.67	     7.874
  60.100         54.17	     8.062
  60.120         44.17	     7.280
  60.140         58.33	     8.367
  60.160         61.67	     8.602
  60.180         38.33	     6.782
  60.200         51.67	     7.874
  60.220         48.33	     7.616
  60.240         56.67	     8.246
  60.260         54.17	     8.062
  60.280         65.00	     8.832
  60.300         55.83	     8.185
  60.320         64.17	     8.775
  60.340         60.00	     8.485
  60.360         80.00	     9.798
  60.380         72.50	     9.327
  60.400         69.17	     9.110
  60.420         66.67	     8.944
  60.440         42.50	     7.141
  60.460         35.83	     6.557
  60.480         60.83	     8.544
  60.500         68.33	     9.055
  60.520         70.00	     9.165
  60.540         58.33	     8.367
  60.560         61.67	     8.602
  60.580         55.83	     8.185
  60.600         44.17	     7.280
  60.620         35.00	     6.481
  60.640         49.17	     7.681
  60.660         51.67	     7.874
  60.680         45.83	     7.416
  60.700         41.67	     7.071
  60.720         41.67	     7.071
  60.740         46.67	     7.483
  60.760         36.67	     6.633
  60.780         50.83	     7.810
  60.800         48.33	     7.616
  60.820         42.50	     7.141
  60.840         35.83	     6.557
  60.860         45.00	     7.348
  60.880         34.17	     6.403
  60.900         40.83	     7.000
  60.920         43.33	     7.211
  60.940         39.17	     6.856
  60.960         32.50	     6.245
  60.980         47.50	     7.550
  61.000         41.67	     7.071
  61.020         47.50	     7.550
  61.040         51.67	     7.874
  61.060         52.50	     7.937
  61.080         57.50	     8.307
  61.100         31.67	     6.164
  61.120         65.00	     8.832
  61.140         46.67	     7.483
  61.160         60.00	     8.485
  61.180         52.50	     7.937
  61.200         50.00	     7.746
  61.220         48.33	     7.616
  61.240         46.67	     7.483
  61.260         50.00	     7.746
  61.280         50.00	     7.746
  61.300         52.50	     7.937
  61.320         51.67	     7.874
  61.340         45.00	     7.348
  61.360         56.67	     8.246
  61.380         44.17	     7.280
  61.400         46.67	     7.483
  61.420         48.33	     7.616
  61.440         41.67	     7.071
  61.460         57.50	     8.307
  61.480         49.17	     7.681
  61.500         45.00	     7.348
  61.520         57.50	     8.307
  61.540         50.83	     7.810
  61.560         59.17	     8.426
  61.580         65.00	     8.832
  61.600         68.33	     9.055
  61.620         65.83	     8.888
  61.640         63.33	     8.718
  61.660         70.00	     9.165
  61.680         60.83	     8.544
  61.700         59.17	     8.426
  61.720         72.50	     9.327
  61.740         80.00	     9.798
  61.760         60.00	     8.485
  61.780         65.83	     8.888
  61.800         73.33	     9.381
  61.820         60.83	     8.544
  61.840         67.50	     9.000
  61.860         72.50	     9.327
  61.880         67.50	     9.000
  61.900         64.17	     8.775
  61.920         77.50	     9.644
  61.940         77.50	     9.644
  61.960         77.50	     9.644
  61.980         81.67	     9.899
  62.000         71.67	     9.274
  62.020         86.67	    10.198
  62.040         68.33	     9.055
  62.060         74.17	     9.434
  62.080         62.50	     8.660
  62.100         78.33	     9.695
  62.120         85.83	    10.149
  62.140         90.00	    10.392
  62.160         89.17	    10.344
  62.180        104.17	    11.180
  62.200         81.67	     9.899
  62.220         79.17	     9.747
  62.240         90.00	    10.392
  62.260         75.00	     9.487
  62.280         80.83	     9.849
  62.300         67.50	     9.000
  62.320         62.50	     8.660
  62.340         58.33	     8.367
  62.360         65.00	     8.832
  62.380         61.67	     8.602
  62.400         55.00	     8.124
  62.420         61.67	     8.602
  62.440         52.50	     7.937
  62.460         64.17	     8.775
  62.480         60.83	     8.544
  62.500         42.50	     7.141
  62.520         55.83	     8.185
  62.540         52.50	     7.937
  62.560         64.17	     8.775
  62.580         58.33	     8.367
  62.600         58.33	     8.367
  62.620         45.00	     7.348
  62.640         63.33	     8.718
  62.660         50.83	     7.810
  62.680         84.17	    10.050
  62.700         54.17	     8.062
  62.720         70.83	     9.220
  62.740         82.50	     9.950
  62.760         72.50	     9.327
  62.780         78.33	     9.695
  62.800         75.83	     9.539
  62.820        104.17	    11.180
  62.840        118.33	    11.916
  62.860        189.17	    15.067
  62.880        187.50	    15.000
  62.900        282.50	    18.412
  62.920        359.17	    20.761
  62.940        371.67	    21.119
  62.960        323.33	    19.698
  62.980        251.67	    17.378
  63.000        190.00	    15.100
  63.020        160.83	    13.892
  63.040        175.83	    14.526
  63.060        196.67	    15.362
  63.080        220.83	    16.279
  63.100        219.17	    16.217
  63.120        225.83	    16.462
  63.140        162.50	    13.964
  63.160        125.83	    12.288
  63.180        111.67	    11.576
  63.200         89.17	    10.344
  63.220         98.33	    10.863
  63.240        102.50	    11.091
  63.260         88.33	    10.296
  63.280         77.50	     9.644
  63.300         70.00	     9.165
  63.320         80.83	     9.849
  63.340         61.67	     8.602
  63.360         77.50	     9.644
  63.380         65.83	     8.888
  63.400         66.67	     8.944
  63.420         75.00	     9.487
  63.440         70.83	     9.220
  63.460         91.67	    10.488
  63.480         68.33	     9.055
  63.500         78.33	     9.695
  63.520         63.33	     8.718
  63.540         69.17	     9.110
  63.560         80.00	     9.798
  63.580         67.50	     9.000
  63.600         77.50	     9.644
  63.620         80.83	     9.849
  63.640        100.00	    10.954
  63.660         94.17	    10.630
  63.680         73.33	     9.381
  63.700         72.50	     9.327
  63.720         75.83	     9.539
  63.740         91.67	    10.488
  63.760         88.33	    10.296
  63.780         72.50	     9.327
  63.800         94.17	    10.630
  63.820         93.33	    10.583
  63.840         78.33	     9.695
  63.860         88.33	    10.296
  63.880         94.17	    10.630
  63.900         68.33	     9.055
  63.920         82.50	     9.950
  63.940         72.50	     9.327
  63.960         68.33	     9.055
  63.980         82.50	     9.950
  64.000         86.67	    10.198
  64.020         71.67	     9.274
  64.040         67.50	     9.000
  64.060         67.50	     9.000
  64.080         67.50	     9.000
  64.100         69.17	     9.110
  64.120         65.83	     8.888
  64.140         75.83	     9.539
  64.160         71.67	     9.274
  64.180         55.83	     8.185
  64.200         63.33	     8.718
  64.220         60.83	     8.544
  64.240         60.00	     8.485
  64.260         67.50	     9.000
  64.280         79.17	     9.747
  64.300         61.67	     8.602
  64.320         63.33	     8.718
  64.340         64.17	     8.775
  64.360         84.17	    10.050
  64.380         81.67	     9.899
  64.400         90.00	    10.392
  64.420         95.00	    10.677
  64.440         98.33	    10.863
  64.460        109.17	    11.446
  64.480         79.17	     9.747
  64.500         93.33	    10.583
  64.520         89.17	    10.344
  64.540         88.33	    10.296
  64.560        105.83	    11.269
  64.580         98.33	    10.863
  64.600         95.00	    10.677
  64.620         86.67	    10.198
  64.640        108.33	    11.402
  64.660         87.50	    10.247
  64.680         98.33	    10.863
  64.700         95.00	    10.677
  64.720        101.67	    11.045
  64.740         80.00	     9.798
  64.760         85.00	    10.100
  64.780         81.67	     9.899
  64.800         79.17	     9.747
  64.820         70.83	     9.220
  64.840         65.00	     8.832
  64.860         84.17	    10.050
  64.880         83.33	    10.000
  64.900        105.83	    11.269
  64.920         98.33	    10.863
  64.940         75.83	     9.539
  64.960         75.83	     9.539
  64.980         63.33	     8.718
  65.000         65.83	     8.888
