
Filename:
	C:\Program Files\Thermo Electron\WinXRD\Datafiles\F_HERMAN\FIEN\G13_RT.raw

File Created:
	January 30, 2020 - 01:23 PM

Specimen Id:
	G13 RT

Specimen Name:
	

Specimen Description:
	

Comment:
Scan Type: 2Theta Scan
Start Angle: 3 deg.
Stop Angle: 65 deg.
Num Points: 3101
Step Size: 0.02 deg.
Scan Rate: 1.000000
Scan Mode: Continuous
Wavelength: 1.540562
\Kalpha1: 1.540562	\Kalpha2: 1.544390	\Kbeta: 1.392218

Optics:
		Detector:
			 Type: Fixed Slits
		Tube: 
			 Type: Fixed Slits


Datas:
 Pos [deg]       Rate [CPS]      ESD [-]

Range 1 ---> Iteration 1
   3.000        495.00	    24.372
   3.020        430.83	    22.738
   3.040        419.17	    22.428
   3.060        484.17	    24.104
   3.080        493.33	    24.331
   3.100        430.83	    22.738
   3.120        439.17	    22.956
   3.140        450.83	    23.259
   3.160        440.83	    23.000
   3.180        450.83	    23.259
   3.200        414.17	    22.293
   3.220        425.00	    22.583
   3.240        415.83	    22.338
   3.260        426.67	    22.627
   3.280        404.17	    22.023
   3.300        415.83	    22.338
   3.320        415.00	    22.316
   3.340        421.67	    22.494
   3.360        401.67	    21.954
   3.380        424.17	    22.561
   3.400        401.67	    21.954
   3.420        443.33	    23.065
   3.440        382.50	    21.424
   3.460        375.00	    21.213
   3.480        400.83	    21.932
   3.500        406.67	    22.091
   3.520        382.50	    21.424
   3.540        381.67	    21.401
   3.560        395.83	    21.794
   3.580        410.83	    22.204
   3.600        350.83	    20.518
   3.620        350.83	    20.518
   3.640        367.50	    21.000
   3.660        378.33	    21.307
   3.680        390.83	    21.656
   3.700        396.67	    21.817
   3.720        366.67	    20.976
   3.740        371.67	    21.119
   3.760        360.83	    20.809
   3.780        372.50	    21.142
   3.800        353.33	    20.591
   3.820        355.00	    20.640
   3.840        352.50	    20.567
   3.860        370.83	    21.095
   3.880        335.83	    20.075
   3.900        357.50	    20.712
   3.920        352.50	    20.567
   3.940        351.67	    20.543
   3.960        335.83	    20.075
   3.980        323.33	    19.698
   4.000        336.67	    20.100
   4.020        340.00	    20.199
   4.040        315.83	    19.468
   4.060        346.67	    20.396
   4.080        338.33	    20.149
   4.100        324.17	    19.723
   4.120        306.67	    19.183
   4.140        324.17	    19.723
   4.160        302.50	    19.053
   4.180        305.83	    19.157
   4.200        290.83	    18.682
   4.220        298.33	    18.921
   4.240        322.50	    19.672
   4.260        310.83	    19.313
   4.280        280.00	    18.330
   4.300        281.67	    18.385
   4.320        300.00	    18.974
   4.340        292.50	    18.735
   4.360        318.33	    19.545
   4.380        313.33	    19.391
   4.400        309.17	    19.261
   4.420        294.17	    18.788
   4.440        321.67	    19.647
   4.460        268.33	    17.944
   4.480        282.50	    18.412
   4.500        289.17	    18.628
   4.520        295.83	    18.841
   4.540        266.67	    17.889
   4.560        293.33	    18.762
   4.580        277.50	    18.248
   4.600        310.00	    19.287
   4.620        281.67	    18.385
   4.640        262.50	    17.748
   4.660        303.33	    19.079
   4.680        290.83	    18.682
   4.700        265.00	    17.833
   4.720        256.67	    17.550
   4.740        262.50	    17.748
   4.760        260.83	    17.692
   4.780        250.83	    17.349
   4.800        267.50	    17.916
   4.820        259.17	    17.635
   4.840        260.83	    17.692
   4.860        258.33	    17.607
   4.880        258.33	    17.607
   4.900        247.50	    17.234
   4.920        275.83	    18.193
   4.940        260.00	    17.664
   4.960        245.00	    17.146
   4.980        229.17	    16.583
   5.000        250.00	    17.321
   5.020        260.00	    17.664
   5.040        255.00	    17.493
   5.060        247.50	    17.234
   5.080        264.17	    17.804
   5.100        276.67	    18.221
   5.120        287.50	    18.574
   5.140        249.17	    17.292
   5.160        266.67	    17.889
   5.180        238.33	    16.912
   5.200        255.83	    17.521
   5.220        263.33	    17.776
   5.240        223.33	    16.371
   5.260        259.17	    17.635
   5.280        215.83	    16.093
   5.300        250.00	    17.321
   5.320        235.00	    16.793
   5.340        242.50	    17.059
   5.360        218.33	    16.186
   5.380        198.33	    15.427
   5.400        230.83	    16.643
   5.420        215.00	    16.062
   5.440        223.33	    16.371
   5.460        230.00	    16.613
   5.480        244.17	    17.117
   5.500        232.50	    16.703
   5.520        235.83	    16.823
   5.540        224.17	    16.401
   5.560        243.33	    17.088
   5.580        245.00	    17.146
   5.600        237.50	    16.882
   5.620        232.50	    16.703
   5.640        200.83	    15.524
   5.660        221.67	    16.310
   5.680        234.17	    16.763
   5.700        228.33	    16.553
   5.720        203.33	    15.620
   5.740        220.00	    16.248
   5.760        255.83	    17.521
   5.780        230.00	    16.613
   5.800        200.00	    15.492
   5.820        237.50	    16.882
   5.840        222.50	    16.340
   5.860        216.67	    16.125
   5.880        238.33	    16.912
   5.900        263.33	    17.776
   5.920        221.67	    16.310
   5.940        240.83	    17.000
   5.960        230.00	    16.613
   5.980        225.00	    16.432
   6.000        251.67	    17.378
   6.020        240.00	    16.971
   6.040        239.17	    16.941
   6.060        247.50	    17.234
   6.080        258.33	    17.607
   6.100        255.83	    17.521
   6.120        283.33	    18.439
   6.140        291.67	    18.708
   6.160        247.50	    17.234
   6.180        220.83	    16.279
   6.200        228.33	    16.553
   6.220        235.83	    16.823
   6.240        220.83	    16.279
   6.260        219.17	    16.217
   6.280        195.83	    15.330
   6.300        220.00	    16.248
   6.320        228.33	    16.553
   6.340        212.50	    15.969
   6.360        196.67	    15.362
   6.380        195.83	    15.330
   6.400        220.00	    16.248
   6.420        220.83	    16.279
   6.440        225.83	    16.462
   6.460        213.33	    16.000
   6.480        174.17	    14.457
   6.500        192.50	    15.199
   6.520        199.17	    15.460
   6.540        195.83	    15.330
   6.560        218.33	    16.186
   6.580        197.50	    15.395
   6.600        210.00	    15.875
   6.620        193.33	    15.232
   6.640        179.17	    14.663
   6.660        195.00	    15.297
   6.680        192.50	    15.199
   6.700        181.67	    14.765
   6.720        180.00	    14.697
   6.740        190.00	    15.100
   6.760        216.67	    16.125
   6.780        160.00	    13.856
   6.800        181.67	    14.765
   6.820        189.17	    15.067
   6.840        193.33	    15.232
   6.860        219.17	    16.217
   6.880        176.67	    14.560
   6.900        180.83	    14.731
   6.920        187.50	    15.000
   6.940        193.33	    15.232
   6.960        217.50	    16.155
   6.980        207.50	    15.780
   7.000        190.00	    15.100
   7.020        173.33	    14.422
   7.040        191.67	    15.166
   7.060        195.83	    15.330
   7.080        166.67	    14.142
   7.100        180.83	    14.731
   7.120        171.67	    14.353
   7.140        173.33	    14.422
   7.160        173.33	    14.422
   7.180        178.33	    14.629
   7.200        158.33	    13.784
   7.220        192.50	    15.199
   7.240        191.67	    15.166
   7.260        168.33	    14.213
   7.280        175.83	    14.526
   7.300        174.17	    14.457
   7.320        183.33	    14.832
   7.340        181.67	    14.765
   7.360        167.50	    14.177
   7.380        160.83	    13.892
   7.400        160.83	    13.892
   7.420        180.00	    14.697
   7.440        173.33	    14.422
   7.460        181.67	    14.765
   7.480        170.00	    14.283
   7.500        171.67	    14.353
   7.520        159.17	    13.820
   7.540        170.83	    14.318
   7.560        163.33	    14.000
   7.580        175.00	    14.491
   7.600        148.33	    13.342
   7.620        166.67	    14.142
   7.640        180.00	    14.697
   7.660        169.17	    14.248
   7.680        140.00	    12.961
   7.700        160.83	    13.892
   7.720        155.00	    13.638
   7.740        139.17	    12.923
   7.760        171.67	    14.353
   7.780        140.83	    13.000
   7.800        135.83	    12.767
   7.820        152.50	    13.528
   7.840        162.50	    13.964
   7.860        152.50	    13.528
   7.880        160.83	    13.892
   7.900        171.67	    14.353
   7.920        147.50	    13.304
   7.940        176.67	    14.560
   7.960        151.67	    13.491
   7.980        152.50	    13.528
   8.000        141.67	    13.038
   8.020        160.00	    13.856
   8.040        160.00	    13.856
   8.060        153.33	    13.565
   8.080        159.17	    13.820
   8.100        173.33	    14.422
   8.120        183.33	    14.832
   8.140        165.00	    14.071
   8.160        151.67	    13.491
   8.180        156.67	    13.711
   8.200        163.33	    14.000
   8.220        147.50	    13.304
   8.240        151.67	    13.491
   8.260        160.83	    13.892
   8.280        176.67	    14.560
   8.300        143.33	    13.115
   8.320        169.17	    14.248
   8.340        165.83	    14.107
   8.360        166.67	    14.142
   8.380        155.83	    13.675
   8.400        155.83	    13.675
   8.420        159.17	    13.820
   8.440        184.17	    14.866
   8.460        160.83	    13.892
   8.480        167.50	    14.177
   8.500        199.17	    15.460
   8.520        190.83	    15.133
   8.540        215.00	    16.062
   8.560        186.67	    14.967
   8.580        223.33	    16.371
   8.600        204.17	    15.652
   8.620        266.67	    17.889
   8.640        260.00	    17.664
   8.660        288.33	    18.601
   8.680        315.83	    19.468
   8.700        340.83	    20.224
   8.720        340.00	    20.199
   8.740        488.33	    24.207
   8.760        705.83	    29.103
   8.780        884.17	    32.573
   8.800        725.83	    29.513
   8.820        446.67	    23.152
   8.840        238.33	    16.912
   8.860        190.83	    15.133
   8.880        185.00	    14.900
   8.900        174.17	    14.457
   8.920        142.50	    13.077
   8.940        165.83	    14.107
   8.960        161.67	    13.928
   8.980        162.50	    13.964
   9.000        161.67	    13.928
   9.020        141.67	    13.038
   9.040        163.33	    14.000
   9.060        158.33	    13.784
   9.080        152.50	    13.528
   9.100        140.00	    12.961
   9.120        134.17	    12.689
   9.140        146.67	    13.266
   9.160        145.00	    13.191
   9.180        165.83	    14.107
   9.200        146.67	    13.266
   9.220        112.50	    11.619
   9.240        135.00	    12.728
   9.260        150.83	    13.454
   9.280        172.50	    14.387
   9.300        151.67	    13.491
   9.320        155.83	    13.675
   9.340        162.50	    13.964
   9.360        160.00	    13.856
   9.380        154.17	    13.601
   9.400        129.17	    12.450
   9.420        120.83	    12.042
   9.440        134.17	    12.689
   9.460        128.33	    12.410
   9.480        127.50	    12.369
   9.500        110.83	    11.533
   9.520        113.33	    11.662
   9.540        100.00	    10.954
   9.560        140.00	    12.961
   9.580        117.50	    11.874
   9.600        135.00	    12.728
   9.620        127.50	    12.369
   9.640        130.00	    12.490
   9.660        117.50	    11.874
   9.680        140.83	    13.000
   9.700        121.67	    12.083
   9.720        125.00	    12.247
   9.740        128.33	    12.410
   9.760        110.83	    11.533
   9.780        119.17	    11.958
   9.800        112.50	    11.619
   9.820        120.83	    12.042
   9.840        126.67	    12.329
   9.860        110.00	    11.489
   9.880        118.33	    11.916
   9.900        103.33	    11.136
   9.920        128.33	    12.410
   9.940        103.33	    11.136
   9.960        130.00	    12.490
   9.980        129.17	    12.450
  10.000        115.00	    11.747
  10.020        100.00	    10.954
  10.040        115.83	    11.790
  10.060        135.00	    12.728
  10.080        135.83	    12.767
  10.100        104.17	    11.180
  10.120        124.17	    12.207
  10.140        119.17	    11.958
  10.160        105.83	    11.269
  10.180        120.83	    12.042
  10.200        118.33	    11.916
  10.220        101.67	    11.045
  10.240        120.00	    12.000
  10.260        110.00	    11.489
  10.280        108.33	    11.402
  10.300        123.33	    12.166
  10.320        115.83	    11.790
  10.340        124.17	    12.207
  10.360        175.00	    14.491
  10.380        199.17	    15.460
  10.400        215.00	    16.062
  10.420        174.17	    14.457
  10.440        125.83	    12.288
  10.460        117.50	    11.874
  10.480        118.33	    11.916
  10.500        106.67	    11.314
  10.520        111.67	    11.576
  10.540        110.00	    11.489
  10.560        100.00	    10.954
  10.580        120.00	    12.000
  10.600         94.17	    10.630
  10.620         99.17	    10.909
  10.640         88.33	    10.296
  10.660        117.50	    11.874
  10.680         83.33	    10.000
  10.700        115.00	    11.747
  10.720        113.33	    11.662
  10.740        110.83	    11.533
  10.760        100.00	    10.954
  10.780        105.00	    11.225
  10.800        100.83	    11.000
  10.820        110.00	    11.489
  10.840        100.00	    10.954
  10.860        123.33	    12.166
  10.880        100.83	    11.000
  10.900        104.17	    11.180
  10.920        103.33	    11.136
  10.940         88.33	    10.296
  10.960        118.33	    11.916
  10.980         93.33	    10.583
  11.000        111.67	    11.576
  11.020        110.00	    11.489
  11.040        135.00	    12.728
  11.060        103.33	    11.136
  11.080         88.33	    10.296
  11.100        115.00	    11.747
  11.120         91.67	    10.488
  11.140        113.33	    11.662
  11.160         95.83	    10.724
  11.180        100.83	    11.000
  11.200         97.50	    10.817
  11.220         91.67	    10.488
  11.240        106.67	    11.314
  11.260        102.50	    11.091
  11.280        130.00	    12.490
  11.300        106.67	    11.314
  11.320        111.67	    11.576
  11.340        110.00	    11.489
  11.360        103.33	    11.136
  11.380        101.67	    11.045
  11.400        115.83	    11.790
  11.420        103.33	    11.136
  11.440        109.17	    11.446
  11.460        100.83	    11.000
  11.480        108.33	    11.402
  11.500        105.00	    11.225
  11.520        100.00	    10.954
  11.540        105.00	    11.225
  11.560         95.83	    10.724
  11.580        112.50	    11.619
  11.600        100.00	    10.954
  11.620         84.17	    10.050
  11.640        101.67	    11.045
  11.660        106.67	    11.314
  11.680        101.67	    11.045
  11.700        106.67	    11.314
  11.720        106.67	    11.314
  11.740        100.83	    11.000
  11.760        105.00	    11.225
  11.780         95.83	    10.724
  11.800        114.17	    11.705
  11.820        103.33	    11.136
  11.840        105.83	    11.269
  11.860        132.50	    12.610
  11.880        115.83	    11.790
  11.900        122.50	    12.124
  11.920        121.67	    12.083
  11.940        138.33	    12.884
  11.960        166.67	    14.142
  11.980        197.50	    15.395
  12.000        330.83	    19.925
  12.020        449.17	    23.216
  12.040        435.00	    22.847
  12.060        425.00	    22.583
  12.080        386.67	    21.541
  12.100        305.00	    19.131
  12.120        234.17	    16.763
  12.140        177.50	    14.595
  12.160        165.00	    14.071
  12.180        174.17	    14.457
  12.200        180.83	    14.731
  12.220        178.33	    14.629
  12.240        209.17	    15.843
  12.260        210.00	    15.875
  12.280        225.83	    16.462
  12.300        179.17	    14.663
  12.320        185.00	    14.900
  12.340        233.33	    16.733
  12.360        290.00	    18.655
  12.380        320.83	    19.621
  12.400        300.83	    19.000
  12.420        250.83	    17.349
  12.440        190.83	    15.133
  12.460        150.00	    13.416
  12.480        110.83	    11.533
  12.500         95.83	    10.724
  12.520        105.83	    11.269
  12.540        105.83	    11.269
  12.560        100.00	    10.954
  12.580        101.67	    11.045
  12.600        100.00	    10.954
  12.620         98.33	    10.863
  12.640         96.67	    10.770
  12.660        107.50	    11.358
  12.680        107.50	    11.358
  12.700         90.83	    10.440
  12.720         95.00	    10.677
  12.740         96.67	    10.770
  12.760         90.00	    10.392
  12.780         85.00	    10.100
  12.800         95.83	    10.724
  12.820         86.67	    10.198
  12.840         69.17	     9.110
  12.860         85.83	    10.149
  12.880         87.50	    10.247
  12.900         75.83	     9.539
  12.920         84.17	    10.050
  12.940         85.83	    10.149
  12.960        102.50	    11.091
  12.980         86.67	    10.198
  13.000         86.67	    10.198
  13.020         93.33	    10.583
  13.040         94.17	    10.630
  13.060         78.33	     9.695
  13.080         95.00	    10.677
  13.100         92.50	    10.536
  13.120         83.33	    10.000
  13.140         80.00	     9.798
  13.160         77.50	     9.644
  13.180         89.17	    10.344
  13.200         99.17	    10.909
  13.220         81.67	     9.899
  13.240         87.50	    10.247
  13.260        107.50	    11.358
  13.280         85.83	    10.149
  13.300         93.33	    10.583
  13.320         81.67	     9.899
  13.340         90.00	    10.392
  13.360         82.50	     9.950
  13.380         92.50	    10.536
  13.400         87.50	    10.247
  13.420         80.00	     9.798
  13.440         82.50	     9.950
  13.460         75.83	     9.539
  13.480         78.33	     9.695
  13.500         85.00	    10.100
  13.520        100.83	    11.000
  13.540         98.33	    10.863
  13.560        102.50	    11.091
  13.580        103.33	    11.136
  13.600         89.17	    10.344
  13.620         84.17	    10.050
  13.640         78.33	     9.695
  13.660         92.50	    10.536
  13.680         96.67	    10.770
  13.700         81.67	     9.899
  13.720         97.50	    10.817
  13.740         99.17	    10.909
  13.760         98.33	    10.863
  13.780        110.83	    11.533
  13.800         90.00	    10.392
  13.820         85.83	    10.149
  13.840         85.00	    10.100
  13.860         76.67	     9.592
  13.880         83.33	    10.000
  13.900         90.83	    10.440
  13.920         88.33	    10.296
  13.940         84.17	    10.050
  13.960         74.17	     9.434
  13.980         65.00	     8.832
  14.000         85.83	    10.149
  14.020         83.33	    10.000
  14.040         74.17	     9.434
  14.060         73.33	     9.381
  14.080         95.83	    10.724
  14.100         83.33	    10.000
  14.120         75.83	     9.539
  14.140         76.67	     9.592
  14.160         81.67	     9.899
  14.180         65.83	     8.888
  14.200         72.50	     9.327
  14.220         97.50	    10.817
  14.240         79.17	     9.747
  14.260         70.83	     9.220
  14.280         87.50	    10.247
  14.300         67.50	     9.000
  14.320         64.17	     8.775
  14.340         78.33	     9.695
  14.360         85.00	    10.100
  14.380         75.83	     9.539
  14.400         68.33	     9.055
  14.420         62.50	     8.660
  14.440         67.50	     9.000
  14.460         79.17	     9.747
  14.480         77.50	     9.644
  14.500         90.83	    10.440
  14.520         85.83	    10.149
  14.540         76.67	     9.592
  14.560         90.00	    10.392
  14.580         80.83	     9.849
  14.600         64.17	     8.775
  14.620         83.33	    10.000
  14.640         73.33	     9.381
  14.660         75.00	     9.487
  14.680         60.83	     8.544
  14.700         67.50	     9.000
  14.720         75.00	     9.487
  14.740         76.67	     9.592
  14.760         80.83	     9.849
  14.780         56.67	     8.246
  14.800         74.17	     9.434
  14.820         79.17	     9.747
  14.840         84.17	    10.050
  14.860         80.00	     9.798
  14.880         74.17	     9.434
  14.900         80.83	     9.849
  14.920         93.33	    10.583
  14.940         76.67	     9.592
  14.960         75.00	     9.487
  14.980         66.67	     8.944
  15.000         60.83	     8.544
  15.020         88.33	    10.296
  15.040         77.50	     9.644
  15.060         65.83	     8.888
  15.080         64.17	     8.775
  15.100         80.00	     9.798
  15.120         64.17	     8.775
  15.140         58.33	     8.367
  15.160         80.00	     9.798
  15.180         81.67	     9.899
  15.200         74.17	     9.434
  15.220         67.50	     9.000
  15.240         64.17	     8.775
  15.260         77.50	     9.644
  15.280         63.33	     8.718
  15.300         83.33	    10.000
  15.320         75.83	     9.539
  15.340         71.67	     9.274
  15.360         86.67	    10.198
  15.380         91.67	    10.488
  15.400         75.00	     9.487
  15.420         68.33	     9.055
  15.440         80.83	     9.849
  15.460         57.50	     8.307
  15.480         68.33	     9.055
  15.500         69.17	     9.110
  15.520         70.83	     9.220
  15.540         81.67	     9.899
  15.560         82.50	     9.950
  15.580         64.17	     8.775
  15.600         84.17	    10.050
  15.620         76.67	     9.592
  15.640         65.83	     8.888
  15.660         55.00	     8.124
  15.680         76.67	     9.592
  15.700         68.33	     9.055
  15.720         73.33	     9.381
  15.740         75.00	     9.487
  15.760         60.83	     8.544
  15.780         67.50	     9.000
  15.800         66.67	     8.944
  15.820         66.67	     8.944
  15.840         67.50	     9.000
  15.860         62.50	     8.660
  15.880         57.50	     8.307
  15.900         74.17	     9.434
  15.920         71.67	     9.274
  15.940         50.83	     7.810
  15.960         73.33	     9.381
  15.980         64.17	     8.775
  16.000         86.67	    10.198
  16.020         78.33	     9.695
  16.040         69.17	     9.110
  16.060         75.83	     9.539
  16.080         72.50	     9.327
  16.100         60.00	     8.485
  16.120         70.83	     9.220
  16.140         67.50	     9.000
  16.160         59.17	     8.426
  16.180         80.00	     9.798
  16.200         62.50	     8.660
  16.220         67.50	     9.000
  16.240         69.17	     9.110
  16.260         74.17	     9.434
  16.280         64.17	     8.775
  16.300         80.00	     9.798
  16.320         64.17	     8.775
  16.340         60.00	     8.485
  16.360         68.33	     9.055
  16.380         60.00	     8.485
  16.400         78.33	     9.695
  16.420         63.33	     8.718
  16.440         65.00	     8.832
  16.460         57.50	     8.307
  16.480         63.33	     8.718
  16.500         61.67	     8.602
  16.520         68.33	     9.055
  16.540         54.17	     8.062
  16.560         67.50	     9.000
  16.580         61.67	     8.602
  16.600         77.50	     9.644
  16.620         65.00	     8.832
  16.640         62.50	     8.660
  16.660         76.67	     9.592
  16.680         75.00	     9.487
  16.700         69.17	     9.110
  16.720         60.83	     8.544
  16.740         64.17	     8.775
  16.760         67.50	     9.000
  16.780         63.33	     8.718
  16.800         70.83	     9.220
  16.820         49.17	     7.681
  16.840         76.67	     9.592
  16.860         51.67	     7.874
  16.880         71.67	     9.274
  16.900         61.67	     8.602
  16.920         71.67	     9.274
  16.940         71.67	     9.274
  16.960         72.50	     9.327
  16.980         74.17	     9.434
  17.000         70.83	     9.220
  17.020         73.33	     9.381
  17.040         57.50	     8.307
  17.060         70.83	     9.220
  17.080         80.83	     9.849
  17.100         67.50	     9.000
  17.120         78.33	     9.695
  17.140         59.17	     8.426
  17.160         76.67	     9.592
  17.180         59.17	     8.426
  17.200         65.83	     8.888
  17.220         77.50	     9.644
  17.240         65.00	     8.832
  17.260         63.33	     8.718
  17.280         85.83	    10.149
  17.300         66.67	     8.944
  17.320         77.50	     9.644
  17.340         79.17	     9.747
  17.360         83.33	    10.000
  17.380         76.67	     9.592
  17.400         66.67	     8.944
  17.420         61.67	     8.602
  17.440         55.83	     8.185
  17.460         74.17	     9.434
  17.480         72.50	     9.327
  17.500        100.00	    10.954
  17.520         81.67	     9.899
  17.540         79.17	     9.747
  17.560         92.50	    10.536
  17.580         81.67	     9.899
  17.600        119.17	    11.958
  17.620        126.67	    12.329
  17.640        141.67	    13.038
  17.660        206.67	    15.748
  17.680        420.83	    22.472
  17.700        916.67	    33.166
  17.720        951.67	    33.793
  17.740        788.33	    30.757
  17.760        660.00	    28.142
  17.780        415.00	    22.316
  17.800        193.33	    15.232
  17.820        103.33	    11.136
  17.840         83.33	    10.000
  17.860         70.83	     9.220
  17.880         88.33	    10.296
  17.900         82.50	     9.950
  17.920         81.67	     9.899
  17.940         90.00	    10.392
  17.960         96.67	    10.770
  17.980         77.50	     9.644
  18.000         53.33	     8.000
  18.020         70.00	     9.165
  18.040         79.17	     9.747
  18.060         86.67	    10.198
  18.080         79.17	     9.747
  18.100         77.50	     9.644
  18.120         85.83	    10.149
  18.140         75.83	     9.539
  18.160         54.17	     8.062
  18.180         74.17	     9.434
  18.200         60.00	     8.485
  18.220         63.33	     8.718
  18.240         64.17	     8.775
  18.260         78.33	     9.695
  18.280         77.50	     9.644
  18.300         65.83	     8.888
  18.320         71.67	     9.274
  18.340         71.67	     9.274
  18.360         78.33	     9.695
  18.380         70.83	     9.220
  18.400         85.00	    10.100
  18.420         81.67	     9.899
  18.440         81.67	     9.899
  18.460        113.33	    11.662
  18.480         87.50	    10.247
  18.500         93.33	    10.583
  18.520         87.50	    10.247
  18.540         77.50	     9.644
  18.560         83.33	    10.000
  18.580         79.17	     9.747
  18.600         81.67	     9.899
  18.620        119.17	    11.958
  18.640        115.00	    11.747
  18.660        145.00	    13.191
  18.680        174.17	    14.457
  18.700        135.00	    12.728
  18.720        127.50	    12.369
  18.740        100.83	    11.000
  18.760         79.17	     9.747
  18.780         89.17	    10.344
  18.800         70.83	     9.220
  18.820         76.67	     9.592
  18.840         76.67	     9.592
  18.860         80.83	     9.849
  18.880         73.33	     9.381
  18.900         76.67	     9.592
  18.920         66.67	     8.944
  18.940         63.33	     8.718
  18.960         70.83	     9.220
  18.980         71.67	     9.274
  19.000         53.33	     8.000
  19.020         82.50	     9.950
  19.040         74.17	     9.434
  19.060         74.17	     9.434
  19.080         89.17	    10.344
  19.100         69.17	     9.110
  19.120         75.83	     9.539
  19.140         83.33	    10.000
  19.160         78.33	     9.695
  19.180         80.83	     9.849
  19.200         82.50	     9.950
  19.220         81.67	     9.899
  19.240         74.17	     9.434
  19.260         75.00	     9.487
  19.280         78.33	     9.695
  19.300         78.33	     9.695
  19.320         78.33	     9.695
  19.340         66.67	     8.944
  19.360         66.67	     8.944
  19.380         65.83	     8.888
  19.400         74.17	     9.434
  19.420         59.17	     8.426
  19.440         78.33	     9.695
  19.460         61.67	     8.602
  19.480         80.83	     9.849
  19.500         80.83	     9.849
  19.520         77.50	     9.644
  19.540        100.00	    10.954
  19.560         92.50	    10.536
  19.580         79.17	     9.747
  19.600         96.67	    10.770
  19.620         83.33	    10.000
  19.640         95.83	    10.724
  19.660        102.50	    11.091
  19.680        103.33	    11.136
  19.700        113.33	    11.662
  19.720        113.33	    11.662
  19.740        111.67	    11.576
  19.760        120.83	    12.042
  19.780        103.33	    11.136
  19.800         99.17	    10.909
  19.820        101.67	    11.045
  19.840         69.17	     9.110
  19.860         77.50	     9.644
  19.880         79.17	     9.747
  19.900         72.50	     9.327
  19.920         70.83	     9.220
  19.940         89.17	    10.344
  19.960         73.33	     9.381
  19.980         67.50	     9.000
  20.000         86.67	    10.198
  20.020         77.50	     9.644
  20.040         81.67	     9.899
  20.060         73.33	     9.381
  20.080         72.50	     9.327
  20.100         60.83	     8.544
  20.120         63.33	     8.718
  20.140         62.50	     8.660
  20.160         59.17	     8.426
  20.180         61.67	     8.602
  20.200         70.83	     9.220
  20.220         60.83	     8.544
  20.240         69.17	     9.110
  20.260         57.50	     8.307
  20.280         71.67	     9.274
  20.300         84.17	    10.050
  20.320         68.33	     9.055
  20.340         56.67	     8.246
  20.360         63.33	     8.718
  20.380         71.67	     9.274
  20.400         74.17	     9.434
  20.420         73.33	     9.381
  20.440         75.83	     9.539
  20.460         85.00	    10.100
  20.480         70.83	     9.220
  20.500         86.67	    10.198
  20.520         83.33	    10.000
  20.540         81.67	     9.899
  20.560         73.33	     9.381
  20.580         73.33	     9.381
  20.600         93.33	    10.583
  20.620         78.33	     9.695
  20.640         76.67	     9.592
  20.660         85.83	    10.149
  20.680        131.67	    12.570
  20.700        165.83	    14.107
  20.720        253.33	    17.436
  20.740        315.00	    19.442
  20.760        250.00	    17.321
  20.780        195.83	    15.330
  20.800        190.00	    15.100
  20.820        120.00	    12.000
  20.840        103.33	    11.136
  20.860        112.50	    11.619
  20.880        124.17	    12.207
  20.900        170.00	    14.283
  20.920        132.50	    12.610
  20.940        144.17	    13.153
  20.960        114.17	    11.705
  20.980        101.67	    11.045
  21.000         71.67	     9.274
  21.020         73.33	     9.381
  21.040         55.83	     8.185
  21.060         64.17	     8.775
  21.080         68.33	     9.055
  21.100         74.17	     9.434
  21.120         60.00	     8.485
  21.140         54.17	     8.062
  21.160         49.17	     7.681
  21.180         64.17	     8.775
  21.200         67.50	     9.000
  21.220         63.33	     8.718
  21.240         53.33	     8.000
  21.260         70.00	     9.165
  21.280         62.50	     8.660
  21.300         78.33	     9.695
  21.320         82.50	     9.950
  21.340         64.17	     8.775
  21.360         75.83	     9.539
  21.380         47.50	     7.550
  21.400         60.00	     8.485
  21.420         57.50	     8.307
  21.440         75.83	     9.539
  21.460         74.17	     9.434
  21.480         84.17	    10.050
  21.500         75.83	     9.539
  21.520         92.50	    10.536
  21.540         64.17	     8.775
  21.560         69.17	     9.110
  21.580         63.33	     8.718
  21.600         69.17	     9.110
  21.620         75.00	     9.487
  21.640         59.17	     8.426
  21.660         67.50	     9.000
  21.680         70.83	     9.220
  21.700         61.67	     8.602
  21.720         69.17	     9.110
  21.740         75.00	     9.487
  21.760         50.00	     7.746
  21.780         60.83	     8.544
  21.800         71.67	     9.274
  21.820         82.50	     9.950
  21.840        110.00	    11.489
  21.860        117.50	    11.874
  21.880        124.17	    12.207
  21.900        152.50	    13.528
  21.920        144.17	    13.153
  21.940        129.17	    12.450
  21.960        118.33	    11.916
  21.980        120.83	    12.042
  22.000         95.83	    10.724
  22.020        108.33	    11.402
  22.040         69.17	     9.110
  22.060         62.50	     8.660
  22.080         67.50	     9.000
  22.100         64.17	     8.775
  22.120         65.00	     8.832
  22.140         61.67	     8.602
  22.160         72.50	     9.327
  22.180         74.17	     9.434
  22.200         55.83	     8.185
  22.220         73.33	     9.381
  22.240         80.00	     9.798
  22.260         64.17	     8.775
  22.280         59.17	     8.426
  22.300         61.67	     8.602
  22.320         74.17	     9.434
  22.340         61.67	     8.602
  22.360         70.00	     9.165
  22.380         77.50	     9.644
  22.400         63.33	     8.718
  22.420         78.33	     9.695
  22.440         69.17	     9.110
  22.460         64.17	     8.775
  22.480         59.17	     8.426
  22.500         67.50	     9.000
  22.520         69.17	     9.110
  22.540         58.33	     8.367
  22.560         51.67	     7.874
  22.580         45.83	     7.416
  22.600         66.67	     8.944
  22.620         71.67	     9.274
  22.640         70.83	     9.220
  22.660         70.83	     9.220
  22.680         70.83	     9.220
  22.700         83.33	    10.000
  22.720         79.17	     9.747
  22.740        104.17	    11.180
  22.760         95.00	    10.677
  22.780        106.67	    11.314
  22.800        100.00	    10.954
  22.820         93.33	    10.583
  22.840         80.00	     9.798
  22.860         93.33	    10.583
  22.880         92.50	    10.536
  22.900         97.50	    10.817
  22.920         98.33	    10.863
  22.940         80.83	     9.849
  22.960         84.17	    10.050
  22.980         74.17	     9.434
  23.000         73.33	     9.381
  23.020         79.17	     9.747
  23.040         65.83	     8.888
  23.060         61.67	     8.602
  23.080         48.33	     7.616
  23.100         61.67	     8.602
  23.120         67.50	     9.000
  23.140         85.00	    10.100
  23.160         63.33	     8.718
  23.180         57.50	     8.307
  23.200         65.00	     8.832
  23.220         65.83	     8.888
  23.240         49.17	     7.681
  23.260         80.00	     9.798
  23.280         75.83	     9.539
  23.300         73.33	     9.381
  23.320         70.00	     9.165
  23.340         66.67	     8.944
  23.360         72.50	     9.327
  23.380         95.83	    10.724
  23.400        125.00	    12.247
  23.420        193.33	    15.232
  23.440        190.00	    15.100
  23.460        157.50	    13.748
  23.480        142.50	    13.077
  23.500        140.00	    12.961
  23.520        129.17	    12.450
  23.540         90.00	    10.392
  23.560        106.67	    11.314
  23.580         85.00	    10.100
  23.600         90.83	    10.440
  23.620         89.17	    10.344
  23.640         93.33	    10.583
  23.660         89.17	    10.344
  23.680         79.17	     9.747
  23.700         99.17	    10.909
  23.720         78.33	     9.695
  23.740         98.33	    10.863
  23.760         85.00	    10.100
  23.780         76.67	     9.592
  23.800         65.00	     8.832
  23.820         79.17	     9.747
  23.840         73.33	     9.381
  23.860         80.00	     9.798
  23.880         73.33	     9.381
  23.900         70.83	     9.220
  23.920         80.83	     9.849
  23.940         75.00	     9.487
  23.960         83.33	    10.000
  23.980         83.33	    10.000
  24.000         92.50	    10.536
  24.020         95.83	    10.724
  24.040        100.00	    10.954
  24.060        100.83	    11.000
  24.080         97.50	    10.817
  24.100        111.67	    11.576
  24.120        142.50	    13.077
  24.140        143.33	    13.115
  24.160        151.67	    13.491
  24.180        139.17	    12.923
  24.200        136.67	    12.806
  24.220        135.00	    12.728
  24.240         95.83	    10.724
  24.260         90.83	    10.440
  24.280         98.33	    10.863
  24.300         82.50	     9.950
  24.320         85.83	    10.149
  24.340         75.00	     9.487
  24.360         91.67	    10.488
  24.380         97.50	    10.817
  24.400        136.67	    12.806
  24.420        170.00	    14.283
  24.440        195.83	    15.330
  24.460        214.17	    16.031
  24.480        240.83	    17.000
  24.500        240.83	    17.000
  24.520        236.67	    16.852
  24.540        171.67	    14.353
  24.560        180.00	    14.697
  24.580        151.67	    13.491
  24.600        123.33	    12.166
  24.620        120.00	    12.000
  24.640        129.17	    12.450
  24.660        127.50	    12.369
  24.680        115.83	    11.790
  24.700        130.00	    12.490
  24.720        102.50	    11.091
  24.740        129.17	    12.450
  24.760        101.67	    11.045
  24.780         99.17	    10.909
  24.800        135.00	    12.728
  24.820        107.50	    11.358
  24.840         94.17	    10.630
  24.860         97.50	    10.817
  24.880        105.83	    11.269
  24.900        107.50	    11.358
  24.920         85.83	    10.149
  24.940        120.83	    12.042
  24.960        133.33	    12.649
  24.980        151.67	    13.491
  25.000        196.67	    15.362
  25.020        229.17	    16.583
  25.040        242.50	    17.059
  25.060        225.00	    16.432
  25.080        193.33	    15.232
  25.100        165.83	    14.107
  25.120        150.83	    13.454
  25.140        148.33	    13.342
  25.160        113.33	    11.662
  25.180         86.67	    10.198
  25.200         93.33	    10.583
  25.220        100.00	    10.954
  25.240        105.00	    11.225
  25.260        121.67	    12.083
  25.280        119.17	    11.958
  25.300        125.83	    12.288
  25.320        132.50	    12.610
  25.340        136.67	    12.806
  25.360        130.00	    12.490
  25.380        131.67	    12.570
  25.400        160.00	    13.856
  25.420        136.67	    12.806
  25.440        111.67	    11.576
  25.460        142.50	    13.077
  25.480        130.83	    12.530
  25.500        121.67	    12.083
  25.520        104.17	    11.180
  25.540        109.17	    11.446
  25.560        103.33	    11.136
  25.580        109.17	    11.446
  25.600        124.17	    12.207
  25.620        107.50	    11.358
  25.640        128.33	    12.410
  25.660         99.17	    10.909
  25.680        100.00	    10.954
  25.700         85.00	    10.100
  25.720         94.17	    10.630
  25.740         85.00	    10.100
  25.760         85.00	    10.100
  25.780         97.50	    10.817
  25.800         90.83	    10.440
  25.820         94.17	    10.630
  25.840         94.17	    10.630
  25.860        106.67	    11.314
  25.880         77.50	     9.644
  25.900         83.33	    10.000
  25.920        109.17	    11.446
  25.940         70.00	     9.165
  25.960         72.50	     9.327
  25.980         78.33	     9.695
  26.000         80.83	     9.849
  26.020         75.00	     9.487
  26.040         85.83	    10.149
  26.060         74.17	     9.434
  26.080        101.67	    11.045
  26.100         87.50	    10.247
  26.120         81.67	     9.899
  26.140        102.50	    11.091
  26.160         97.50	    10.817
  26.180        113.33	    11.662
  26.200        100.00	    10.954
  26.220        127.50	    12.369
  26.240        124.17	    12.207
  26.260        115.00	    11.747
  26.280        146.67	    13.266
  26.300        161.67	    13.928
  26.320        147.50	    13.304
  26.340        165.83	    14.107
  26.360        176.67	    14.560
  26.380        194.17	    15.264
  26.400        213.33	    16.000
  26.420        227.50	    16.523
  26.440        346.67	    20.396
  26.460        560.00	    25.923
  26.480        846.67	    31.875
  26.500       1235.83	    38.510
  26.520       1279.17	    39.179
  26.540       1046.67	    35.440
  26.560        824.17	    31.448
  26.580        776.67	    30.529
  26.600        652.50	    27.982
  26.620        461.67	    23.537
  26.640        381.67	    21.401
  26.660        394.17	    21.749
  26.680        437.50	    22.913
  26.700        613.33	    27.129
  26.720       1478.33	    42.119
  26.740       3699.17	    66.626
  26.760       4825.83	    76.099
  26.780       3460.83	    64.444
  26.800       2338.33	    52.972
  26.820       2815.00	    58.121
  26.840       2298.33	    52.517
  26.860        975.00	    34.205
  26.880        456.67	    23.409
  26.900        427.50	    22.650
  26.920        271.67	    18.055
  26.940        185.83	    14.933
  26.960        200.83	    15.524
  26.980        162.50	    13.964
  27.000        136.67	    12.806
  27.020        125.00	    12.247
  27.040        119.17	    11.958
  27.060        109.17	    11.446
  27.080        117.50	    11.874
  27.100        105.83	    11.269
  27.120        114.17	    11.705
  27.140        116.67	    11.832
  27.160        105.00	    11.225
  27.180        105.83	    11.269
  27.200        103.33	    11.136
  27.220         87.50	    10.247
  27.240         86.67	    10.198
  27.260         99.17	    10.909
  27.280         85.83	    10.149
  27.300        104.17	    11.180
  27.320        169.17	    14.248
  27.340        174.17	    14.457
  27.360        175.00	    14.491
  27.380        161.67	    13.928
  27.400        182.50	    14.799
  27.420        164.17	    14.036
  27.440        175.00	    14.491
  27.460        146.67	    13.266
  27.480        128.33	    12.410
  27.500        110.00	    11.489
  27.520        110.83	    11.533
  27.540        103.33	    11.136
  27.560        130.00	    12.490
  27.580        131.67	    12.570
  27.600        165.83	    14.107
  27.620        183.33	    14.832
  27.640        173.33	    14.422
  27.660        204.17	    15.652
  27.680        195.83	    15.330
  27.700        171.67	    14.353
  27.720        192.50	    15.199
  27.740        212.50	    15.969
  27.760        217.50	    16.155
  27.780        279.17	    18.303
  27.800        319.17	    19.570
  27.820        478.33	    23.958
  27.840        446.67	    23.152
  27.860        338.33	    20.149
  27.880        270.83	    18.028
  27.900        254.17	    17.464
  27.920        209.17	    15.843
  27.940        144.17	    13.153
  27.960        100.83	    11.000
  27.980        119.17	    11.958
  28.000        109.17	    11.446
  28.020        120.83	    12.042
  28.040        111.67	    11.576
  28.060         88.33	    10.296
  28.080        107.50	    11.358
  28.100         98.33	    10.863
  28.120        113.33	    11.662
  28.140         98.33	    10.863
  28.160        103.33	    11.136
  28.180        106.67	    11.314
  28.200        113.33	    11.662
  28.220        106.67	    11.314
  28.240         77.50	     9.644
  28.260         95.83	    10.724
  28.280         81.67	     9.899
  28.300         93.33	    10.583
  28.320         90.83	    10.440
  28.340         67.50	     9.000
  28.360         83.33	    10.000
  28.380         77.50	     9.644
  28.400         89.17	    10.344
  28.420         95.00	    10.677
  28.440        112.50	    11.619
  28.460        102.50	    11.091
  28.480        130.00	    12.490
  28.500        143.33	    13.115
  28.520        120.83	    12.042
  28.540        112.50	    11.619
  28.560        113.33	    11.662
  28.580         93.33	    10.583
  28.600         96.67	    10.770
  28.620         86.67	    10.198
  28.640         90.00	    10.392
  28.660         75.00	     9.487
  28.680         76.67	     9.592
  28.700         69.17	     9.110
  28.720         72.50	     9.327
  28.740         76.67	     9.592
  28.760         68.33	     9.055
  28.780         70.83	     9.220
  28.800         63.33	     8.718
  28.820         61.67	     8.602
  28.840         57.50	     8.307
  28.860         53.33	     8.000
  28.880         43.33	     7.211
  28.900         38.33	     6.782
  28.920         64.17	     8.775
  28.940         60.83	     8.544
  28.960         57.50	     8.307
  28.980         45.00	     7.348
  29.000         57.50	     8.307
  29.020         52.50	     7.937
  29.040         61.67	     8.602
  29.060         63.33	     8.718
  29.080         53.33	     8.000
  29.100         57.50	     8.307
  29.120         60.83	     8.544
  29.140         54.17	     8.062
  29.160         50.83	     7.810
  29.180         49.17	     7.681
  29.200         57.50	     8.307
  29.220         54.17	     8.062
  29.240         60.00	     8.485
  29.260         47.50	     7.550
  29.280         52.50	     7.937
  29.300         65.00	     8.832
  29.320         55.00	     8.124
  29.340         52.50	     7.937
  29.360         57.50	     8.307
  29.380         65.00	     8.832
  29.400         56.67	     8.246
  29.420         68.33	     9.055
  29.440         49.17	     7.681
  29.460         53.33	     8.000
  29.480         58.33	     8.367
  29.500         65.00	     8.832
  29.520         53.33	     8.000
  29.540         61.67	     8.602
  29.560         62.50	     8.660
  29.580         70.83	     9.220
  29.600         65.83	     8.888
  29.620         72.50	     9.327
  29.640         88.33	    10.296
  29.660         85.83	    10.149
  29.680        105.83	    11.269
  29.700        105.83	    11.269
  29.720        135.00	    12.728
  29.740        150.00	    13.416
  29.760        133.33	    12.649
  29.780        151.67	    13.491
  29.800        149.17	    13.379
  29.820        116.67	    11.832
  29.840        113.33	    11.662
  29.860        103.33	    11.136
  29.880         91.67	    10.488
  29.900        100.83	    11.000
  29.920         95.83	    10.724
  29.940        100.00	    10.954
  29.960        105.00	    11.225
  29.980        110.00	    11.489
  30.000        118.33	    11.916
  30.020         96.67	    10.770
  30.040         99.17	    10.909
  30.060         97.50	    10.817
  30.080        110.83	    11.533
  30.100        143.33	    13.115
  30.120        115.83	    11.790
  30.140        103.33	    11.136
  30.160        108.33	    11.402
  30.180        101.67	    11.045
  30.200         76.67	     9.592
  30.220         90.00	    10.392
  30.240         77.50	     9.644
  30.260         73.33	     9.381
  30.280         93.33	    10.583
  30.300         70.83	     9.220
  30.320         96.67	    10.770
  30.340        125.83	    12.288
  30.360        150.83	    13.454
  30.380        163.33	    14.000
  30.400        140.83	    13.000
  30.420        103.33	    11.136
  30.440        104.17	    11.180
  30.460        116.67	    11.832
  30.480         96.67	    10.770
  30.500         70.83	     9.220
  30.520         64.17	     8.775
  30.540         64.17	     8.775
  30.560         68.33	     9.055
  30.580         69.17	     9.110
  30.600         58.33	     8.367
  30.620         65.83	     8.888
  30.640         68.33	     9.055
  30.660         75.83	     9.539
  30.680         68.33	     9.055
  30.700         73.33	     9.381
  30.720         95.00	    10.677
  30.740         87.50	    10.247
  30.760         80.00	     9.798
  30.780         62.50	     8.660
  30.800         72.50	     9.327
  30.820         75.83	     9.539
  30.840         70.00	     9.165
  30.860         63.33	     8.718
  30.880         58.33	     8.367
  30.900         51.67	     7.874
  30.920         59.17	     8.426
  30.940         67.50	     9.000
  30.960         69.17	     9.110
  30.980         70.00	     9.165
  31.000         80.00	     9.798
  31.020         76.67	     9.592
  31.040         88.33	    10.296
  31.060        105.00	    11.225
  31.080        108.33	    11.402
  31.100        124.17	    12.207
  31.120        109.17	    11.446
  31.140        105.00	    11.225
  31.160        110.83	    11.533
  31.180         92.50	    10.536
  31.200         71.67	     9.274
  31.220         79.17	     9.747
  31.240         81.67	     9.899
  31.260         84.17	    10.050
  31.280         65.83	     8.888
  31.300         47.50	     7.550
  31.320         74.17	     9.434
  31.340         54.17	     8.062
  31.360         66.67	     8.944
  31.380         65.00	     8.832
  31.400         76.67	     9.592
  31.420         81.67	     9.899
  31.440         88.33	    10.296
  31.460         78.33	     9.695
  31.480         80.00	     9.798
  31.500         58.33	     8.367
  31.520         78.33	     9.695
  31.540         78.33	     9.695
  31.560         56.67	     8.246
  31.580         68.33	     9.055
  31.600         81.67	     9.899
  31.620         50.00	     7.746
  31.640         60.83	     8.544
  31.660         45.00	     7.348
  31.680         57.50	     8.307
  31.700         56.67	     8.246
  31.720         60.00	     8.485
  31.740         59.17	     8.426
  31.760         75.83	     9.539
  31.780         74.17	     9.434
  31.800         74.17	     9.434
  31.820         83.33	    10.000
  31.840         73.33	     9.381
  31.860         65.83	     8.888
  31.880         70.83	     9.220
  31.900         76.67	     9.592
  31.920         78.33	     9.695
  31.940         76.67	     9.592
  31.960         96.67	    10.770
  31.980         91.67	    10.488
  32.000        112.50	    11.619
  32.020        109.17	    11.446
  32.040        122.50	    12.124
  32.060         73.33	     9.381
  32.080        100.00	    10.954
  32.100         88.33	    10.296
  32.120         83.33	    10.000
  32.140         69.17	     9.110
  32.160         58.33	     8.367
  32.180         58.33	     8.367
  32.200         55.00	     8.124
  32.220         50.00	     7.746
  32.240         57.50	     8.307
  32.260         52.50	     7.937
  32.280         38.33	     6.782
  32.300         44.17	     7.280
  32.320         58.33	     8.367
  32.340         46.67	     7.483
  32.360         33.33	     6.325
  32.380         53.33	     8.000
  32.400         55.83	     8.185
  32.420         50.83	     7.810
  32.440         52.50	     7.937
  32.460         39.17	     6.856
  32.480         49.17	     7.681
  32.500         32.50	     6.245
  32.520         52.50	     7.937
  32.540         50.00	     7.746
  32.560         49.17	     7.681
  32.580         44.17	     7.280
  32.600         60.83	     8.544
  32.620         49.17	     7.681
  32.640         43.33	     7.211
  32.660         40.00	     6.928
  32.680         35.83	     6.557
  32.700         69.17	     9.110
  32.720         45.83	     7.416
  32.740         49.17	     7.681
  32.760         55.00	     8.124
  32.780         47.50	     7.550
  32.800         55.83	     8.185
  32.820         41.67	     7.071
  32.840         63.33	     8.718
  32.860         58.33	     8.367
  32.880         65.00	     8.832
  32.900         66.67	     8.944
  32.920         81.67	     9.899
  32.940         76.67	     9.592
  32.960        157.50	    13.748
  32.980        148.33	    13.342
  33.000         84.17	    10.050
  33.020         55.83	     8.185
  33.040         88.33	    10.296
  33.060         86.67	    10.198
  33.080         58.33	     8.367
  33.100         58.33	     8.367
  33.120         50.00	     7.746
  33.140         49.17	     7.681
  33.160         40.83	     7.000
  33.180         53.33	     8.000
  33.200         56.67	     8.246
  33.220         46.67	     7.483
  33.240         64.17	     8.775
  33.260         49.17	     7.681
  33.280         45.83	     7.416
  33.300         57.50	     8.307
  33.320         63.33	     8.718
  33.340         52.50	     7.937
  33.360         60.00	     8.485
  33.380         46.67	     7.483
  33.400         59.17	     8.426
  33.420         58.33	     8.367
  33.440         59.17	     8.426
  33.460         50.00	     7.746
  33.480         40.00	     6.928
  33.500         51.67	     7.874
  33.520         45.83	     7.416
  33.540         47.50	     7.550
  33.560         52.50	     7.937
  33.580         50.83	     7.810
  33.600         46.67	     7.483
  33.620         49.17	     7.681
  33.640         41.67	     7.071
  33.660         64.17	     8.775
  33.680         47.50	     7.550
  33.700         55.00	     8.124
  33.720         59.17	     8.426
  33.740         63.33	     8.718
  33.760         56.67	     8.246
  33.780         65.00	     8.832
  33.800         82.50	     9.950
  33.820         77.50	     9.644
  33.840         74.17	     9.434
  33.860         67.50	     9.000
  33.880         57.50	     8.307
  33.900         70.00	     9.165
  33.920         60.83	     8.544
  33.940         60.83	     8.544
  33.960         64.17	     8.775
  33.980         77.50	     9.644
  34.000         66.67	     8.944
  34.020         60.00	     8.485
  34.040         55.83	     8.185
  34.060         58.33	     8.367
  34.080         64.17	     8.775
  34.100         64.17	     8.775
  34.120         66.67	     8.944
  34.140         63.33	     8.718
  34.160         60.00	     8.485
  34.180         80.00	     9.798
  34.200         92.50	    10.536
  34.220         89.17	    10.344
  34.240         76.67	     9.592
  34.260        102.50	    11.091
  34.280        100.83	    11.000
  34.300        122.50	    12.124
  34.320        109.17	    11.446
  34.340        110.83	    11.533
  34.360        114.17	    11.705
  34.380        113.33	    11.662
  34.400        117.50	    11.874
  34.420        110.00	    11.489
  34.440        102.50	    11.091
  34.460        125.00	    12.247
  34.480        120.83	    12.042
  34.500        100.00	    10.954
  34.520         90.00	    10.392
  34.540        115.00	    11.747
  34.560        100.83	    11.000
  34.580         87.50	    10.247
  34.600         85.00	    10.100
  34.620         91.67	    10.488
  34.640         99.17	    10.909
  34.660         96.67	    10.770
  34.680        107.50	    11.358
  34.700        105.00	    11.225
  34.720        110.83	    11.533
  34.740        112.50	    11.619
  34.760        122.50	    12.124
  34.780        127.50	    12.369
  34.800        141.67	    13.038
  34.820        133.33	    12.649
  34.840        144.17	    13.153
  34.860        144.17	    13.153
  34.880        148.33	    13.342
  34.900        171.67	    14.353
  34.920        170.00	    14.283
  34.940        156.67	    13.711
  34.960        130.00	    12.490
  34.980        134.17	    12.689
  35.000        117.50	    11.874
  35.020        125.83	    12.288
  35.040        100.00	    10.954
  35.060        107.50	    11.358
  35.080        105.83	    11.269
  35.100         90.00	    10.392
  35.120         89.17	    10.344
  35.140         85.83	    10.149
  35.160         91.67	    10.488
  35.180         81.67	     9.899
  35.200         85.83	    10.149
  35.220        114.17	    11.705
  35.240        148.33	    13.342
  35.260        133.33	    12.649
  35.280        113.33	    11.662
  35.300        116.67	    11.832
  35.320        148.33	    13.342
  35.340        156.67	    13.711
  35.360        155.00	    13.638
  35.380        145.00	    13.191
  35.400        191.67	    15.166
  35.420        241.67	    17.029
  35.440        185.00	    14.900
  35.460        166.67	    14.142
  35.480        165.00	    14.071
  35.500        160.00	    13.856
  35.520        144.17	    13.153
  35.540        146.67	    13.266
  35.560        123.33	    12.166
  35.580        101.67	    11.045
  35.600         83.33	    10.000
  35.620         97.50	    10.817
  35.640         85.00	    10.100
  35.660         98.33	    10.863
  35.680         67.50	     9.000
  35.700         73.33	     9.381
  35.720         60.83	     8.544
  35.740         75.00	     9.487
  35.760         75.00	     9.487
  35.780         66.67	     8.944
  35.800         75.00	     9.487
  35.820         79.17	     9.747
  35.840         59.17	     8.426
  35.860         94.17	    10.630
  35.880         89.17	    10.344
  35.900         89.17	    10.344
  35.920         97.50	    10.817
  35.940        194.17	    15.264
  35.960        477.50	    23.937
  35.980        637.50	    27.659
  36.000        479.17	    23.979
  36.020        246.67	    17.205
  36.040        216.67	    16.125
  36.060        348.33	    20.445
  36.080        365.83	    20.952
  36.100        251.67	    17.378
  36.120        121.67	    12.083
  36.140         80.00	     9.798
  36.160         76.67	     9.592
  36.180         70.00	     9.165
  36.200         62.50	     8.660
  36.220         60.83	     8.544
  36.240         62.50	     8.660
  36.260         71.67	     9.274
  36.280         78.33	     9.695
  36.300         88.33	    10.296
  36.320         83.33	    10.000
  36.340        113.33	    11.662
  36.360        113.33	    11.662
  36.380        115.83	    11.790
  36.400        142.50	    13.077
  36.420        155.00	    13.638
  36.440        129.17	    12.450
  36.460        112.50	    11.619
  36.480        122.50	    12.124
  36.500        116.67	    11.832
  36.520        129.17	    12.450
  36.540        110.83	    11.533
  36.560        112.50	    11.619
  36.580        108.33	    11.402
  36.600        117.50	    11.874
  36.620        102.50	    11.091
  36.640         97.50	    10.817
  36.660         93.33	    10.583
  36.680         86.67	    10.198
  36.700         80.00	     9.798
  36.720         80.00	     9.798
  36.740         75.00	     9.487
  36.760         55.00	     8.124
  36.780         52.50	     7.937
  36.800         55.83	     8.185
  36.820         65.00	     8.832
  36.840         71.67	     9.274
  36.860         65.83	     8.888
  36.880         72.50	     9.327
  36.900         51.67	     7.874
  36.920         60.00	     8.485
  36.940         80.00	     9.798
  36.960         57.50	     8.307
  36.980         61.67	     8.602
  37.000         55.00	     8.124
  37.020         72.50	     9.327
  37.040         52.50	     7.937
  37.060         66.67	     8.944
  37.080         55.00	     8.124
  37.100         45.83	     7.416
  37.120         59.17	     8.426
  37.140         58.33	     8.367
  37.160         54.17	     8.062
  37.180         76.67	     9.592
  37.200         65.00	     8.832
  37.220         65.83	     8.888
  37.240         70.00	     9.165
  37.260         54.17	     8.062
  37.280         62.50	     8.660
  37.300         73.33	     9.381
  37.320         79.17	     9.747
  37.340         77.50	     9.644
  37.360         79.17	     9.747
  37.380         66.67	     8.944
  37.400         77.50	     9.644
  37.420         93.33	    10.583
  37.440         73.33	     9.381
  37.460         88.33	    10.296
  37.480         91.67	    10.488
  37.500         83.33	    10.000
  37.520         97.50	    10.817
  37.540        111.67	    11.576
  37.560        106.67	    11.314
  37.580        107.50	    11.358
  37.600        118.33	    11.916
  37.620        107.50	    11.358
  37.640         87.50	    10.247
  37.660         94.17	    10.630
  37.680         87.50	    10.247
  37.700         76.67	     9.592
  37.720         59.17	     8.426
  37.740         70.00	     9.165
  37.760         46.67	     7.483
  37.780         58.33	     8.367
  37.800         41.67	     7.071
  37.820         49.17	     7.681
  37.840         39.17	     6.856
  37.860         60.83	     8.544
  37.880         42.50	     7.141
  37.900         40.00	     6.928
  37.920         48.33	     7.616
  37.940         49.17	     7.681
  37.960         43.33	     7.211
  37.980         45.83	     7.416
  38.000         37.50	     6.708
  38.020         40.00	     6.928
  38.040         44.17	     7.280
  38.060         43.33	     7.211
  38.080         44.17	     7.280
  38.100         49.17	     7.681
  38.120         50.00	     7.746
  38.140         40.83	     7.000
  38.160         42.50	     7.141
  38.180         42.50	     7.141
  38.200         35.83	     6.557
  38.220         49.17	     7.681
  38.240         37.50	     6.708
  38.260         47.50	     7.550
  38.280         40.00	     6.928
  38.300         45.83	     7.416
  38.320         56.67	     8.246
  38.340         57.50	     8.307
  38.360         56.67	     8.246
  38.380         50.00	     7.746
  38.400         56.67	     8.246
  38.420         59.17	     8.426
  38.440         54.17	     8.062
  38.460         60.00	     8.485
  38.480         63.33	     8.718
  38.500         69.17	     9.110
  38.520         65.83	     8.888
  38.540         60.00	     8.485
  38.560         50.83	     7.810
  38.580         55.00	     8.124
  38.600         49.17	     7.681
  38.620         51.67	     7.874
  38.640         55.00	     8.124
  38.660         58.33	     8.367
  38.680         61.67	     8.602
  38.700         62.50	     8.660
  38.720         49.17	     7.681
  38.740         52.50	     7.937
  38.760         50.00	     7.746
  38.780         55.83	     8.185
  38.800         65.00	     8.832
  38.820         54.17	     8.062
  38.840         50.83	     7.810
  38.860         50.83	     7.810
  38.880         43.33	     7.211
  38.900         49.17	     7.681
  38.920         50.83	     7.810
  38.940         57.50	     8.307
  38.960         49.17	     7.681
  38.980         45.00	     7.348
  39.000         47.50	     7.550
  39.020         55.00	     8.124
  39.040         51.67	     7.874
  39.060         45.00	     7.348
  39.080         64.17	     8.775
  39.100         49.17	     7.681
  39.120         50.83	     7.810
  39.140         46.67	     7.483
  39.160         58.33	     8.367
  39.180         58.33	     8.367
  39.200         46.67	     7.483
  39.220         54.17	     8.062
  39.240         62.50	     8.660
  39.260         63.33	     8.718
  39.280         92.50	    10.536
  39.300        142.50	    13.077
  39.320        166.67	    14.142
  39.340        158.33	    13.784
  39.360        135.00	    12.728
  39.380        101.67	    11.045
  39.400        105.83	    11.269
  39.420        110.00	    11.489
  39.440        100.83	    11.000
  39.460        100.83	    11.000
  39.480         66.67	     8.944
  39.500         61.67	     8.602
  39.520         50.00	     7.746
  39.540         52.50	     7.937
  39.560         66.67	     8.944
  39.580         73.33	     9.381
  39.600         55.83	     8.185
  39.620         63.33	     8.718
  39.640         52.50	     7.937
  39.660         59.17	     8.426
  39.680         45.83	     7.416
  39.700         57.50	     8.307
  39.720         59.17	     8.426
  39.740         52.50	     7.937
  39.760         57.50	     8.307
  39.780         48.33	     7.616
  39.800         50.83	     7.810
  39.820         55.00	     8.124
  39.840         54.17	     8.062
  39.860         61.67	     8.602
  39.880         50.83	     7.810
  39.900         68.33	     9.055
  39.920         47.50	     7.550
  39.940         50.83	     7.810
  39.960         54.17	     8.062
  39.980         53.33	     8.000
  40.000         45.83	     7.416
  40.020         48.33	     7.616
  40.040         58.33	     8.367
  40.060         62.50	     8.660
  40.080         57.50	     8.307
  40.100         75.00	     9.487
  40.120         68.33	     9.055
  40.140        106.67	    11.314
  40.160         89.17	    10.344
  40.180        100.00	    10.954
  40.200         99.17	    10.909
  40.220         85.83	    10.149
  40.240         69.17	     9.110
  40.260         82.50	     9.950
  40.280         84.17	    10.050
  40.300         60.00	     8.485
  40.320         58.33	     8.367
  40.340         32.50	     6.245
  40.360         51.67	     7.874
  40.380         50.00	     7.746
  40.400         61.67	     8.602
  40.420         45.00	     7.348
  40.440         41.67	     7.071
  40.460         41.67	     7.071
  40.480         39.17	     6.856
  40.500         44.17	     7.280
  40.520         50.00	     7.746
  40.540         50.83	     7.810
  40.560         41.67	     7.071
  40.580         46.67	     7.483
  40.600         52.50	     7.937
  40.620         45.00	     7.348
  40.640         48.33	     7.616
  40.660         44.17	     7.280
  40.680         50.00	     7.746
  40.700         56.67	     8.246
  40.720         55.00	     8.124
  40.740         56.67	     8.246
  40.760         55.00	     8.124
  40.780         53.33	     8.000
  40.800         50.83	     7.810
  40.820         52.50	     7.937
  40.840         71.67	     9.274
  40.860         69.17	     9.110
  40.880         60.00	     8.485
  40.900         65.83	     8.888
  40.920         47.50	     7.550
  40.940         43.33	     7.211
  40.960         58.33	     8.367
  40.980         64.17	     8.775
  41.000         57.50	     8.307
  41.020         55.00	     8.124
  41.040         60.00	     8.485
  41.060         45.83	     7.416
  41.080         70.83	     9.220
  41.100         50.00	     7.746
  41.120         69.17	     9.110
  41.140         65.00	     8.832
  41.160         69.17	     9.110
  41.180         69.17	     9.110
  41.200         65.00	     8.832
  41.220         72.50	     9.327
  41.240         66.67	     8.944
  41.260         69.17	     9.110
  41.280         70.83	     9.220
  41.300         48.33	     7.616
  41.320         52.50	     7.937
  41.340         60.00	     8.485
  41.360         70.00	     9.165
  41.380         55.00	     8.124
  41.400         50.83	     7.810
  41.420         60.00	     8.485
  41.440         67.50	     9.000
  41.460         71.67	     9.274
  41.480         81.67	     9.899
  41.500         71.67	     9.274
  41.520         94.17	    10.630
  41.540         89.17	    10.344
  41.560         93.33	    10.583
  41.580         94.17	    10.630
  41.600        126.67	    12.329
  41.620         89.17	    10.344
  41.640        103.33	    11.136
  41.660         90.00	    10.392
  41.680         89.17	    10.344
  41.700        109.17	    11.446
  41.720         95.83	    10.724
  41.740         86.67	    10.198
  41.760         87.50	    10.247
  41.780         94.17	    10.630
  41.800         88.33	    10.296
  41.820         82.50	     9.950
  41.840         95.83	    10.724
  41.860         82.50	     9.950
  41.880         85.00	    10.100
  41.900         72.50	     9.327
  41.920         80.00	     9.798
  41.940         65.83	     8.888
  41.960         70.00	     9.165
  41.980         63.33	     8.718
  42.000         65.83	     8.888
  42.020         65.83	     8.888
  42.040         69.17	     9.110
  42.060         70.83	     9.220
  42.080         72.50	     9.327
  42.100         75.83	     9.539
  42.120         75.00	     9.487
  42.140         82.50	     9.950
  42.160         75.83	     9.539
  42.180         72.50	     9.327
  42.200         89.17	    10.344
  42.220         96.67	    10.770
  42.240         79.17	     9.747
  42.260         84.17	    10.050
  42.280        104.17	    11.180
  42.300        134.17	    12.689
  42.320        179.17	    14.663
  42.340        177.50	    14.595
  42.360        176.67	    14.560
  42.380        149.17	    13.379
  42.400        127.50	    12.369
  42.420        141.67	    13.038
  42.440        102.50	    11.091
  42.460        103.33	    11.136
  42.480        120.83	    12.042
  42.500         77.50	     9.644
  42.520         81.67	     9.899
  42.540         65.83	     8.888
  42.560         67.50	     9.000
  42.580         65.00	     8.832
  42.600         70.83	     9.220
  42.620         57.50	     8.307
  42.640         80.83	     9.849
  42.660         87.50	    10.247
  42.680        123.33	    12.166
  42.700        100.00	    10.954
  42.720        100.00	    10.954
  42.740         89.17	    10.344
  42.760         83.33	    10.000
  42.780         74.17	     9.434
  42.800        103.33	    11.136
  42.820         65.00	     8.832
  42.840         77.50	     9.644
  42.860         61.67	     8.602
  42.880         60.83	     8.544
  42.900         71.67	     9.274
  42.920         60.83	     8.544
  42.940         63.33	     8.718
  42.960         56.67	     8.246
  42.980         54.17	     8.062
  43.000         69.17	     9.110
  43.020         81.67	     9.899
  43.040         65.00	     8.832
  43.060         85.00	    10.100
  43.080         56.67	     8.246
  43.100         66.67	     8.944
  43.120         70.00	     9.165
  43.140         65.00	     8.832
  43.160         61.67	     8.602
  43.180         59.17	     8.426
  43.200         75.83	     9.539
  43.220         70.00	     9.165
  43.240         80.00	     9.798
  43.260         85.00	    10.100
  43.280         71.67	     9.274
  43.300         78.33	     9.695
  43.320         95.00	    10.677
  43.340         79.17	     9.747
  43.360        108.33	    11.402
  43.380         99.17	    10.909
  43.400        114.17	    11.705
  43.420        159.17	    13.820
  43.440        150.00	    13.416
  43.460        148.33	    13.342
  43.480        156.67	    13.711
  43.500        147.50	    13.304
  43.520        122.50	    12.124
  43.540        133.33	    12.649
  43.560        116.67	    11.832
  43.580        110.83	    11.533
  43.600        128.33	    12.410
  43.620        124.17	    12.207
  43.640        119.17	    11.958
  43.660         98.33	    10.863
  43.680        110.00	    11.489
  43.700        100.00	    10.954
  43.720         85.83	    10.149
  43.740        102.50	    11.091
  43.760        114.17	    11.705
  43.780         99.17	    10.909
  43.800        100.83	    11.000
  43.820        106.67	    11.314
  43.840         89.17	    10.344
  43.860        125.83	    12.288
  43.880        107.50	    11.358
  43.900        110.00	    11.489
  43.920        126.67	    12.329
  43.940        107.50	    11.358
  43.960        120.00	    12.000
  43.980        133.33	    12.649
  44.000        149.17	    13.379
  44.020        140.00	    12.961
  44.040        147.50	    13.304
  44.060        137.50	    12.845
  44.080        140.00	    12.961
  44.100        180.00	    14.697
  44.120        189.17	    15.067
  44.140        200.00	    15.492
  44.160        204.17	    15.652
  44.180        205.00	    15.684
  44.200        249.17	    17.292
  44.220        228.33	    16.553
  44.240        275.00	    18.166
  44.260        292.50	    18.735
  44.280        325.00	    19.748
  44.300        283.33	    18.439
  44.320        312.50	    19.365
  44.340        354.17	    20.616
  44.360        322.50	    19.672
  44.380        316.67	    19.494
  44.400        321.67	    19.647
  44.420        365.00	    20.928
  44.440        349.17	    20.469
  44.460        313.33	    19.391
  44.480        301.67	    19.026
  44.500        296.67	    18.868
  44.520        257.50	    17.578
  44.540        299.17	    18.947
  44.560        273.33	    18.111
  44.580        264.17	    17.804
  44.600        226.67	    16.492
  44.620        233.33	    16.733
  44.640        205.00	    15.684
  44.660        190.00	    15.100
  44.680        205.83	    15.716
  44.700        178.33	    14.629
  44.720        171.67	    14.353
  44.740        165.83	    14.107
  44.760        160.83	    13.892
  44.780        154.17	    13.601
  44.800        145.00	    13.191
  44.820        131.67	    12.570
  44.840        135.00	    12.728
  44.860        136.67	    12.806
  44.880        139.17	    12.923
  44.900        122.50	    12.124
  44.920        128.33	    12.410
  44.940        128.33	    12.410
  44.960        121.67	    12.083
  44.980        111.67	    11.576
  45.000        105.83	    11.269
  45.020         89.17	    10.344
  45.040        100.00	    10.954
  45.060        101.67	    11.045
  45.080        104.17	    11.180
  45.100        115.83	    11.790
  45.120        114.17	    11.705
  45.140        112.50	    11.619
  45.160        102.50	    11.091
  45.180        128.33	    12.410
  45.200        150.83	    13.454
  45.220        157.50	    13.748
  45.240        189.17	    15.067
  45.260        190.00	    15.100
  45.280        168.33	    14.213
  45.300        202.50	    15.588
  45.320        219.17	    16.217
  45.340        253.33	    17.436
  45.360        309.17	    19.261
  45.380        457.50	    23.431
  45.400        773.33	    30.463
  45.420       2130.00	    50.557
  45.440       3786.67	    67.409
  45.460       4220.83	    71.169
  45.480       2819.17	    58.164
  45.500       1321.67	    39.825
  45.520        868.33	    32.280
  45.540       1227.50	    38.380
  45.560       2009.17	    49.102
  45.580       2226.67	    51.691
  45.600       1572.50	    43.440
  45.620        793.33	    30.854
  45.640        393.33	    21.726
  45.660        285.83	    18.520
  45.680        229.17	    16.583
  45.700        192.50	    15.199
  45.720        143.33	    13.115
  45.740        134.17	    12.689
  45.760        126.67	    12.329
  45.780        142.50	    13.077
  45.800        110.83	    11.533
  45.820        104.17	    11.180
  45.840         98.33	    10.863
  45.860         80.00	     9.798
  45.880         97.50	    10.817
  45.900         91.67	    10.488
  45.920         79.17	     9.747
  45.940         74.17	     9.434
  45.960         68.33	     9.055
  45.980         79.17	     9.747
  46.000         76.67	     9.592
  46.020         68.33	     9.055
  46.040         70.83	     9.220
  46.060         67.50	     9.000
  46.080         68.33	     9.055
  46.100         54.17	     8.062
  46.120         62.50	     8.660
  46.140         55.00	     8.124
  46.160         45.00	     7.348
  46.180         57.50	     8.307
  46.200         47.50	     7.550
  46.220         55.00	     8.124
  46.240         56.67	     8.246
  46.260         46.67	     7.483
  46.280         52.50	     7.937
  46.300         50.00	     7.746
  46.320         50.83	     7.810
  46.340         46.67	     7.483
  46.360         60.83	     8.544
  46.380         47.50	     7.550
  46.400         40.83	     7.000
  46.420         41.67	     7.071
  46.440         53.33	     8.000
  46.460         50.83	     7.810
  46.480         37.50	     6.708
  46.500         55.00	     8.124
  46.520         53.33	     8.000
  46.540         49.17	     7.681
  46.560         39.17	     6.856
  46.580         48.33	     7.616
  46.600         50.00	     7.746
  46.620         40.83	     7.000
  46.640         35.83	     6.557
  46.660         37.50	     6.708
  46.680         42.50	     7.141
  46.700         44.17	     7.280
  46.720         35.00	     6.481
  46.740         55.00	     8.124
  46.760         46.67	     7.483
  46.780         35.83	     6.557
  46.800         55.00	     8.124
  46.820         50.83	     7.810
  46.840         50.83	     7.810
  46.860         43.33	     7.211
  46.880         44.17	     7.280
  46.900         43.33	     7.211
  46.920         49.17	     7.681
  46.940         45.00	     7.348
  46.960         55.00	     8.124
  46.980         45.00	     7.348
  47.000         46.67	     7.483
  47.020         57.50	     8.307
  47.040         59.17	     8.426
  47.060         56.67	     8.246
  47.080         53.33	     8.000
  47.100         54.17	     8.062
  47.120         48.33	     7.616
  47.140         49.17	     7.681
  47.160         45.83	     7.416
  47.180         49.17	     7.681
  47.200         40.00	     6.928
  47.220         38.33	     6.782
  47.240         40.00	     6.928
  47.260         41.67	     7.071
  47.280         40.83	     7.000
  47.300         43.33	     7.211
  47.320         34.17	     6.403
  47.340         45.83	     7.416
  47.360         43.33	     7.211
  47.380         50.00	     7.746
  47.400         46.67	     7.483
  47.420         47.50	     7.550
  47.440         28.33	     5.831
  47.460         48.33	     7.616
  47.480         42.50	     7.141
  47.500         45.00	     7.348
  47.520         49.17	     7.681
  47.540         49.17	     7.681
  47.560         45.83	     7.416
  47.580         32.50	     6.245
  47.600         55.83	     8.185
  47.620         42.50	     7.141
  47.640         51.67	     7.874
  47.660         39.17	     6.856
  47.680         41.67	     7.071
  47.700         39.17	     6.856
  47.720         37.50	     6.708
  47.740         50.00	     7.746
  47.760         40.00	     6.928
  47.780         40.83	     7.000
  47.800         46.67	     7.483
  47.820         49.17	     7.681
  47.840         60.83	     8.544
  47.860         60.83	     8.544
  47.880         65.83	     8.888
  47.900         61.67	     8.602
  47.920         45.83	     7.416
  47.940         69.17	     9.110
  47.960         58.33	     8.367
  47.980         69.17	     9.110
  48.000         75.00	     9.487
  48.020         66.67	     8.944
  48.040         65.00	     8.832
  48.060         52.50	     7.937
  48.080         56.67	     8.246
  48.100         60.83	     8.544
  48.120         68.33	     9.055
  48.140         51.67	     7.874
  48.160         60.00	     8.485
  48.180         62.50	     8.660
  48.200         60.83	     8.544
  48.220         40.00	     6.928
  48.240         61.67	     8.602
  48.260         52.50	     7.937
  48.280         56.67	     8.246
  48.300         55.00	     8.124
  48.320         45.00	     7.348
  48.340         47.50	     7.550
  48.360         60.83	     8.544
  48.380         45.83	     7.416
  48.400         55.83	     8.185
  48.420         50.00	     7.746
  48.440         40.83	     7.000
  48.460         39.17	     6.856
  48.480         50.83	     7.810
  48.500         52.50	     7.937
  48.520         51.67	     7.874
  48.540         45.00	     7.348
  48.560         46.67	     7.483
  48.580         45.00	     7.348
  48.600         48.33	     7.616
  48.620         50.83	     7.810
  48.640         42.50	     7.141
  48.660         50.83	     7.810
  48.680         50.83	     7.810
  48.700         46.67	     7.483
  48.720         45.00	     7.348
  48.740         52.50	     7.937
  48.760         46.67	     7.483
  48.780         54.17	     8.062
  48.800         42.50	     7.141
  48.820         36.67	     6.633
  48.840         38.33	     6.782
  48.860         44.17	     7.280
  48.880         45.00	     7.348
  48.900         38.33	     6.782
  48.920         55.83	     8.185
  48.940         42.50	     7.141
  48.960         32.50	     6.245
  48.980         45.83	     7.416
  49.000         49.17	     7.681
  49.020         45.83	     7.416
  49.040         45.83	     7.416
  49.060         51.67	     7.874
  49.080         55.83	     8.185
  49.100         48.33	     7.616
  49.120         63.33	     8.718
  49.140         48.33	     7.616
  49.160         46.67	     7.483
  49.180         50.00	     7.746
  49.200         60.83	     8.544
  49.220         41.67	     7.071
  49.240         52.50	     7.937
  49.260         52.50	     7.937
  49.280         49.17	     7.681
  49.300         44.17	     7.280
  49.320         50.00	     7.746
  49.340         58.33	     8.367
  49.360         47.50	     7.550
  49.380         55.83	     8.185
  49.400         42.50	     7.141
  49.420         41.67	     7.071
  49.440         42.50	     7.141
  49.460         51.67	     7.874
  49.480         60.00	     8.485
  49.500         49.17	     7.681
  49.520         56.67	     8.246
  49.540         45.83	     7.416
  49.560         53.33	     8.000
  49.580         50.00	     7.746
  49.600         50.00	     7.746
  49.620         62.50	     8.660
  49.640         56.67	     8.246
  49.660         61.67	     8.602
  49.680         51.67	     7.874
  49.700         56.67	     8.246
  49.720         83.33	    10.000
  49.740         63.33	     8.718
  49.760         57.50	     8.307
  49.780         55.83	     8.185
  49.800        107.50	    11.358
  49.820         84.17	    10.050
  49.840         63.33	     8.718
  49.860         75.83	     9.539
  49.880         89.17	    10.344
  49.900         77.50	     9.644
  49.920         99.17	    10.909
  49.940         84.17	    10.050
  49.960        126.67	    12.329
  49.980        148.33	    13.342
  50.000        170.00	    14.283
  50.020        168.33	    14.213
  50.040        123.33	    12.166
  50.060         95.00	    10.677
  50.080         87.50	    10.247
  50.100         95.00	    10.677
  50.120        107.50	    11.358
  50.140        104.17	    11.180
  50.160        101.67	    11.045
  50.180         94.17	    10.630
  50.200         80.83	     9.849
  50.220         61.67	     8.602
  50.240         46.67	     7.483
  50.260         64.17	     8.775
  50.280         56.67	     8.246
  50.300         54.17	     8.062
  50.320         60.83	     8.544
  50.340         76.67	     9.592
  50.360         69.17	     9.110
  50.380         61.67	     8.602
  50.400         62.50	     8.660
  50.420         65.00	     8.832
  50.440         68.33	     9.055
  50.460         85.83	    10.149
  50.480         96.67	    10.770
  50.500         81.67	     9.899
  50.520         72.50	     9.327
  50.540         79.17	     9.747
  50.560         67.50	     9.000
  50.580         65.00	     8.832
  50.600         74.17	     9.434
  50.620         65.83	     8.888
  50.640         80.00	     9.798
  50.660         59.17	     8.426
  50.680         55.00	     8.124
  50.700         56.67	     8.246
  50.720         70.83	     9.220
  50.740         41.67	     7.071
  50.760         49.17	     7.681
  50.780         43.33	     7.211
  50.800         51.67	     7.874
  50.820         31.67	     6.164
  50.840         40.00	     6.928
  50.860         56.67	     8.246
  50.880         45.00	     7.348
  50.900         53.33	     8.000
  50.920         41.67	     7.071
  50.940         40.83	     7.000
  50.960         64.17	     8.775
  50.980         64.17	     8.775
  51.000         78.33	     9.695
  51.020         72.50	     9.327
  51.040         62.50	     8.660
  51.060         55.00	     8.124
  51.080         60.83	     8.544
  51.100         55.00	     8.124
  51.120         60.00	     8.485
  51.140         70.00	     9.165
  51.160         67.50	     9.000
  51.180         53.33	     8.000
  51.200         63.33	     8.718
  51.220         55.00	     8.124
  51.240         45.83	     7.416
  51.260         45.00	     7.348
  51.280         45.00	     7.348
  51.300         44.17	     7.280
  51.320         33.33	     6.325
  51.340         35.83	     6.557
  51.360         25.00	     5.477
  51.380         50.00	     7.746
  51.400         40.83	     7.000
  51.420         34.17	     6.403
  51.440         30.00	     6.000
  51.460         35.83	     6.557
  51.480         31.67	     6.164
  51.500         45.00	     7.348
  51.520         34.17	     6.403
  51.540         30.83	     6.083
  51.560         35.83	     6.557
  51.580         28.33	     5.831
  51.600         30.83	     6.083
  51.620         40.83	     7.000
  51.640         43.33	     7.211
  51.660         36.67	     6.633
  51.680         28.33	     5.831
  51.700         28.33	     5.831
  51.720         39.17	     6.856
  51.740         35.00	     6.481
  51.760         43.33	     7.211
  51.780         30.83	     6.083
  51.800         40.00	     6.928
  51.820         25.00	     5.477
  51.840         30.83	     6.083
  51.860         39.17	     6.856
  51.880         35.83	     6.557
  51.900         45.00	     7.348
  51.920         45.83	     7.416
  51.940         47.50	     7.550
  51.960         32.50	     6.245
  51.980         46.67	     7.483
  52.000         38.33	     6.782
  52.020         55.83	     8.185
  52.040         54.17	     8.062
  52.060         59.17	     8.426
  52.080         56.67	     8.246
  52.100         39.17	     6.856
  52.120         40.83	     7.000
  52.140         40.83	     7.000
  52.160         65.00	     8.832
  52.180         53.33	     8.000
  52.200         45.83	     7.416
  52.220         41.67	     7.071
  52.240         40.83	     7.000
  52.260         53.33	     8.000
  52.280         49.17	     7.681
  52.300         52.50	     7.937
  52.320         49.17	     7.681
  52.340         50.83	     7.810
  52.360         55.00	     8.124
  52.380         53.33	     8.000
  52.400         43.33	     7.211
  52.420         40.00	     6.928
  52.440         61.67	     8.602
  52.460         51.67	     7.874
  52.480         62.50	     8.660
  52.500         54.17	     8.062
  52.520         48.33	     7.616
  52.540         47.50	     7.550
  52.560         50.83	     7.810
  52.580         36.67	     6.633
  52.600         35.83	     6.557
  52.620         58.33	     8.367
  52.640         48.33	     7.616
  52.660         51.67	     7.874
  52.680         52.50	     7.937
  52.700         41.67	     7.071
  52.720         45.00	     7.348
  52.740         40.00	     6.928
  52.760         56.67	     8.246
  52.780         55.83	     8.185
  52.800         56.67	     8.246
  52.820         55.83	     8.185
  52.840         43.33	     7.211
  52.860         44.17	     7.280
  52.880         42.50	     7.141
  52.900         41.67	     7.071
  52.920         42.50	     7.141
  52.940         45.00	     7.348
  52.960         44.17	     7.280
  52.980         47.50	     7.550
  53.000         64.17	     8.775
  53.020         66.67	     8.944
  53.040         50.00	     7.746
  53.060         45.83	     7.416
  53.080         44.17	     7.280
  53.100         45.83	     7.416
  53.120         50.00	     7.746
  53.140         50.83	     7.810
  53.160         45.00	     7.348
  53.180         38.33	     6.782
  53.200         41.67	     7.071
  53.220         40.00	     6.928
  53.240         35.00	     6.481
  53.260         50.83	     7.810
  53.280         51.67	     7.874
  53.300         43.33	     7.211
  53.320         48.33	     7.616
  53.340         42.50	     7.141
  53.360         39.17	     6.856
  53.380         34.17	     6.403
  53.400         48.33	     7.616
  53.420         38.33	     6.782
  53.440         32.50	     6.245
  53.460         38.33	     6.782
  53.480         43.33	     7.211
  53.500         37.50	     6.708
  53.520         49.17	     7.681
  53.540         35.00	     6.481
  53.560         51.67	     7.874
  53.580         37.50	     6.708
  53.600         54.17	     8.062
  53.620         52.50	     7.937
  53.640         40.83	     7.000
  53.660         40.83	     7.000
  53.680         38.33	     6.782
  53.700         59.17	     8.426
  53.720         41.67	     7.071
  53.740         48.33	     7.616
  53.760         45.00	     7.348
  53.780         41.67	     7.071
  53.800         49.17	     7.681
  53.820         45.83	     7.416
  53.840         45.83	     7.416
  53.860         25.00	     5.477
  53.880         48.33	     7.616
  53.900         43.33	     7.211
  53.920         36.67	     6.633
  53.940         38.33	     6.782
  53.960         53.33	     8.000
  53.980         43.33	     7.211
  54.000         47.50	     7.550
  54.020         49.17	     7.681
  54.040         39.17	     6.856
  54.060         39.17	     6.856
  54.080         45.00	     7.348
  54.100         41.67	     7.071
  54.120         34.17	     6.403
  54.140         48.33	     7.616
  54.160         48.33	     7.616
  54.180         53.33	     8.000
  54.200         63.33	     8.718
  54.220         44.17	     7.280
  54.240         40.00	     6.928
  54.260         50.83	     7.810
  54.280         40.83	     7.000
  54.300         48.33	     7.616
  54.320         42.50	     7.141
  54.340         56.67	     8.246
  54.360         54.17	     8.062
  54.380         55.83	     8.185
  54.400         45.83	     7.416
  54.420         37.50	     6.708
  54.440         44.17	     7.280
  54.460         53.33	     8.000
  54.480         54.17	     8.062
  54.500         49.17	     7.681
  54.520         41.67	     7.071
  54.540         33.33	     6.325
  54.560         43.33	     7.211
  54.580         49.17	     7.681
  54.600         55.00	     8.124
  54.620         56.67	     8.246
  54.640         50.83	     7.810
  54.660         67.50	     9.000
  54.680         60.83	     8.544
  54.700         71.67	     9.274
  54.720         90.00	    10.392
  54.740         80.83	     9.849
  54.760         86.67	    10.198
  54.780         88.33	    10.296
  54.800         66.67	     8.944
  54.820         57.50	     8.307
  54.840         63.33	     8.718
  54.860         76.67	     9.592
  54.880         67.50	     9.000
  54.900         64.17	     8.775
  54.920         55.00	     8.124
  54.940         59.17	     8.426
  54.960         72.50	     9.327
  54.980         46.67	     7.483
  55.000         49.17	     7.681
  55.020         59.17	     8.426
  55.040         54.17	     8.062
  55.060         60.83	     8.544
  55.080         55.00	     8.124
  55.100         66.67	     8.944
  55.120         56.67	     8.246
  55.140         60.83	     8.544
  55.160         72.50	     9.327
  55.180         66.67	     8.944
  55.200         73.33	     9.381
  55.220         84.17	    10.050
  55.240        106.67	    11.314
  55.260        115.83	    11.790
  55.280        111.67	    11.576
  55.300         97.50	    10.817
  55.320         88.33	    10.296
  55.340         77.50	     9.644
  55.360         73.33	     9.381
  55.380         84.17	    10.050
  55.400         80.00	     9.798
  55.420        100.00	    10.954
  55.440         89.17	    10.344
  55.460         79.17	     9.747
  55.480         50.83	     7.810
  55.500         73.33	     9.381
  55.520         72.50	     9.327
  55.540         88.33	    10.296
  55.560         70.00	     9.165
  55.580         78.33	     9.695
  55.600         74.17	     9.434
  55.620         65.00	     8.832
  55.640         74.17	     9.434
  55.660         68.33	     9.055
  55.680         93.33	    10.583
  55.700        105.83	    11.269
  55.720         75.00	     9.487
  55.740         76.67	     9.592
  55.760         65.83	     8.888
  55.780         59.17	     8.426
  55.800         60.83	     8.544
  55.820         76.67	     9.592
  55.840         78.33	     9.695
  55.860         62.50	     8.660
  55.880         65.00	     8.832
  55.900         55.00	     8.124
  55.920         50.83	     7.810
  55.940         50.83	     7.810
  55.960         65.00	     8.832
  55.980         51.67	     7.874
  56.000         37.50	     6.708
  56.020         49.17	     7.681
  56.040         46.67	     7.483
  56.060         50.00	     7.746
  56.080         49.17	     7.681
  56.100         34.17	     6.403
  56.120         45.83	     7.416
  56.140         45.00	     7.348
  56.160         39.17	     6.856
  56.180         38.33	     6.782
  56.200         35.83	     6.557
  56.220         55.83	     8.185
  56.240         40.83	     7.000
  56.260         40.00	     6.928
  56.280         45.83	     7.416
  56.300         55.00	     8.124
  56.320         39.17	     6.856
  56.340         33.33	     6.325
  56.360         34.17	     6.403
  56.380         53.33	     8.000
  56.400         42.50	     7.141
  56.420         50.00	     7.746
  56.440         56.67	     8.246
  56.460         48.33	     7.616
  56.480         50.83	     7.810
  56.500         40.00	     6.928
  56.520         35.00	     6.481
  56.540         52.50	     7.937
  56.560         43.33	     7.211
  56.580         52.50	     7.937
  56.600         36.67	     6.633
  56.620         48.33	     7.616
  56.640         43.33	     7.211
  56.660         41.67	     7.071
  56.680         32.50	     6.245
  56.700         49.17	     7.681
  56.720         41.67	     7.071
  56.740         38.33	     6.782
  56.760         50.83	     7.810
  56.780         50.83	     7.810
  56.800         47.50	     7.550
  56.820         49.17	     7.681
  56.840         49.17	     7.681
  56.860         50.00	     7.746
  56.880         35.83	     6.557
  56.900         38.33	     6.782
  56.920         55.83	     8.185
  56.940         55.83	     8.185
  56.960         51.67	     7.874
  56.980         44.17	     7.280
  57.000         38.33	     6.782
  57.020         37.50	     6.708
  57.040         50.83	     7.810
  57.060         50.83	     7.810
  57.080         52.50	     7.937
  57.100         42.50	     7.141
  57.120         50.00	     7.746
  57.140         37.50	     6.708
  57.160         32.50	     6.245
  57.180         43.33	     7.211
  57.200         48.33	     7.616
  57.220         35.00	     6.481
  57.240         43.33	     7.211
  57.260         52.50	     7.937
  57.280         44.17	     7.280
  57.300         33.33	     6.325
  57.320         45.83	     7.416
  57.340         44.17	     7.280
  57.360         37.50	     6.708
  57.380         44.17	     7.280
  57.400         39.17	     6.856
  57.420         36.67	     6.633
  57.440         44.17	     7.280
  57.460         35.83	     6.557
  57.480         40.00	     6.928
  57.500         46.67	     7.483
  57.520         43.33	     7.211
  57.540         42.50	     7.141
  57.560         46.67	     7.483
  57.580         41.67	     7.071
  57.600         38.33	     6.782
  57.620         42.50	     7.141
  57.640         40.83	     7.000
  57.660         53.33	     8.000
  57.680         34.17	     6.403
  57.700         55.00	     8.124
  57.720         45.00	     7.348
  57.740         33.33	     6.325
  57.760         44.17	     7.280
  57.780         34.17	     6.403
  57.800         35.83	     6.557
  57.820         50.00	     7.746
  57.840         30.00	     6.000
  57.860         37.50	     6.708
  57.880         44.17	     7.280
  57.900         41.67	     7.071
  57.920         37.50	     6.708
  57.940         35.00	     6.481
  57.960         50.00	     7.746
  57.980         41.67	     7.071
  58.000         40.83	     7.000
  58.020         40.83	     7.000
  58.040         48.33	     7.616
  58.060         49.17	     7.681
  58.080         39.17	     6.856
  58.100         45.00	     7.348
  58.120         44.17	     7.280
  58.140         40.83	     7.000
  58.160         42.50	     7.141
  58.180         41.67	     7.071
  58.200         54.17	     8.062
  58.220         52.50	     7.937
  58.240         41.67	     7.071
  58.260         39.17	     6.856
  58.280         39.17	     6.856
  58.300         44.17	     7.280
  58.320         36.67	     6.633
  58.340         33.33	     6.325
  58.360         46.67	     7.483
  58.380         48.33	     7.616
  58.400         45.00	     7.348
  58.420         52.50	     7.937
  58.440         49.17	     7.681
  58.460         53.33	     8.000
  58.480         48.33	     7.616
  58.500         50.83	     7.810
  58.520         61.67	     8.602
  58.540         60.00	     8.485
  58.560         53.33	     8.000
  58.580         51.67	     7.874
  58.600         49.17	     7.681
  58.620         43.33	     7.211
  58.640         60.83	     8.544
  58.660         44.17	     7.280
  58.680         60.00	     8.485
  58.700         60.83	     8.544
  58.720         57.50	     8.307
  58.740         81.67	     9.899
  58.760         80.83	     9.849
  58.780         71.67	     9.274
  58.800         87.50	    10.247
  58.820         76.67	     9.592
  58.840         75.00	     9.487
  58.860         64.17	     8.775
  58.880         75.83	     9.539
  58.900         60.83	     8.544
  58.920         73.33	     9.381
  58.940         78.33	     9.695
  58.960         64.17	     8.775
  58.980         63.33	     8.718
  59.000         68.33	     9.055
  59.020         69.17	     9.110
  59.040         75.00	     9.487
  59.060         77.50	     9.644
  59.080         66.67	     8.944
  59.100         79.17	     9.747
  59.120         65.00	     8.832
  59.140         63.33	     8.718
  59.160         62.50	     8.660
  59.180         63.33	     8.718
  59.200         59.17	     8.426
  59.220         55.00	     8.124
  59.240         55.83	     8.185
  59.260         53.33	     8.000
  59.280         55.83	     8.185
  59.300         54.17	     8.062
  59.320         58.33	     8.367
  59.340         56.67	     8.246
  59.360         45.00	     7.348
  59.380         60.83	     8.544
  59.400         53.33	     8.000
  59.420         59.17	     8.426
  59.440         53.33	     8.000
  59.460         42.50	     7.141
  59.480         65.83	     8.888
  59.500         59.17	     8.426
  59.520         50.00	     7.746
  59.540         61.67	     8.602
  59.560         50.83	     7.810
  59.580         64.17	     8.775
  59.600         75.00	     9.487
  59.620         72.50	     9.327
  59.640         60.00	     8.485
  59.660         68.33	     9.055
  59.680         70.00	     9.165
  59.700         80.00	     9.798
  59.720         80.00	     9.798
  59.740         94.17	    10.630
  59.760        124.17	    12.207
  59.780        155.00	    13.638
  59.800        181.67	    14.765
  59.820        238.33	    16.912
  59.840        219.17	    16.217
  59.860        169.17	    14.248
  59.880        158.33	    13.784
  59.900        122.50	    12.124
  59.920        106.67	    11.314
  59.940        120.00	    12.000
  59.960        130.83	    12.530
  59.980        133.33	    12.649
  60.000        137.50	    12.845
  60.020        121.67	    12.083
  60.040        120.83	    12.042
  60.060         96.67	    10.770
  60.080         92.50	    10.536
  60.100         85.83	    10.149
  60.120         80.00	     9.798
  60.140         76.67	     9.592
  60.160         60.00	     8.485
  60.180         65.00	     8.832
  60.200         47.50	     7.550
  60.220         51.67	     7.874
  60.240         63.33	     8.718
  60.260         48.33	     7.616
  60.280         61.67	     8.602
  60.300         67.50	     9.000
  60.320         54.17	     8.062
  60.340         56.67	     8.246
  60.360         39.17	     6.856
  60.380         63.33	     8.718
  60.400         60.83	     8.544
  60.420         54.17	     8.062
  60.440         55.83	     8.185
  60.460         51.67	     7.874
  60.480         61.67	     8.602
  60.500         68.33	     9.055
  60.520         69.17	     9.110
  60.540         63.33	     8.718
  60.560         57.50	     8.307
  60.580         57.50	     8.307
  60.600         56.67	     8.246
  60.620         65.83	     8.888
  60.640         68.33	     9.055
  60.660         70.00	     9.165
  60.680         57.50	     8.307
  60.700         70.83	     9.220
  60.720         74.17	     9.434
  60.740         66.67	     8.944
  60.760         75.83	     9.539
  60.780         73.33	     9.381
  60.800         78.33	     9.695
  60.820         75.83	     9.539
  60.840         76.67	     9.592
  60.860         67.50	     9.000
  60.880         65.00	     8.832
  60.900         66.67	     8.944
  60.920         74.17	     9.434
  60.940         64.17	     8.775
  60.960         48.33	     7.616
  60.980         70.83	     9.220
  61.000         60.83	     8.544
  61.020         55.83	     8.185
  61.040         53.33	     8.000
  61.060         59.17	     8.426
  61.080         65.83	     8.888
  61.100         60.83	     8.544
  61.120         66.67	     8.944
  61.140         50.83	     7.810
  61.160         63.33	     8.718
  61.180         59.17	     8.426
  61.200         51.67	     7.874
  61.220         65.00	     8.832
  61.240         65.83	     8.888
  61.260         86.67	    10.198
  61.280         75.83	     9.539
  61.300         70.83	     9.220
  61.320         90.00	    10.392
  61.340         84.17	    10.050
  61.360         85.83	    10.149
  61.380         65.00	     8.832
  61.400         81.67	     9.899
  61.420         94.17	    10.630
  61.440         79.17	     9.747
  61.460         90.00	    10.392
  61.480         75.00	     9.487
  61.500         84.17	    10.050
  61.520         71.67	     9.274
  61.540         78.33	     9.695
  61.560         74.17	     9.434
  61.580         81.67	     9.899
  61.600         75.83	     9.539
  61.620         70.00	     9.165
  61.640         61.67	     8.602
  61.660         60.00	     8.485
  61.680         60.83	     8.544
  61.700         77.50	     9.644
  61.720         60.00	     8.485
  61.740         57.50	     8.307
  61.760         63.33	     8.718
  61.780         51.67	     7.874
  61.800         65.83	     8.888
  61.820         48.33	     7.616
  61.840         54.17	     8.062
  61.860         52.50	     7.937
  61.880         52.50	     7.937
  61.900         47.50	     7.550
  61.920         49.17	     7.681
  61.940         49.17	     7.681
  61.960         40.83	     7.000
  61.980         43.33	     7.211
  62.000         40.00	     6.928
  62.020         50.83	     7.810
  62.040         36.67	     6.633
  62.060         59.17	     8.426
  62.080         45.83	     7.416
  62.100         32.50	     6.245
  62.120         33.33	     6.325
  62.140         31.67	     6.164
  62.160         40.83	     7.000
  62.180         39.17	     6.856
  62.200         37.50	     6.708
  62.220         43.33	     7.211
  62.240         30.00	     6.000
  62.260         36.67	     6.633
  62.280         54.17	     8.062
  62.300         39.17	     6.856
  62.320         37.50	     6.708
  62.340         36.67	     6.633
  62.360         48.33	     7.616
  62.380         46.67	     7.483
  62.400         53.33	     8.000
  62.420         55.00	     8.124
  62.440         51.67	     7.874
  62.460         55.00	     8.124
  62.480         52.50	     7.937
  62.500         55.83	     8.185
  62.520         65.00	     8.832
  62.540         50.83	     7.810
  62.560         57.50	     8.307
  62.580         65.00	     8.832
  62.600         67.50	     9.000
  62.620         62.50	     8.660
  62.640         57.50	     8.307
  62.660         68.33	     9.055
  62.680         45.00	     7.348
  62.700         53.33	     8.000
  62.720         56.67	     8.246
  62.740         52.50	     7.937
  62.760         49.17	     7.681
  62.780         48.33	     7.616
  62.800         47.50	     7.550
  62.820         42.50	     7.141
  62.840         50.00	     7.746
  62.860         41.67	     7.071
  62.880         42.50	     7.141
  62.900         40.00	     6.928
  62.920         55.83	     8.185
  62.940         40.83	     7.000
  62.960         48.33	     7.616
  62.980         45.83	     7.416
  63.000         45.83	     7.416
  63.020         48.33	     7.616
  63.040         30.00	     6.000
  63.060         37.50	     6.708
  63.080         43.33	     7.211
  63.100         44.17	     7.280
  63.120         44.17	     7.280
  63.140         32.50	     6.245
  63.160         53.33	     8.000
  63.180         45.83	     7.416
  63.200         39.17	     6.856
  63.220         50.00	     7.746
  63.240         52.50	     7.937
  63.260         40.00	     6.928
  63.280         48.33	     7.616
  63.300         62.50	     8.660
  63.320         50.83	     7.810
  63.340         50.00	     7.746
  63.360         39.17	     6.856
  63.380         60.00	     8.485
  63.400         60.83	     8.544
  63.420         40.00	     6.928
  63.440         53.33	     8.000
  63.460         44.17	     7.280
  63.480         52.50	     7.937
  63.500         40.00	     6.928
  63.520         45.00	     7.348
  63.540         43.33	     7.211
  63.560         49.17	     7.681
  63.580         55.83	     8.185
  63.600         46.67	     7.483
  63.620         60.00	     8.485
  63.640         36.67	     6.633
  63.660         43.33	     7.211
  63.680         44.17	     7.280
  63.700         54.17	     8.062
  63.720         66.67	     8.944
  63.740         63.33	     8.718
  63.760         68.33	     9.055
  63.780         51.67	     7.874
  63.800         55.00	     8.124
  63.820         58.33	     8.367
  63.840         55.83	     8.185
  63.860         70.83	     9.220
  63.880         75.83	     9.539
  63.900         77.50	     9.644
  63.920         77.50	     9.644
  63.940         62.50	     8.660
  63.960         59.17	     8.426
  63.980         57.50	     8.307
  64.000         49.17	     7.681
  64.020         55.00	     8.124
  64.040         66.67	     8.944
  64.060         69.17	     9.110
  64.080         67.50	     9.000
  64.100         65.00	     8.832
  64.120         55.83	     8.185
  64.140         60.00	     8.485
  64.160         56.67	     8.246
  64.180         50.83	     7.810
  64.200         49.17	     7.681
  64.220         46.67	     7.483
  64.240         50.83	     7.810
  64.260         43.33	     7.211
  64.280         51.67	     7.874
  64.300         37.50	     6.708
  64.320         41.67	     7.071
  64.340         40.00	     6.928
  64.360         47.50	     7.550
  64.380         45.83	     7.416
  64.400         40.83	     7.000
  64.420         50.83	     7.810
  64.440         42.50	     7.141
  64.460         40.00	     6.928
  64.480         45.83	     7.416
  64.500         40.83	     7.000
  64.520         63.33	     8.718
  64.540         55.83	     8.185
  64.560         55.83	     8.185
  64.580         49.17	     7.681
  64.600         43.33	     7.211
  64.620         51.67	     7.874
  64.640         53.33	     8.000
  64.660         44.17	     7.280
  64.680         44.17	     7.280
  64.700         44.17	     7.280
  64.720         50.83	     7.810
  64.740         53.33	     8.000
  64.760         49.17	     7.681
  64.780         51.67	     7.874
  64.800         39.17	     6.856
  64.820         48.33	     7.616
  64.840         41.67	     7.071
  64.860         51.67	     7.874
  64.880         46.67	     7.483
  64.900         48.33	     7.616
  64.920         40.83	     7.000
  64.940         44.17	     7.280
  64.960         57.50	     8.307
  64.980         50.83	     7.810
  65.000         56.67	     8.246
