
Filename:
	C:\Program Files\Thermo Electron\WinXRD\Datafiles\F_HERMAN\FIEN\G14_A_BIS_RT.raw

File Created:
	January 30, 2020 - 11:40 AM

Specimen Id:
	G14 A RT

Specimen Name:
	

Specimen Description:
	

Comment:
Scan Type: 2Theta Scan
Start Angle: 3 deg.
Stop Angle: 65 deg.
Num Points: 3101
Step Size: 0.02 deg.
Scan Rate: 1.000000
Scan Mode: Continuous
Wavelength: 1.540562
\Kalpha1: 1.540562	\Kalpha2: 1.544390	\Kbeta: 1.392218

Optics:
		Detector:
			 Type: Fixed Slits
		Tube: 
			 Type: Fixed Slits


Datas:
 Pos [deg]       Rate [CPS]      ESD [-]

Range 1 ---> Iteration 1
   3.000        504.17	    24.597
   3.020        427.50	    22.650
   3.040        460.00	    23.495
   3.060        447.50	    23.173
   3.080        467.50	    23.685
   3.100        459.17	    23.473
   3.120        429.17	    22.694
   3.140        403.33	    22.000
   3.160        445.83	    23.130
   3.180        403.33	    22.000
   3.200        436.67	    22.891
   3.220        432.50	    22.782
   3.240        412.50	    22.249
   3.260        428.33	    22.672
   3.280        386.67	    21.541
   3.300        396.67	    21.817
   3.320        415.83	    22.338
   3.340        404.17	    22.023
   3.360        370.83	    21.095
   3.380        435.00	    22.847
   3.400        369.17	    21.048
   3.420        395.00	    21.772
   3.440        425.83	    22.605
   3.460        360.83	    20.809
   3.480        400.83	    21.932
   3.500        371.67	    21.119
   3.520        348.33	    20.445
   3.540        393.33	    21.726
   3.560        370.83	    21.095
   3.580        373.33	    21.166
   3.600        361.67	    20.833
   3.620        365.83	    20.952
   3.640        366.67	    20.976
   3.660        371.67	    21.119
   3.680        371.67	    21.119
   3.700        331.67	    19.950
   3.720        324.17	    19.723
   3.740        350.00	    20.494
   3.760        336.67	    20.100
   3.780        340.83	    20.224
   3.800        340.00	    20.199
   3.820        340.00	    20.199
   3.840        334.17	    20.025
   3.860        351.67	    20.543
   3.880        330.00	    19.900
   3.900        335.83	    20.075
   3.920        289.17	    18.628
   3.940        332.50	    19.975
   3.960        350.00	    20.494
   3.980        323.33	    19.698
   4.000        335.00	    20.050
   4.020        339.17	    20.174
   4.040        359.17	    20.761
   4.060        301.67	    19.026
   4.080        316.67	    19.494
   4.100        308.33	    19.235
   4.120        300.00	    18.974
   4.140        330.83	    19.925
   4.160        315.00	    19.442
   4.180        332.50	    19.975
   4.200        305.00	    19.131
   4.220        312.50	    19.365
   4.240        315.00	    19.442
   4.260        283.33	    18.439
   4.280        296.67	    18.868
   4.300        321.67	    19.647
   4.320        262.50	    17.748
   4.340        306.67	    19.183
   4.360        280.00	    18.330
   4.380        320.00	    19.596
   4.400        314.17	    19.416
   4.420        270.00	    18.000
   4.440        304.17	    19.105
   4.460        276.67	    18.221
   4.480        290.00	    18.655
   4.500        297.50	    18.894
   4.520        262.50	    17.748
   4.540        256.67	    17.550
   4.560        254.17	    17.464
   4.580        284.17	    18.466
   4.600        299.17	    18.947
   4.620        307.50	    19.209
   4.640        247.50	    17.234
   4.660        277.50	    18.248
   4.680        291.67	    18.708
   4.700        266.67	    17.889
   4.720        254.17	    17.464
   4.740        272.50	    18.083
   4.760        268.33	    17.944
   4.780        250.83	    17.349
   4.800        255.83	    17.521
   4.820        260.83	    17.692
   4.840        270.00	    18.000
   4.860        264.17	    17.804
   4.880        270.00	    18.000
   4.900        240.00	    16.971
   4.920        235.00	    16.793
   4.940        245.83	    17.176
   4.960        265.83	    17.861
   4.980        250.00	    17.321
   5.000        276.67	    18.221
   5.020        260.83	    17.692
   5.040        233.33	    16.733
   5.060        257.50	    17.578
   5.080        254.17	    17.464
   5.100        285.00	    18.493
   5.120        259.17	    17.635
   5.140        232.50	    16.703
   5.160        214.17	    16.031
   5.180        221.67	    16.310
   5.200        230.83	    16.643
   5.220        248.33	    17.263
   5.240        241.67	    17.029
   5.260        207.50	    15.780
   5.280        234.17	    16.763
   5.300        213.33	    16.000
   5.320        210.00	    15.875
   5.340        242.50	    17.059
   5.360        236.67	    16.852
   5.380        250.83	    17.349
   5.400        241.67	    17.029
   5.420        231.67	    16.673
   5.440        227.50	    16.523
   5.460        245.00	    17.146
   5.480        216.67	    16.125
   5.500        215.00	    16.062
   5.520        219.17	    16.217
   5.540        213.33	    16.000
   5.560        219.17	    16.217
   5.580        212.50	    15.969
   5.600        201.67	    15.556
   5.620        214.17	    16.031
   5.640        214.17	    16.031
   5.660        243.33	    17.088
   5.680        235.00	    16.793
   5.700        216.67	    16.125
   5.720        210.00	    15.875
   5.740        242.50	    17.059
   5.760        223.33	    16.371
   5.780        255.83	    17.521
   5.800        204.17	    15.652
   5.820        209.17	    15.843
   5.840        245.00	    17.146
   5.860        217.50	    16.155
   5.880        253.33	    17.436
   5.900        237.50	    16.882
   5.920        249.17	    17.292
   5.940        261.67	    17.720
   5.960        252.50	    17.407
   5.980        249.17	    17.292
   6.000        235.83	    16.823
   6.020        258.33	    17.607
   6.040        290.00	    18.655
   6.060        282.50	    18.412
   6.080        283.33	    18.439
   6.100        292.50	    18.735
   6.120        309.17	    19.261
   6.140        333.33	    20.000
   6.160        302.50	    19.053
   6.180        309.17	    19.261
   6.200        244.17	    17.117
   6.220        241.67	    17.029
   6.240        230.00	    16.613
   6.260        192.50	    15.199
   6.280        190.83	    15.133
   6.300        210.00	    15.875
   6.320        216.67	    16.125
   6.340        203.33	    15.620
   6.360        202.50	    15.588
   6.380        230.00	    16.613
   6.400        210.83	    15.906
   6.420        196.67	    15.362
   6.440        203.33	    15.620
   6.460        189.17	    15.067
   6.480        207.50	    15.780
   6.500        218.33	    16.186
   6.520        185.00	    14.900
   6.540        172.50	    14.387
   6.560        192.50	    15.199
   6.580        171.67	    14.353
   6.600        193.33	    15.232
   6.620        200.00	    15.492
   6.640        175.00	    14.491
   6.660        181.67	    14.765
   6.680        193.33	    15.232
   6.700        210.00	    15.875
   6.720        183.33	    14.832
   6.740        191.67	    15.166
   6.760        201.67	    15.556
   6.780        220.00	    16.248
   6.800        197.50	    15.395
   6.820        170.83	    14.318
   6.840        200.00	    15.492
   6.860        184.17	    14.866
   6.880        210.00	    15.875
   6.900        170.83	    14.318
   6.920        160.83	    13.892
   6.940        182.50	    14.799
   6.960        190.00	    15.100
   6.980        185.83	    14.933
   7.000        172.50	    14.387
   7.020        175.83	    14.526
   7.040        166.67	    14.142
   7.060        168.33	    14.213
   7.080        167.50	    14.177
   7.100        205.83	    15.716
   7.120        183.33	    14.832
   7.140        177.50	    14.595
   7.160        165.83	    14.107
   7.180        174.17	    14.457
   7.200        173.33	    14.422
   7.220        150.00	    13.416
   7.240        178.33	    14.629
   7.260        174.17	    14.457
   7.280        157.50	    13.748
   7.300        145.00	    13.191
   7.320        188.33	    15.033
   7.340        170.83	    14.318
   7.360        164.17	    14.036
   7.380        176.67	    14.560
   7.400        160.83	    13.892
   7.420        168.33	    14.213
   7.440        170.00	    14.283
   7.460        155.83	    13.675
   7.480        163.33	    14.000
   7.500        130.00	    12.490
   7.520        170.00	    14.283
   7.540        169.17	    14.248
   7.560        162.50	    13.964
   7.580        165.00	    14.071
   7.600        160.00	    13.856
   7.620        174.17	    14.457
   7.640        149.17	    13.379
   7.660        180.00	    14.697
   7.680        160.00	    13.856
   7.700        174.17	    14.457
   7.720        171.67	    14.353
   7.740        158.33	    13.784
   7.760        154.17	    13.601
   7.780        175.00	    14.491
   7.800        132.50	    12.610
   7.820        161.67	    13.928
   7.840        162.50	    13.964
   7.860        147.50	    13.304
   7.880        138.33	    12.884
   7.900        145.00	    13.191
   7.920        156.67	    13.711
   7.940        165.00	    14.071
   7.960        155.83	    13.675
   7.980        178.33	    14.629
   8.000        144.17	    13.153
   8.020        154.17	    13.601
   8.040        138.33	    12.884
   8.060        169.17	    14.248
   8.080        155.00	    13.638
   8.100        155.83	    13.675
   8.120        143.33	    13.115
   8.140        164.17	    14.036
   8.160        165.83	    14.107
   8.180        164.17	    14.036
   8.200        149.17	    13.379
   8.220        149.17	    13.379
   8.240        161.67	    13.928
   8.260        163.33	    14.000
   8.280        146.67	    13.266
   8.300        156.67	    13.711
   8.320        170.83	    14.318
   8.340        179.17	    14.663
   8.360        170.83	    14.318
   8.380        157.50	    13.748
   8.400        183.33	    14.832
   8.420        194.17	    15.264
   8.440        169.17	    14.248
   8.460        164.17	    14.036
   8.480        175.83	    14.526
   8.500        174.17	    14.457
   8.520        210.00	    15.875
   8.540        190.00	    15.100
   8.560        210.00	    15.875
   8.580        230.00	    16.613
   8.600        252.50	    17.407
   8.620        240.83	    17.000
   8.640        280.00	    18.330
   8.660        280.00	    18.330
   8.680        344.17	    20.322
   8.700        360.00	    20.785
   8.720        450.83	    23.259
   8.740        560.00	    25.923
   8.760        694.17	    28.862
   8.780        931.67	    33.437
   8.800        865.83	    32.234
   8.820        684.17	    28.653
   8.840        387.50	    21.564
   8.860        244.17	    17.117
   8.880        190.00	    15.100
   8.900        210.83	    15.906
   8.920        165.83	    14.107
   8.940        191.67	    15.166
   8.960        173.33	    14.422
   8.980        146.67	    13.266
   9.000        154.17	    13.601
   9.020        150.00	    13.416
   9.040        148.33	    13.342
   9.060        159.17	    13.820
   9.080        154.17	    13.601
   9.100        166.67	    14.142
   9.120        147.50	    13.304
   9.140        128.33	    12.410
   9.160        135.00	    12.728
   9.180        149.17	    13.379
   9.200        110.83	    11.533
   9.220        131.67	    12.570
   9.240        145.00	    13.191
   9.260        135.00	    12.728
   9.280        145.83	    13.229
   9.300        119.17	    11.958
   9.320        140.00	    12.961
   9.340        140.00	    12.961
   9.360        154.17	    13.601
   9.380        135.83	    12.767
   9.400        137.50	    12.845
   9.420        121.67	    12.083
   9.440        109.17	    11.446
   9.460        125.83	    12.288
   9.480        119.17	    11.958
   9.500        133.33	    12.649
   9.520        138.33	    12.884
   9.540        132.50	    12.610
   9.560        122.50	    12.124
   9.580        127.50	    12.369
   9.600        125.00	    12.247
   9.620        107.50	    11.358
   9.640        107.50	    11.358
   9.660        116.67	    11.832
   9.680        117.50	    11.874
   9.700        125.00	    12.247
   9.720        123.33	    12.166
   9.740        103.33	    11.136
   9.760        116.67	    11.832
   9.780         98.33	    10.863
   9.800        115.00	    11.747
   9.820        115.83	    11.790
   9.840        103.33	    11.136
   9.860         85.83	    10.149
   9.880        128.33	    12.410
   9.900        104.17	    11.180
   9.920        102.50	    11.091
   9.940        117.50	    11.874
   9.960        114.17	    11.705
   9.980         86.67	    10.198
  10.000        112.50	    11.619
  10.020        108.33	    11.402
  10.040        128.33	    12.410
  10.060        123.33	    12.166
  10.080        116.67	    11.832
  10.100        115.00	    11.747
  10.120        120.00	    12.000
  10.140        108.33	    11.402
  10.160        108.33	    11.402
  10.180        110.00	    11.489
  10.200        120.00	    12.000
  10.220        109.17	    11.446
  10.240        111.67	    11.576
  10.260        111.67	    11.576
  10.280         94.17	    10.630
  10.300         97.50	    10.817
  10.320        113.33	    11.662
  10.340        116.67	    11.832
  10.360        124.17	    12.207
  10.380        123.33	    12.166
  10.400        137.50	    12.845
  10.420        124.17	    12.207
  10.440        135.83	    12.767
  10.460        150.00	    13.416
  10.480        122.50	    12.124
  10.500        120.00	    12.000
  10.520         86.67	    10.198
  10.540        104.17	    11.180
  10.560         96.67	    10.770
  10.580         91.67	    10.488
  10.600        103.33	    11.136
  10.620        105.00	    11.225
  10.640         97.50	    10.817
  10.660        100.83	    11.000
  10.680         99.17	    10.909
  10.700         80.83	     9.849
  10.720         90.00	    10.392
  10.740         94.17	    10.630
  10.760        105.00	    11.225
  10.780         98.33	    10.863
  10.800        122.50	    12.124
  10.820        110.00	    11.489
  10.840        105.00	    11.225
  10.860        106.67	    11.314
  10.880        111.67	    11.576
  10.900        115.00	    11.747
  10.920        106.67	    11.314
  10.940        106.67	    11.314
  10.960        108.33	    11.402
  10.980         97.50	    10.817
  11.000        101.67	    11.045
  11.020        111.67	    11.576
  11.040         98.33	    10.863
  11.060         94.17	    10.630
  11.080        107.50	    11.358
  11.100         97.50	    10.817
  11.120         99.17	    10.909
  11.140         84.17	    10.050
  11.160         98.33	    10.863
  11.180         91.67	    10.488
  11.200        101.67	    11.045
  11.220        103.33	    11.136
  11.240        115.00	    11.747
  11.260         90.00	    10.392
  11.280         91.67	    10.488
  11.300        104.17	    11.180
  11.320         95.83	    10.724
  11.340         97.50	    10.817
  11.360         99.17	    10.909
  11.380         93.33	    10.583
  11.400         80.83	     9.849
  11.420        101.67	    11.045
  11.440         95.83	    10.724
  11.460        101.67	    11.045
  11.480        100.83	    11.000
  11.500         85.00	    10.100
  11.520         95.83	    10.724
  11.540         83.33	    10.000
  11.560         97.50	    10.817
  11.580         93.33	    10.583
  11.600         98.33	    10.863
  11.620         90.00	    10.392
  11.640         76.67	     9.592
  11.660        104.17	    11.180
  11.680         95.00	    10.677
  11.700         83.33	    10.000
  11.720         96.67	    10.770
  11.740         94.17	    10.630
  11.760         96.67	    10.770
  11.780         93.33	    10.583
  11.800         94.17	    10.630
  11.820        107.50	    11.358
  11.840         93.33	    10.583
  11.860        105.83	    11.269
  11.880        109.17	    11.446
  11.900        112.50	    11.619
  11.920         96.67	    10.770
  11.940        107.50	    11.358
  11.960        118.33	    11.916
  11.980        117.50	    11.874
  12.000        144.17	    13.153
  12.020        152.50	    13.528
  12.040        150.83	    13.454
  12.060        255.83	    17.521
  12.080        365.83	    20.952
  12.100        399.17	    21.886
  12.120        342.50	    20.273
  12.140        250.83	    17.349
  12.160        174.17	    14.457
  12.180        174.17	    14.457
  12.200        139.17	    12.923
  12.220        170.83	    14.318
  12.240        175.83	    14.526
  12.260        183.33	    14.832
  12.280        183.33	    14.832
  12.300        190.00	    15.100
  12.320        170.00	    14.283
  12.340        243.33	    17.088
  12.360        270.00	    18.000
  12.380        305.83	    19.157
  12.400        388.33	    21.587
  12.420        398.33	    21.863
  12.440        335.00	    20.050
  12.460        245.83	    17.176
  12.480        158.33	    13.784
  12.500        124.17	    12.207
  12.520        103.33	    11.136
  12.540        112.50	    11.619
  12.560        101.67	    11.045
  12.580        103.33	    11.136
  12.600        108.33	    11.402
  12.620        105.83	    11.269
  12.640         87.50	    10.247
  12.660         87.50	    10.247
  12.680         92.50	    10.536
  12.700         86.67	    10.198
  12.720         83.33	    10.000
  12.740         70.00	     9.165
  12.760         81.67	     9.899
  12.780        100.83	    11.000
  12.800         85.00	    10.100
  12.820        104.17	    11.180
  12.840         81.67	     9.899
  12.860         81.67	     9.899
  12.880         69.17	     9.110
  12.900         88.33	    10.296
  12.920         80.83	     9.849
  12.940         84.17	    10.050
  12.960         95.00	    10.677
  12.980         79.17	     9.747
  13.000         80.83	     9.849
  13.020         95.00	    10.677
  13.040         84.17	    10.050
  13.060         72.50	     9.327
  13.080         75.00	     9.487
  13.100         85.00	    10.100
  13.120         72.50	     9.327
  13.140         71.67	     9.274
  13.160         90.00	    10.392
  13.180         80.00	     9.798
  13.200         72.50	     9.327
  13.220         91.67	    10.488
  13.240         78.33	     9.695
  13.260         71.67	     9.274
  13.280         87.50	    10.247
  13.300         70.00	     9.165
  13.320         91.67	    10.488
  13.340         81.67	     9.899
  13.360         87.50	    10.247
  13.380         83.33	    10.000
  13.400         85.83	    10.149
  13.420         69.17	     9.110
  13.440         78.33	     9.695
  13.460         75.83	     9.539
  13.480         71.67	     9.274
  13.500         91.67	    10.488
  13.520         83.33	    10.000
  13.540         90.00	    10.392
  13.560         88.33	    10.296
  13.580         88.33	    10.296
  13.600         95.00	    10.677
  13.620         87.50	    10.247
  13.640         76.67	     9.592
  13.660         86.67	    10.198
  13.680         83.33	    10.000
  13.700         86.67	    10.198
  13.720         86.67	    10.198
  13.740         89.17	    10.344
  13.760        118.33	    11.916
  13.780        115.83	    11.790
  13.800         95.00	    10.677
  13.820         89.17	    10.344
  13.840         81.67	     9.899
  13.860         79.17	     9.747
  13.880         69.17	     9.110
  13.900         72.50	     9.327
  13.920         86.67	    10.198
  13.940         85.83	    10.149
  13.960         73.33	     9.381
  13.980         74.17	     9.434
  14.000         69.17	     9.110
  14.020         75.00	     9.487
  14.040         66.67	     8.944
  14.060         56.67	     8.246
  14.080         63.33	     8.718
  14.100         69.17	     9.110
  14.120         65.00	     8.832
  14.140         64.17	     8.775
  14.160         71.67	     9.274
  14.180         82.50	     9.950
  14.200         60.83	     8.544
  14.220         64.17	     8.775
  14.240         70.83	     9.220
  14.260         70.00	     9.165
  14.280         75.83	     9.539
  14.300         75.83	     9.539
  14.320         63.33	     8.718
  14.340         69.17	     9.110
  14.360         62.50	     8.660
  14.380         60.83	     8.544
  14.400         69.17	     9.110
  14.420         64.17	     8.775
  14.440         71.67	     9.274
  14.460         67.50	     9.000
  14.480         74.17	     9.434
  14.500         60.00	     8.485
  14.520         73.33	     9.381
  14.540         61.67	     8.602
  14.560         59.17	     8.426
  14.580         70.00	     9.165
  14.600         63.33	     8.718
  14.620         70.83	     9.220
  14.640         63.33	     8.718
  14.660         72.50	     9.327
  14.680         67.50	     9.000
  14.700         69.17	     9.110
  14.720         66.67	     8.944
  14.740         64.17	     8.775
  14.760         59.17	     8.426
  14.780         81.67	     9.899
  14.800         60.00	     8.485
  14.820         70.83	     9.220
  14.840         95.83	    10.724
  14.860         95.00	    10.677
  14.880         95.00	    10.677
  14.900         93.33	    10.583
  14.920         88.33	    10.296
  14.940         73.33	     9.381
  14.960         77.50	     9.644
  14.980         65.83	     8.888
  15.000         72.50	     9.327
  15.020         75.83	     9.539
  15.040         65.00	     8.832
  15.060         54.17	     8.062
  15.080         65.83	     8.888
  15.100         65.83	     8.888
  15.120         56.67	     8.246
  15.140         82.50	     9.950
  15.160         64.17	     8.775
  15.180         75.83	     9.539
  15.200         66.67	     8.944
  15.220         63.33	     8.718
  15.240         50.00	     7.746
  15.260         66.67	     8.944
  15.280         92.50	    10.536
  15.300         65.00	     8.832
  15.320         72.50	     9.327
  15.340         56.67	     8.246
  15.360         80.00	     9.798
  15.380         73.33	     9.381
  15.400         61.67	     8.602
  15.420         60.83	     8.544
  15.440         81.67	     9.899
  15.460         60.00	     8.485
  15.480         69.17	     9.110
  15.500         58.33	     8.367
  15.520         68.33	     9.055
  15.540         58.33	     8.367
  15.560         80.00	     9.798
  15.580         66.67	     8.944
  15.600         62.50	     8.660
  15.620         59.17	     8.426
  15.640         76.67	     9.592
  15.660         85.00	    10.100
  15.680         65.83	     8.888
  15.700         65.83	     8.888
  15.720         85.83	    10.149
  15.740         74.17	     9.434
  15.760         64.17	     8.775
  15.780         58.33	     8.367
  15.800         67.50	     9.000
  15.820         70.83	     9.220
  15.840         60.83	     8.544
  15.860         70.83	     9.220
  15.880         75.00	     9.487
  15.900         68.33	     9.055
  15.920         57.50	     8.307
  15.940         74.17	     9.434
  15.960         70.83	     9.220
  15.980         67.50	     9.000
  16.000         70.00	     9.165
  16.020         68.33	     9.055
  16.040         60.83	     8.544
  16.060         54.17	     8.062
  16.080         55.83	     8.185
  16.100         61.67	     8.602
  16.120         72.50	     9.327
  16.140         56.67	     8.246
  16.160         67.50	     9.000
  16.180         56.67	     8.246
  16.200         65.00	     8.832
  16.220         58.33	     8.367
  16.240         66.67	     8.944
  16.260         57.50	     8.307
  16.280         53.33	     8.000
  16.300         52.50	     7.937
  16.320         77.50	     9.644
  16.340         72.50	     9.327
  16.360         60.00	     8.485
  16.380         70.83	     9.220
  16.400         67.50	     9.000
  16.420         64.17	     8.775
  16.440         61.67	     8.602
  16.460         46.67	     7.483
  16.480         66.67	     8.944
  16.500         60.00	     8.485
  16.520         65.83	     8.888
  16.540         66.67	     8.944
  16.560         60.00	     8.485
  16.580         66.67	     8.944
  16.600         48.33	     7.616
  16.620         65.00	     8.832
  16.640         67.50	     9.000
  16.660         63.33	     8.718
  16.680         68.33	     9.055
  16.700         57.50	     8.307
  16.720         57.50	     8.307
  16.740         62.50	     8.660
  16.760         65.83	     8.888
  16.780         48.33	     7.616
  16.800         67.50	     9.000
  16.820         65.00	     8.832
  16.840         60.00	     8.485
  16.860         65.83	     8.888
  16.880         73.33	     9.381
  16.900         45.00	     7.348
  16.920         53.33	     8.000
  16.940         70.83	     9.220
  16.960         61.67	     8.602
  16.980         72.50	     9.327
  17.000         56.67	     8.246
  17.020         67.50	     9.000
  17.040         61.67	     8.602
  17.060         64.17	     8.775
  17.080         54.17	     8.062
  17.100         62.50	     8.660
  17.120         61.67	     8.602
  17.140         65.00	     8.832
  17.160         55.00	     8.124
  17.180         65.00	     8.832
  17.200         71.67	     9.274
  17.220         89.17	    10.344
  17.240         70.83	     9.220
  17.260         70.00	     9.165
  17.280         80.83	     9.849
  17.300         75.00	     9.487
  17.320         64.17	     8.775
  17.340         63.33	     8.718
  17.360         74.17	     9.434
  17.380         77.50	     9.644
  17.400         74.17	     9.434
  17.420         62.50	     8.660
  17.440         60.00	     8.485
  17.460         77.50	     9.644
  17.480         68.33	     9.055
  17.500         73.33	     9.381
  17.520         75.00	     9.487
  17.540         79.17	     9.747
  17.560         77.50	     9.644
  17.580         89.17	    10.344
  17.600         94.17	    10.630
  17.620        106.67	    11.314
  17.640        119.17	    11.958
  17.660        155.83	    13.675
  17.680        215.83	    16.093
  17.700        276.67	    18.221
  17.720        298.33	    18.921
  17.740        328.33	    19.849
  17.760        293.33	    18.762
  17.780        236.67	    16.852
  17.800        166.67	    14.142
  17.820        115.83	    11.790
  17.840         93.33	    10.583
  17.860         58.33	     8.367
  17.880         78.33	     9.695
  17.900         70.83	     9.220
  17.920         65.00	     8.832
  17.940         59.17	     8.426
  17.960         68.33	     9.055
  17.980         68.33	     9.055
  18.000         73.33	     9.381
  18.020         64.17	     8.775
  18.040         70.83	     9.220
  18.060         63.33	     8.718
  18.080         60.00	     8.485
  18.100         57.50	     8.307
  18.120         60.83	     8.544
  18.140         64.17	     8.775
  18.160         48.33	     7.616
  18.180         56.67	     8.246
  18.200         74.17	     9.434
  18.220         54.17	     8.062
  18.240         71.67	     9.274
  18.260         75.00	     9.487
  18.280         70.83	     9.220
  18.300         80.00	     9.798
  18.320         83.33	    10.000
  18.340         85.83	    10.149
  18.360         71.67	     9.274
  18.380         70.83	     9.220
  18.400         86.67	    10.198
  18.420         82.50	     9.950
  18.440         96.67	    10.770
  18.460        104.17	    11.180
  18.480         90.00	    10.392
  18.500         98.33	    10.863
  18.520         81.67	     9.899
  18.540         72.50	     9.327
  18.560         67.50	     9.000
  18.580         82.50	     9.950
  18.600        100.83	    11.000
  18.620        103.33	    11.136
  18.640        123.33	    12.166
  18.660        157.50	    13.748
  18.680        174.17	    14.457
  18.700        163.33	    14.000
  18.720        155.83	    13.675
  18.740        135.00	    12.728
  18.760        104.17	    11.180
  18.780         77.50	     9.644
  18.800         68.33	     9.055
  18.820         77.50	     9.644
  18.840         77.50	     9.644
  18.860         73.33	     9.381
  18.880         74.17	     9.434
  18.900         74.17	     9.434
  18.920         69.17	     9.110
  18.940         60.00	     8.485
  18.960         81.67	     9.899
  18.980         62.50	     8.660
  19.000         56.67	     8.246
  19.020         60.83	     8.544
  19.040         77.50	     9.644
  19.060         62.50	     8.660
  19.080         73.33	     9.381
  19.100         79.17	     9.747
  19.120         77.50	     9.644
  19.140         66.67	     8.944
  19.160         70.00	     9.165
  19.180         70.83	     9.220
  19.200         79.17	     9.747
  19.220         62.50	     8.660
  19.240         86.67	    10.198
  19.260         78.33	     9.695
  19.280         71.67	     9.274
  19.300         88.33	    10.296
  19.320         70.83	     9.220
  19.340         53.33	     8.000
  19.360         74.17	     9.434
  19.380         61.67	     8.602
  19.400         67.50	     9.000
  19.420         70.00	     9.165
  19.440         66.67	     8.944
  19.460         65.00	     8.832
  19.480         74.17	     9.434
  19.500         84.17	    10.050
  19.520         71.67	     9.274
  19.540         95.00	    10.677
  19.560         75.00	     9.487
  19.580        101.67	    11.045
  19.600         87.50	    10.247
  19.620         94.17	    10.630
  19.640         86.67	    10.198
  19.660        125.00	    12.247
  19.680         87.50	    10.247
  19.700        110.00	    11.489
  19.720        106.67	    11.314
  19.740        125.00	    12.247
  19.760        114.17	    11.705
  19.780        110.00	    11.489
  19.800        110.00	    11.489
  19.820         94.17	    10.630
  19.840         87.50	    10.247
  19.860         72.50	     9.327
  19.880         72.50	     9.327
  19.900         78.33	     9.695
  19.920         61.67	     8.602
  19.940         74.17	     9.434
  19.960         63.33	     8.718
  19.980         77.50	     9.644
  20.000         69.17	     9.110
  20.020         74.17	     9.434
  20.040         70.00	     9.165
  20.060         79.17	     9.747
  20.080         55.00	     8.124
  20.100         88.33	    10.296
  20.120         68.33	     9.055
  20.140         77.50	     9.644
  20.160         65.83	     8.888
  20.180         62.50	     8.660
  20.200         58.33	     8.367
  20.220         60.83	     8.544
  20.240         62.50	     8.660
  20.260         62.50	     8.660
  20.280         66.67	     8.944
  20.300         45.83	     7.416
  20.320         50.83	     7.810
  20.340         64.17	     8.775
  20.360         70.00	     9.165
  20.380         66.67	     8.944
  20.400         60.00	     8.485
  20.420         65.00	     8.832
  20.440         86.67	    10.198
  20.460         79.17	     9.747
  20.480         77.50	     9.644
  20.500         81.67	     9.899
  20.520         74.17	     9.434
  20.540         86.67	    10.198
  20.560         63.33	     8.718
  20.580         77.50	     9.644
  20.600         60.00	     8.485
  20.620         64.17	     8.775
  20.640         85.00	    10.100
  20.660         70.83	     9.220
  20.680        117.50	    11.874
  20.700        129.17	    12.450
  20.720        177.50	    14.595
  20.740        235.00	    16.793
  20.760        252.50	    17.407
  20.780        241.67	    17.029
  20.800        217.50	    16.155
  20.820        157.50	    13.748
  20.840        125.83	    12.288
  20.860         90.00	    10.392
  20.880        105.00	    11.225
  20.900         98.33	    10.863
  20.920        108.33	    11.402
  20.940        108.33	    11.402
  20.960         90.83	    10.440
  20.980         89.17	    10.344
  21.000         80.83	     9.849
  21.020         68.33	     9.055
  21.040         65.00	     8.832
  21.060         60.83	     8.544
  21.080         50.00	     7.746
  21.100         57.50	     8.307
  21.120         50.83	     7.810
  21.140         68.33	     9.055
  21.160         64.17	     8.775
  21.180         49.17	     7.681
  21.200         52.50	     7.937
  21.220         52.50	     7.937
  21.240         54.17	     8.062
  21.260         57.50	     8.307
  21.280         70.83	     9.220
  21.300         46.67	     7.483
  21.320         66.67	     8.944
  21.340         63.33	     8.718
  21.360         62.50	     8.660
  21.380         58.33	     8.367
  21.400         72.50	     9.327
  21.420         55.83	     8.185
  21.440         60.83	     8.544
  21.460         70.00	     9.165
  21.480         71.67	     9.274
  21.500         75.83	     9.539
  21.520         59.17	     8.426
  21.540         67.50	     9.000
  21.560         52.50	     7.937
  21.580         66.67	     8.944
  21.600         63.33	     8.718
  21.620         75.00	     9.487
  21.640         77.50	     9.644
  21.660         51.67	     7.874
  21.680         61.67	     8.602
  21.700         56.67	     8.246
  21.720         53.33	     8.000
  21.740         59.17	     8.426
  21.760         60.00	     8.485
  21.780         78.33	     9.695
  21.800         80.00	     9.798
  21.820         72.50	     9.327
  21.840         77.50	     9.644
  21.860        118.33	    11.916
  21.880        156.67	    13.711
  21.900        180.00	    14.697
  21.920        273.33	    18.111
  21.940        459.17	    23.473
  21.960        415.00	    22.316
  21.980        334.17	    20.025
  22.000        259.17	    17.635
  22.020        218.33	    16.186
  22.040        125.83	    12.288
  22.060        102.50	    11.091
  22.080         80.00	     9.798
  22.100         73.33	     9.381
  22.120         59.17	     8.426
  22.140         65.83	     8.888
  22.160         60.00	     8.485
  22.180         55.00	     8.124
  22.200         61.67	     8.602
  22.220         65.00	     8.832
  22.240         64.17	     8.775
  22.260         62.50	     8.660
  22.280         63.33	     8.718
  22.300         58.33	     8.367
  22.320         53.33	     8.000
  22.340         63.33	     8.718
  22.360         78.33	     9.695
  22.380         84.17	    10.050
  22.400         95.83	    10.724
  22.420         82.50	     9.950
  22.440         89.17	    10.344
  22.460         64.17	     8.775
  22.480         67.50	     9.000
  22.500         63.33	     8.718
  22.520         78.33	     9.695
  22.540         59.17	     8.426
  22.560         57.50	     8.307
  22.580         54.17	     8.062
  22.600         62.50	     8.660
  22.620         63.33	     8.718
  22.640         85.83	    10.149
  22.660         65.00	     8.832
  22.680         82.50	     9.950
  22.700         92.50	    10.536
  22.720         86.67	    10.198
  22.740         92.50	    10.536
  22.760        110.00	    11.489
  22.780        117.50	    11.874
  22.800        115.00	    11.747
  22.820        100.00	    10.954
  22.840         96.67	    10.770
  22.860         86.67	    10.198
  22.880         88.33	    10.296
  22.900        111.67	    11.576
  22.920         90.83	    10.440
  22.940         86.67	    10.198
  22.960         79.17	     9.747
  22.980         89.17	    10.344
  23.000         66.67	     8.944
  23.020         70.83	     9.220
  23.040         63.33	     8.718
  23.060         52.50	     7.937
  23.080         70.00	     9.165
  23.100         63.33	     8.718
  23.120         71.67	     9.274
  23.140         57.50	     8.307
  23.160         53.33	     8.000
  23.180         71.67	     9.274
  23.200         70.83	     9.220
  23.220         57.50	     8.307
  23.240         71.67	     9.274
  23.260         60.83	     8.544
  23.280         65.83	     8.888
  23.300         63.33	     8.718
  23.320         65.00	     8.832
  23.340         66.67	     8.944
  23.360         73.33	     9.381
  23.380         70.83	     9.220
  23.400        103.33	    11.136
  23.420        130.83	    12.530
  23.440        155.00	    13.638
  23.460        132.50	    12.610
  23.480        156.67	    13.711
  23.500        118.33	    11.916
  23.520        128.33	    12.410
  23.540         84.17	    10.050
  23.560         82.50	     9.950
  23.580         86.67	    10.198
  23.600         80.83	     9.849
  23.620         83.33	    10.000
  23.640         76.67	     9.592
  23.660         74.17	     9.434
  23.680        103.33	    11.136
  23.700         89.17	    10.344
  23.720        109.17	    11.446
  23.740         88.33	    10.296
  23.760         95.83	    10.724
  23.780         77.50	     9.644
  23.800         67.50	     9.000
  23.820         86.67	    10.198
  23.840         78.33	     9.695
  23.860         80.83	     9.849
  23.880         85.00	    10.100
  23.900         81.67	     9.899
  23.920         82.50	     9.950
  23.940         65.83	     8.888
  23.960         78.33	     9.695
  23.980         76.67	     9.592
  24.000         84.17	    10.050
  24.020         79.17	     9.747
  24.040         85.83	    10.149
  24.060         99.17	    10.909
  24.080         99.17	    10.909
  24.100        108.33	    11.402
  24.120        121.67	    12.083
  24.140        150.83	    13.454
  24.160        186.67	    14.967
  24.180        184.17	    14.866
  24.200        171.67	    14.353
  24.220        154.17	    13.601
  24.240        127.50	    12.369
  24.260        123.33	    12.166
  24.280        105.00	    11.225
  24.300         95.00	    10.677
  24.320         94.17	    10.630
  24.340         71.67	     9.274
  24.360         96.67	    10.770
  24.380         93.33	    10.583
  24.400         99.17	    10.909
  24.420        123.33	    12.166
  24.440        145.83	    13.229
  24.460        165.83	    14.107
  24.480        210.00	    15.875
  24.500        204.17	    15.652
  24.520        236.67	    16.852
  24.540        256.67	    17.550
  24.560        241.67	    17.029
  24.580        215.00	    16.062
  24.600        202.50	    15.588
  24.620        164.17	    14.036
  24.640        143.33	    13.115
  24.660        124.17	    12.207
  24.680        121.67	    12.083
  24.700        115.83	    11.790
  24.720        124.17	    12.207
  24.740        115.83	    11.790
  24.760        104.17	    11.180
  24.780        100.83	    11.000
  24.800        143.33	    13.115
  24.820        140.00	    12.961
  24.840        113.33	    11.662
  24.860        116.67	    11.832
  24.880        100.83	    11.000
  24.900        101.67	    11.045
  24.920        133.33	    12.649
  24.940        116.67	    11.832
  24.960        158.33	    13.784
  24.980        152.50	    13.528
  25.000        185.83	    14.933
  25.020        235.00	    16.793
  25.040        250.00	    17.321
  25.060        298.33	    18.921
  25.080        259.17	    17.635
  25.100        247.50	    17.234
  25.120        204.17	    15.652
  25.140        139.17	    12.923
  25.160        135.83	    12.767
  25.180        124.17	    12.207
  25.200        117.50	    11.874
  25.220        113.33	    11.662
  25.240        133.33	    12.649
  25.260        138.33	    12.884
  25.280        128.33	    12.410
  25.300        156.67	    13.711
  25.320        125.00	    12.247
  25.340        130.00	    12.490
  25.360        156.67	    13.711
  25.380        158.33	    13.784
  25.400        162.50	    13.964
  25.420        177.50	    14.595
  25.440        160.83	    13.892
  25.460        160.00	    13.856
  25.480        145.00	    13.191
  25.500        143.33	    13.115
  25.520        141.67	    13.038
  25.540        150.83	    13.454
  25.560        140.00	    12.961
  25.580        101.67	    11.045
  25.600        107.50	    11.358
  25.620         93.33	    10.583
  25.640         99.17	    10.909
  25.660         83.33	    10.000
  25.680         81.67	     9.899
  25.700         75.83	     9.539
  25.720         77.50	     9.644
  25.740         69.17	     9.110
  25.760         75.83	     9.539
  25.780         74.17	     9.434
  25.800         89.17	    10.344
  25.820         71.67	     9.274
  25.840         70.00	     9.165
  25.860         82.50	     9.950
  25.880         75.00	     9.487
  25.900         56.67	     8.246
  25.920         68.33	     9.055
  25.940         63.33	     8.718
  25.960         70.83	     9.220
  25.980         78.33	     9.695
  26.000         75.83	     9.539
  26.020         94.17	    10.630
  26.040         70.00	     9.165
  26.060         93.33	    10.583
  26.080         86.67	    10.198
  26.100        122.50	    12.124
  26.120         84.17	    10.050
  26.140         90.83	    10.440
  26.160        115.83	    11.790
  26.180        113.33	    11.662
  26.200        123.33	    12.166
  26.220        128.33	    12.410
  26.240        118.33	    11.916
  26.260        141.67	    13.038
  26.280        133.33	    12.649
  26.300        170.83	    14.318
  26.320        166.67	    14.142
  26.340        206.67	    15.748
  26.360        211.67	    15.937
  26.380        214.17	    16.031
  26.400        275.00	    18.166
  26.420        274.17	    18.138
  26.440        297.50	    18.894
  26.460        374.17	    21.190
  26.480        514.17	    24.839
  26.500        916.67	    33.166
  26.520       1516.67	    42.661
  26.540       1940.00	    48.249
  26.560       1548.33	    43.105
  26.580       1134.17	    36.892
  26.600       1160.00	    37.310
  26.620        941.67	    33.615
  26.640        613.33	    27.129
  26.660        395.83	    21.794
  26.680        403.33	    22.000
  26.700        475.00	    23.875
  26.720        540.00	    25.456
  26.740        608.33	    27.019
  26.760        715.83	    29.309
  26.780        699.17	    28.965
  26.800        740.00	    29.799
  26.820        623.33	    27.350
  26.840        468.33	    23.707
  26.860        405.83	    22.068
  26.880        337.50	    20.125
  26.900        254.17	    17.464
  26.920        191.67	    15.166
  26.940        167.50	    14.177
  26.960        237.50	    16.882
  26.980        256.67	    17.550
  27.000        203.33	    15.620
  27.020        172.50	    14.387
  27.040        156.67	    13.711
  27.060        153.33	    13.565
  27.080        133.33	    12.649
  27.100        100.83	    11.000
  27.120        110.00	    11.489
  27.140        104.17	    11.180
  27.160        105.83	    11.269
  27.180        106.67	    11.314
  27.200         90.83	    10.440
  27.220         83.33	    10.000
  27.240         95.00	    10.677
  27.260         90.83	    10.440
  27.280         68.33	     9.055
  27.300         78.33	     9.695
  27.320        108.33	    11.402
  27.340        100.83	    11.000
  27.360        128.33	    12.410
  27.380        144.17	    13.153
  27.400        145.00	    13.191
  27.420        147.50	    13.304
  27.440        129.17	    12.450
  27.460        127.50	    12.369
  27.480        111.67	    11.576
  27.500        113.33	    11.662
  27.520        107.50	    11.358
  27.540        114.17	    11.705
  27.560        110.83	    11.533
  27.580        144.17	    13.153
  27.600        219.17	    16.217
  27.620        234.17	    16.763
  27.640        248.33	    17.263
  27.660        215.83	    16.093
  27.680        224.17	    16.401
  27.700        236.67	    16.852
  27.720        265.00	    17.833
  27.740        277.50	    18.248
  27.760        321.67	    19.647
  27.780        391.67	    21.679
  27.800        607.50	    27.000
  27.820        781.67	    30.627
  27.840        735.00	    29.698
  27.860        455.83	    23.388
  27.880        461.67	    23.537
  27.900        463.33	    23.580
  27.920        288.33	    18.601
  27.940        203.33	    15.620
  27.960        164.17	    14.036
  27.980        152.50	    13.528
  28.000        140.00	    12.961
  28.020        170.00	    14.283
  28.040        164.17	    14.036
  28.060        130.00	    12.490
  28.080        132.50	    12.610
  28.100        150.00	    13.416
  28.120        166.67	    14.142
  28.140        169.17	    14.248
  28.160        171.67	    14.353
  28.180        150.00	    13.416
  28.200        149.17	    13.379
  28.220        145.00	    13.191
  28.240        132.50	    12.610
  28.260        102.50	    11.091
  28.280         84.17	    10.050
  28.300         84.17	    10.050
  28.320         94.17	    10.630
  28.340         74.17	     9.434
  28.360         67.50	     9.000
  28.380         77.50	     9.644
  28.400         85.00	    10.100
  28.420         98.33	    10.863
  28.440         94.17	    10.630
  28.460        102.50	    11.091
  28.480        104.17	    11.180
  28.500        125.83	    12.288
  28.520        136.67	    12.806
  28.540        132.50	    12.610
  28.560         98.33	    10.863
  28.580        100.00	    10.954
  28.600         89.17	    10.344
  28.620        101.67	    11.045
  28.640         90.83	    10.440
  28.660         95.00	    10.677
  28.680         67.50	     9.000
  28.700         65.83	     8.888
  28.720         89.17	    10.344
  28.740         79.17	     9.747
  28.760         69.17	     9.110
  28.780         55.83	     8.185
  28.800         70.00	     9.165
  28.820         63.33	     8.718
  28.840         63.33	     8.718
  28.860         52.50	     7.937
  28.880         57.50	     8.307
  28.900         60.00	     8.485
  28.920         61.67	     8.602
  28.940         68.33	     9.055
  28.960         54.17	     8.062
  28.980         58.33	     8.367
  29.000         57.50	     8.307
  29.020         46.67	     7.483
  29.040         63.33	     8.718
  29.060         61.67	     8.602
  29.080         54.17	     8.062
  29.100         57.50	     8.307
  29.120         63.33	     8.718
  29.140         51.67	     7.874
  29.160         60.00	     8.485
  29.180         52.50	     7.937
  29.200         53.33	     8.000
  29.220         58.33	     8.367
  29.240         53.33	     8.000
  29.260         59.17	     8.426
  29.280         49.17	     7.681
  29.300         48.33	     7.616
  29.320         61.67	     8.602
  29.340         54.17	     8.062
  29.360         48.33	     7.616
  29.380         57.50	     8.307
  29.400         53.33	     8.000
  29.420         64.17	     8.775
  29.440         58.33	     8.367
  29.460         63.33	     8.718
  29.480         50.83	     7.810
  29.500         54.17	     8.062
  29.520         63.33	     8.718
  29.540         70.00	     9.165
  29.560         54.17	     8.062
  29.580         75.00	     9.487
  29.600         74.17	     9.434
  29.620         64.17	     8.775
  29.640         90.00	    10.392
  29.660         92.50	    10.536
  29.680        150.83	    13.454
  29.700        142.50	    13.077
  29.720        149.17	    13.379
  29.740        189.17	    15.067
  29.760        266.67	    17.889
  29.780        260.83	    17.692
  29.800        177.50	    14.595
  29.820        182.50	    14.799
  29.840        179.17	    14.663
  29.860        165.00	    14.071
  29.880        139.17	    12.923
  29.900        101.67	    11.045
  29.920        104.17	    11.180
  29.940         90.00	    10.392
  29.960         97.50	    10.817
  29.980         90.00	    10.392
  30.000         94.17	    10.630
  30.020         85.00	    10.100
  30.040         98.33	    10.863
  30.060         95.83	    10.724
  30.080         97.50	    10.817
  30.100        115.83	    11.790
  30.120         90.00	    10.392
  30.140         92.50	    10.536
  30.160         85.00	    10.100
  30.180         95.83	    10.724
  30.200         80.00	     9.798
  30.220         85.83	    10.149
  30.240        103.33	    11.136
  30.260        105.00	    11.225
  30.280         97.50	    10.817
  30.300        117.50	    11.874
  30.320        126.67	    12.329
  30.340        100.83	    11.000
  30.360        125.00	    12.247
  30.380        148.33	    13.342
  30.400        129.17	    12.450
  30.420        102.50	    11.091
  30.440         92.50	    10.536
  30.460         98.33	    10.863
  30.480         81.67	     9.899
  30.500         78.33	     9.695
  30.520         77.50	     9.644
  30.540         84.17	    10.050
  30.560         67.50	     9.000
  30.580         70.00	     9.165
  30.600         75.00	     9.487
  30.620         69.17	     9.110
  30.640         85.83	    10.149
  30.660         84.17	    10.050
  30.680         73.33	     9.381
  30.700         97.50	    10.817
  30.720        112.50	    11.619
  30.740        115.83	    11.790
  30.760        130.00	    12.490
  30.780        110.83	    11.533
  30.800         99.17	    10.909
  30.820        115.00	    11.747
  30.840         95.00	    10.677
  30.860         74.17	     9.434
  30.880         76.67	     9.592
  30.900         62.50	     8.660
  30.920         61.67	     8.602
  30.940         70.83	     9.220
  30.960         73.33	     9.381
  30.980         82.50	     9.950
  31.000         85.00	    10.100
  31.020         91.67	    10.488
  31.040         85.00	    10.100
  31.060        102.50	    11.091
  31.080         99.17	    10.909
  31.100        125.83	    12.288
  31.120        134.17	    12.689
  31.140        142.50	    13.077
  31.160        132.50	    12.610
  31.180        127.50	    12.369
  31.200        130.83	    12.530
  31.220        120.83	    12.042
  31.240         96.67	    10.770
  31.260         98.33	    10.863
  31.280         88.33	    10.296
  31.300         85.83	    10.149
  31.320         74.17	     9.434
  31.340         78.33	     9.695
  31.360         77.50	     9.644
  31.380         84.17	    10.050
  31.400         71.67	     9.274
  31.420         84.17	    10.050
  31.440         81.67	     9.899
  31.460        103.33	    11.136
  31.480        121.67	    12.083
  31.500         83.33	    10.000
  31.520         95.00	    10.677
  31.540         82.50	     9.950
  31.560         75.83	     9.539
  31.580         75.83	     9.539
  31.600         70.83	     9.220
  31.620         50.83	     7.810
  31.640         50.83	     7.810
  31.660         55.00	     8.124
  31.680         59.17	     8.426
  31.700         60.00	     8.485
  31.720         62.50	     8.660
  31.740         77.50	     9.644
  31.760        110.83	    11.533
  31.780        111.67	    11.576
  31.800         95.00	    10.677
  31.820         89.17	    10.344
  31.840         85.83	    10.149
  31.860         82.50	     9.950
  31.880         76.67	     9.592
  31.900         88.33	    10.296
  31.920         94.17	    10.630
  31.940         85.83	    10.149
  31.960         92.50	    10.536
  31.980        107.50	    11.358
  32.000        102.50	    11.091
  32.020         96.67	    10.770
  32.040        100.83	    11.000
  32.060         79.17	     9.747
  32.080         74.17	     9.434
  32.100         62.50	     8.660
  32.120         80.83	     9.849
  32.140         66.67	     8.944
  32.160         73.33	     9.381
  32.180         72.50	     9.327
  32.200         65.83	     8.888
  32.220         78.33	     9.695
  32.240         55.83	     8.185
  32.260         60.83	     8.544
  32.280         54.17	     8.062
  32.300         45.83	     7.416
  32.320         56.67	     8.246
  32.340         47.50	     7.550
  32.360         50.83	     7.810
  32.380         43.33	     7.211
  32.400         52.50	     7.937
  32.420         56.67	     8.246
  32.440         45.83	     7.416
  32.460         50.00	     7.746
  32.480         43.33	     7.211
  32.500         43.33	     7.211
  32.520         57.50	     8.307
  32.540         41.67	     7.071
  32.560         51.67	     7.874
  32.580         50.83	     7.810
  32.600         46.67	     7.483
  32.620         45.83	     7.416
  32.640         41.67	     7.071
  32.660         42.50	     7.141
  32.680         46.67	     7.483
  32.700         51.67	     7.874
  32.720         50.00	     7.746
  32.740         35.83	     6.557
  32.760         44.17	     7.280
  32.780         58.33	     8.367
  32.800         46.67	     7.483
  32.820         55.83	     8.185
  32.840         65.83	     8.888
  32.860         63.33	     8.718
  32.880         63.33	     8.718
  32.900         70.83	     9.220
  32.920         71.67	     9.274
  32.940         65.00	     8.832
  32.960         70.00	     9.165
  32.980         75.83	     9.539
  33.000         70.83	     9.220
  33.020         55.83	     8.185
  33.040         65.83	     8.888
  33.060         42.50	     7.141
  33.080         45.00	     7.348
  33.100         56.67	     8.246
  33.120         48.33	     7.616
  33.140         36.67	     6.633
  33.160         45.00	     7.348
  33.180         39.17	     6.856
  33.200         55.83	     8.185
  33.220         58.33	     8.367
  33.240         54.17	     8.062
  33.260         45.00	     7.348
  33.280         50.83	     7.810
  33.300         52.50	     7.937
  33.320         54.17	     8.062
  33.340         50.83	     7.810
  33.360         67.50	     9.000
  33.380         58.33	     8.367
  33.400         67.50	     9.000
  33.420         74.17	     9.434
  33.440         70.83	     9.220
  33.460         54.17	     8.062
  33.480         57.50	     8.307
  33.500         49.17	     7.681
  33.520         42.50	     7.141
  33.540         51.67	     7.874
  33.560         34.17	     6.403
  33.580         52.50	     7.937
  33.600         49.17	     7.681
  33.620         63.33	     8.718
  33.640         58.33	     8.367
  33.660         65.00	     8.832
  33.680         64.17	     8.775
  33.700         63.33	     8.718
  33.720         62.50	     8.660
  33.740         64.17	     8.775
  33.760         61.67	     8.602
  33.780         75.00	     9.487
  33.800         60.83	     8.544
  33.820         73.33	     9.381
  33.840         76.67	     9.592
  33.860         81.67	     9.899
  33.880         77.50	     9.644
  33.900         81.67	     9.899
  33.920         61.67	     8.602
  33.940         73.33	     9.381
  33.960         65.83	     8.888
  33.980         90.83	    10.440
  34.000         70.00	     9.165
  34.020         70.83	     9.220
  34.040         71.67	     9.274
  34.060         67.50	     9.000
  34.080         66.67	     8.944
  34.100         60.83	     8.544
  34.120         65.83	     8.888
  34.140         51.67	     7.874
  34.160         53.33	     8.000
  34.180         63.33	     8.718
  34.200         65.83	     8.888
  34.220         55.00	     8.124
  34.240         66.67	     8.944
  34.260         85.83	    10.149
  34.280         85.83	    10.149
  34.300         80.83	     9.849
  34.320         80.83	     9.849
  34.340         92.50	    10.536
  34.360        103.33	    11.136
  34.380         97.50	    10.817
  34.400         98.33	    10.863
  34.420        103.33	    11.136
  34.440        105.83	    11.269
  34.460        106.67	    11.314
  34.480        122.50	    12.124
  34.500        130.83	    12.530
  34.520        102.50	    11.091
  34.540        113.33	    11.662
  34.560         87.50	    10.247
  34.580         98.33	    10.863
  34.600         98.33	    10.863
  34.620         98.33	    10.863
  34.640        101.67	    11.045
  34.660        102.50	    11.091
  34.680         98.33	    10.863
  34.700         95.00	    10.677
  34.720        114.17	    11.705
  34.740        100.00	    10.954
  34.760        135.00	    12.728
  34.780        144.17	    13.153
  34.800        118.33	    11.916
  34.820        163.33	    14.000
  34.840        142.50	    13.077
  34.860        159.17	    13.820
  34.880        132.50	    12.610
  34.900        155.00	    13.638
  34.920        147.50	    13.304
  34.940        153.33	    13.565
  34.960        145.00	    13.191
  34.980        139.17	    12.923
  35.000        105.00	    11.225
  35.020        116.67	    11.832
  35.040         98.33	    10.863
  35.060         95.00	    10.677
  35.080         90.83	    10.440
  35.100         75.00	     9.487
  35.120         98.33	    10.863
  35.140         86.67	    10.198
  35.160         85.83	    10.149
  35.180         96.67	    10.770
  35.200         95.00	    10.677
  35.220         92.50	    10.536
  35.240         88.33	    10.296
  35.260         90.83	    10.440
  35.280         99.17	    10.909
  35.300        121.67	    12.083
  35.320        114.17	    11.705
  35.340        118.33	    11.916
  35.360        147.50	    13.304
  35.380        171.67	    14.353
  35.400        190.00	    15.100
  35.420        266.67	    17.889
  35.440        273.33	    18.111
  35.460        238.33	    16.912
  35.480        234.17	    16.763
  35.500        198.33	    15.427
  35.520        227.50	    16.523
  35.540        200.00	    15.492
  35.560        152.50	    13.528
  35.580        111.67	    11.576
  35.600         97.50	    10.817
  35.620        100.83	    11.000
  35.640         78.33	     9.695
  35.660         79.17	     9.747
  35.680         69.17	     9.110
  35.700         90.00	    10.392
  35.720         77.50	     9.644
  35.740         79.17	     9.747
  35.760         72.50	     9.327
  35.780         67.50	     9.000
  35.800         68.33	     9.055
  35.820         76.67	     9.592
  35.840         63.33	     8.718
  35.860         78.33	     9.695
  35.880         83.33	    10.000
  35.900         90.83	    10.440
  35.920         75.00	     9.487
  35.940         92.50	    10.536
  35.960         90.00	    10.392
  35.980         85.00	    10.100
  36.000         94.17	    10.630
  36.020        106.67	    11.314
  36.040        109.17	    11.446
  36.060         99.17	    10.909
  36.080         77.50	     9.644
  36.100         63.33	     8.718
  36.120         74.17	     9.434
  36.140         60.00	     8.485
  36.160         59.17	     8.426
  36.180         62.50	     8.660
  36.200         66.67	     8.944
  36.220         55.83	     8.185
  36.240         60.00	     8.485
  36.260         70.00	     9.165
  36.280         72.50	     9.327
  36.300         79.17	     9.747
  36.320         66.67	     8.944
  36.340        109.17	    11.446
  36.360         90.83	    10.440
  36.380        112.50	    11.619
  36.400        112.50	    11.619
  36.420        157.50	    13.748
  36.440        192.50	    15.199
  36.460        183.33	    14.832
  36.480        149.17	    13.379
  36.500        129.17	    12.450
  36.520        141.67	    13.038
  36.540        139.17	    12.923
  36.560        132.50	    12.610
  36.580        115.83	    11.790
  36.600        117.50	    11.874
  36.620        128.33	    12.410
  36.640        111.67	    11.576
  36.660        118.33	    11.916
  36.680         97.50	    10.817
  36.700         91.67	    10.488
  36.720         83.33	    10.000
  36.740         71.67	     9.274
  36.760         83.33	    10.000
  36.780         74.17	     9.434
  36.800         65.83	     8.888
  36.820         59.17	     8.426
  36.840         63.33	     8.718
  36.860         80.00	     9.798
  36.880         59.17	     8.426
  36.900         50.00	     7.746
  36.920         67.50	     9.000
  36.940         51.67	     7.874
  36.960         65.00	     8.832
  36.980         57.50	     8.307
  37.000         62.50	     8.660
  37.020         55.00	     8.124
  37.040         45.00	     7.348
  37.060         65.83	     8.888
  37.080         50.83	     7.810
  37.100         55.00	     8.124
  37.120         70.00	     9.165
  37.140         65.83	     8.888
  37.160         64.17	     8.775
  37.180         61.67	     8.602
  37.200         80.00	     9.798
  37.220         49.17	     7.681
  37.240         56.67	     8.246
  37.260         79.17	     9.747
  37.280         68.33	     9.055
  37.300         80.00	     9.798
  37.320         85.00	    10.100
  37.340         92.50	    10.536
  37.360         73.33	     9.381
  37.380         84.17	    10.050
  37.400         65.83	     8.888
  37.420         78.33	     9.695
  37.440         80.83	     9.849
  37.460         82.50	     9.950
  37.480         75.00	     9.487
  37.500        103.33	    11.136
  37.520         96.67	    10.770
  37.540         90.00	    10.392
  37.560        110.83	    11.533
  37.580        108.33	    11.402
  37.600        105.83	    11.269
  37.620         89.17	    10.344
  37.640        100.00	    10.954
  37.660         89.17	    10.344
  37.680         69.17	     9.110
  37.700         72.50	     9.327
  37.720         70.00	     9.165
  37.740         61.67	     8.602
  37.760         66.67	     8.944
  37.780         63.33	     8.718
  37.800         54.17	     8.062
  37.820         53.33	     8.000
  37.840         37.50	     6.708
  37.860         48.33	     7.616
  37.880         52.50	     7.937
  37.900         38.33	     6.782
  37.920         40.00	     6.928
  37.940         44.17	     7.280
  37.960         36.67	     6.633
  37.980         43.33	     7.211
  38.000         43.33	     7.211
  38.020         36.67	     6.633
  38.040         38.33	     6.782
  38.060         43.33	     7.211
  38.080         39.17	     6.856
  38.100         48.33	     7.616
  38.120         43.33	     7.211
  38.140         35.83	     6.557
  38.160         31.67	     6.164
  38.180         41.67	     7.071
  38.200         35.00	     6.481
  38.220         40.83	     7.000
  38.240         31.67	     6.164
  38.260         50.00	     7.746
  38.280         30.00	     6.000
  38.300         46.67	     7.483
  38.320         36.67	     6.633
  38.340         49.17	     7.681
  38.360         44.17	     7.280
  38.380         57.50	     8.307
  38.400         44.17	     7.280
  38.420         47.50	     7.550
  38.440         47.50	     7.550
  38.460         57.50	     8.307
  38.480         59.17	     8.426
  38.500         48.33	     7.616
  38.520         51.67	     7.874
  38.540         50.00	     7.746
  38.560         62.50	     8.660
  38.580         50.00	     7.746
  38.600         44.17	     7.280
  38.620         50.83	     7.810
  38.640         60.00	     8.485
  38.660         58.33	     8.367
  38.680         65.00	     8.832
  38.700         52.50	     7.937
  38.720         63.33	     8.718
  38.740         56.67	     8.246
  38.760         50.00	     7.746
  38.780         45.83	     7.416
  38.800         61.67	     8.602
  38.820         51.67	     7.874
  38.840         46.67	     7.483
  38.860         60.00	     8.485
  38.880         60.00	     8.485
  38.900         55.00	     8.124
  38.920         55.00	     8.124
  38.940         47.50	     7.550
  38.960         42.50	     7.141
  38.980         28.33	     5.831
  39.000         54.17	     8.062
  39.020         48.33	     7.616
  39.040         44.17	     7.280
  39.060         46.67	     7.483
  39.080         57.50	     8.307
  39.100         49.17	     7.681
  39.120         34.17	     6.403
  39.140         49.17	     7.681
  39.160         39.17	     6.856
  39.180         49.17	     7.681
  39.200         45.83	     7.416
  39.220         45.83	     7.416
  39.240         32.50	     6.245
  39.260         60.00	     8.485
  39.280         55.83	     8.185
  39.300         79.17	     9.747
  39.320         90.00	    10.392
  39.340        121.67	    12.083
  39.360        145.00	    13.191
  39.380        130.00	    12.490
  39.400         92.50	    10.536
  39.420         85.00	    10.100
  39.440         94.17	    10.630
  39.460        112.50	    11.619
  39.480         96.67	    10.770
  39.500         86.67	    10.198
  39.520         81.67	     9.899
  39.540         78.33	     9.695
  39.560        184.17	    14.866
  39.580        255.83	    17.521
  39.600        245.83	    17.176
  39.620        114.17	    11.705
  39.640         82.50	     9.950
  39.660        109.17	    11.446
  39.680        142.50	    13.077
  39.700        169.17	    14.248
  39.720        106.67	    11.314
  39.740         60.83	     8.544
  39.760         53.33	     8.000
  39.780         65.83	     8.888
  39.800         60.00	     8.485
  39.820         67.50	     9.000
  39.840         48.33	     7.616
  39.860         52.50	     7.937
  39.880         66.67	     8.944
  39.900         55.00	     8.124
  39.920         66.67	     8.944
  39.940         58.33	     8.367
  39.960         54.17	     8.062
  39.980         70.83	     9.220
  40.000         64.17	     8.775
  40.020         60.00	     8.485
  40.040         57.50	     8.307
  40.060         49.17	     7.681
  40.080         50.00	     7.746
  40.100         62.50	     8.660
  40.120         65.00	     8.832
  40.140         72.50	     9.327
  40.160         89.17	    10.344
  40.180        125.00	    12.247
  40.200        115.83	    11.790
  40.220         84.17	    10.050
  40.240         81.67	     9.899
  40.260         71.67	     9.274
  40.280         83.33	    10.000
  40.300         91.67	    10.488
  40.320         75.00	     9.487
  40.340         51.67	     7.874
  40.360         49.17	     7.681
  40.380         60.00	     8.485
  40.400         64.17	     8.775
  40.420         46.67	     7.483
  40.440         50.00	     7.746
  40.460         47.50	     7.550
  40.480         54.17	     8.062
  40.500         43.33	     7.211
  40.520         42.50	     7.141
  40.540         40.83	     7.000
  40.560         50.83	     7.810
  40.580         57.50	     8.307
  40.600         42.50	     7.141
  40.620         54.17	     8.062
  40.640         51.67	     7.874
  40.660         51.67	     7.874
  40.680         50.00	     7.746
  40.700         43.33	     7.211
  40.720         60.00	     8.485
  40.740         55.00	     8.124
  40.760         51.67	     7.874
  40.780         50.00	     7.746
  40.800         50.83	     7.810
  40.820         70.83	     9.220
  40.840         49.17	     7.681
  40.860         56.67	     8.246
  40.880         43.33	     7.211
  40.900         54.17	     8.062
  40.920         55.00	     8.124
  40.940         57.50	     8.307
  40.960         51.67	     7.874
  40.980         35.83	     6.557
  41.000         54.17	     8.062
  41.020         52.50	     7.937
  41.040         60.00	     8.485
  41.060         50.00	     7.746
  41.080         51.67	     7.874
  41.100         63.33	     8.718
  41.120         53.33	     8.000
  41.140         95.00	    10.677
  41.160         58.33	     8.367
  41.180         55.83	     8.185
  41.200         74.17	     9.434
  41.220         73.33	     9.381
  41.240         57.50	     8.307
  41.260         51.67	     7.874
  41.280         62.50	     8.660
  41.300         64.17	     8.775
  41.320         45.83	     7.416
  41.340         52.50	     7.937
  41.360         56.67	     8.246
  41.380         48.33	     7.616
  41.400         62.50	     8.660
  41.420         54.17	     8.062
  41.440         68.33	     9.055
  41.460         50.00	     7.746
  41.480         73.33	     9.381
  41.500         80.00	     9.798
  41.520         73.33	     9.381
  41.540         66.67	     8.944
  41.560         79.17	     9.747
  41.580         85.00	    10.100
  41.600         78.33	     9.695
  41.620         92.50	    10.536
  41.640         72.50	     9.327
  41.660         70.00	     9.165
  41.680         62.50	     8.660
  41.700         72.50	     9.327
  41.720         82.50	     9.950
  41.740         63.33	     8.718
  41.760         73.33	     9.381
  41.780         70.00	     9.165
  41.800         68.33	     9.055
  41.820         84.17	    10.050
  41.840         88.33	    10.296
  41.860         84.17	    10.050
  41.880         81.67	     9.899
  41.900         71.67	     9.274
  41.920         76.67	     9.592
  41.940         65.83	     8.888
  41.960         79.17	     9.747
  41.980         65.83	     8.888
  42.000         74.17	     9.434
  42.020         71.67	     9.274
  42.040         60.00	     8.485
  42.060         73.33	     9.381
  42.080         70.00	     9.165
  42.100         67.50	     9.000
  42.120         76.67	     9.592
  42.140         77.50	     9.644
  42.160         72.50	     9.327
  42.180         82.50	     9.950
  42.200         79.17	     9.747
  42.220         77.50	     9.644
  42.240         85.83	    10.149
  42.260         92.50	    10.536
  42.280        103.33	    11.136
  42.300        104.17	    11.180
  42.320        137.50	    12.845
  42.340        139.17	    12.923
  42.360        152.50	    13.528
  42.380        124.17	    12.207
  42.400        121.67	    12.083
  42.420        105.83	    11.269
  42.440        121.67	    12.083
  42.460         95.83	    10.724
  42.480         95.83	    10.724
  42.500         78.33	     9.695
  42.520         68.33	     9.055
  42.540         44.17	     7.280
  42.560         72.50	     9.327
  42.580         65.00	     8.832
  42.600         60.83	     8.544
  42.620         60.00	     8.485
  42.640         50.83	     7.810
  42.660         57.50	     8.307
  42.680         53.33	     8.000
  42.700         45.83	     7.416
  42.720         58.33	     8.367
  42.740         53.33	     8.000
  42.760         63.33	     8.718
  42.780         70.00	     9.165
  42.800         70.83	     9.220
  42.820         55.00	     8.124
  42.840         80.00	     9.798
  42.860         65.00	     8.832
  42.880         75.83	     9.539
  42.900         56.67	     8.246
  42.920         68.33	     9.055
  42.940         72.50	     9.327
  42.960         75.00	     9.487
  42.980         74.17	     9.434
  43.000         49.17	     7.681
  43.020         65.83	     8.888
  43.040         66.67	     8.944
  43.060         62.50	     8.660
  43.080         70.00	     9.165
  43.100         60.00	     8.485
  43.120         68.33	     9.055
  43.140         64.17	     8.775
  43.160         71.67	     9.274
  43.180         56.67	     8.246
  43.200         57.50	     8.307
  43.220         72.50	     9.327
  43.240         65.00	     8.832
  43.260         78.33	     9.695
  43.280         75.00	     9.487
  43.300         59.17	     8.426
  43.320         89.17	    10.344
  43.340        104.17	    11.180
  43.360         92.50	    10.536
  43.380         95.83	    10.724
  43.400        105.83	    11.269
  43.420        133.33	    12.649
  43.440        125.00	    12.247
  43.460        125.00	    12.247
  43.480        105.00	    11.225
  43.500        122.50	    12.124
  43.520        120.00	    12.000
  43.540        114.17	    11.705
  43.560        133.33	    12.649
  43.580        108.33	    11.402
  43.600        127.50	    12.369
  43.620        117.50	    11.874
  43.640        112.50	    11.619
  43.660        122.50	    12.124
  43.680        121.67	    12.083
  43.700        120.83	    12.042
  43.720        114.17	    11.705
  43.740        112.50	    11.619
  43.760        115.00	    11.747
  43.780        110.83	    11.533
  43.800         96.67	    10.770
  43.820        110.83	    11.533
  43.840         87.50	    10.247
  43.860        105.00	    11.225
  43.880        103.33	    11.136
  43.900         97.50	    10.817
  43.920        105.83	    11.269
  43.940         99.17	    10.909
  43.960        117.50	    11.874
  43.980        120.00	    12.000
  44.000         88.33	    10.296
  44.020        110.83	    11.533
  44.040         96.67	    10.770
  44.060        116.67	    11.832
  44.080        120.00	    12.000
  44.100        120.00	    12.000
  44.120        133.33	    12.649
  44.140        148.33	    13.342
  44.160        157.50	    13.748
  44.180        160.00	    13.856
  44.200        172.50	    14.387
  44.220        197.50	    15.395
  44.240        190.00	    15.100
  44.260        226.67	    16.492
  44.280        212.50	    15.969
  44.300        207.50	    15.780
  44.320        249.17	    17.292
  44.340        250.83	    17.349
  44.360        260.00	    17.664
  44.380        258.33	    17.607
  44.400        266.67	    17.889
  44.420        286.67	    18.547
  44.440        249.17	    17.292
  44.460        269.17	    17.972
  44.480        250.83	    17.349
  44.500        239.17	    16.941
  44.520        247.50	    17.234
  44.540        231.67	    16.673
  44.560        230.00	    16.613
  44.580        224.17	    16.401
  44.600        204.17	    15.652
  44.620        218.33	    16.186
  44.640        205.00	    15.684
  44.660        176.67	    14.560
  44.680        172.50	    14.387
  44.700        172.50	    14.387
  44.720        148.33	    13.342
  44.740        175.00	    14.491
  44.760        163.33	    14.000
  44.780        186.67	    14.967
  44.800        161.67	    13.928
  44.820        186.67	    14.967
  44.840        191.67	    15.166
  44.860        159.17	    13.820
  44.880        183.33	    14.832
  44.900        148.33	    13.342
  44.920        133.33	    12.649
  44.940        125.00	    12.247
  44.960        131.67	    12.570
  44.980        140.83	    13.000
  45.000        107.50	    11.358
  45.020        112.50	    11.619
  45.040        100.83	    11.000
  45.060        113.33	    11.662
  45.080        100.83	    11.000
  45.100        101.67	    11.045
  45.120         90.00	    10.392
  45.140         99.17	    10.909
  45.160         93.33	    10.583
  45.180         93.33	    10.583
  45.200         75.00	     9.487
  45.220         96.67	    10.770
  45.240        115.00	    11.747
  45.260        115.83	    11.790
  45.280        104.17	    11.180
  45.300        134.17	    12.689
  45.320        138.33	    12.884
  45.340        156.67	    13.711
  45.360        185.83	    14.933
  45.380        215.00	    16.062
  45.400        229.17	    16.583
  45.420        200.00	    15.492
  45.440        230.00	    16.613
  45.460        227.50	    16.523
  45.480        251.67	    17.378
  45.500        264.17	    17.804
  45.520        302.50	    19.053
  45.540        235.83	    16.823
  45.560        202.50	    15.588
  45.580        179.17	    14.663
  45.600        180.00	    14.697
  45.620        175.00	    14.491
  45.640        175.00	    14.491
  45.660        185.83	    14.933
  45.680        166.67	    14.142
  45.700        141.67	    13.038
  45.720        119.17	    11.958
  45.740         99.17	    10.909
  45.760         90.00	    10.392
  45.780         87.50	    10.247
  45.800         83.33	    10.000
  45.820         89.17	    10.344
  45.840         71.67	     9.274
  45.860         65.00	     8.832
  45.880         65.83	     8.888
  45.900         66.67	     8.944
  45.920         65.83	     8.888
  45.940         70.83	     9.220
  45.960         55.00	     8.124
  45.980         64.17	     8.775
  46.000         60.00	     8.485
  46.020         57.50	     8.307
  46.040         75.83	     9.539
  46.060         77.50	     9.644
  46.080         51.67	     7.874
  46.100         58.33	     8.367
  46.120         51.67	     7.874
  46.140         51.67	     7.874
  46.160         45.83	     7.416
  46.180         36.67	     6.633
  46.200         60.83	     8.544
  46.220         55.83	     8.185
  46.240         33.33	     6.325
  46.260         50.00	     7.746
  46.280         45.83	     7.416
  46.300         44.17	     7.280
  46.320         41.67	     7.071
  46.340         65.83	     8.888
  46.360         42.50	     7.141
  46.380         57.50	     8.307
  46.400         52.50	     7.937
  46.420         60.83	     8.544
  46.440         49.17	     7.681
  46.460         63.33	     8.718
  46.480         47.50	     7.550
  46.500         60.00	     8.485
  46.520         48.33	     7.616
  46.540         45.83	     7.416
  46.560         34.17	     6.403
  46.580         52.50	     7.937
  46.600         35.83	     6.557
  46.620         50.83	     7.810
  46.640         35.83	     6.557
  46.660         33.33	     6.325
  46.680         44.17	     7.280
  46.700         38.33	     6.782
  46.720         43.33	     7.211
  46.740         47.50	     7.550
  46.760         54.17	     8.062
  46.780         45.83	     7.416
  46.800         34.17	     6.403
  46.820         45.00	     7.348
  46.840         50.00	     7.746
  46.860         45.83	     7.416
  46.880         40.83	     7.000
  46.900         45.83	     7.416
  46.920         51.67	     7.874
  46.940         40.83	     7.000
  46.960         46.67	     7.483
  46.980         56.67	     8.246
  47.000         60.83	     8.544
  47.020         45.83	     7.416
  47.040         47.50	     7.550
  47.060         46.67	     7.483
  47.080         55.83	     8.185
  47.100         53.33	     8.000
  47.120         50.00	     7.746
  47.140         50.00	     7.746
  47.160         37.50	     6.708
  47.180         52.50	     7.937
  47.200         49.17	     7.681
  47.220         43.33	     7.211
  47.240         37.50	     6.708
  47.260         43.33	     7.211
  47.280         35.83	     6.557
  47.300         35.00	     6.481
  47.320         39.17	     6.856
  47.340         51.67	     7.874
  47.360         51.67	     7.874
  47.380         31.67	     6.164
  47.400         30.83	     6.083
  47.420         41.67	     7.071
  47.440         38.33	     6.782
  47.460         42.50	     7.141
  47.480         37.50	     6.708
  47.500         38.33	     6.782
  47.520         35.83	     6.557
  47.540         27.50	     5.745
  47.560         32.50	     6.245
  47.580         36.67	     6.633
  47.600         33.33	     6.325
  47.620         42.50	     7.141
  47.640         28.33	     5.831
  47.660         36.67	     6.633
  47.680         31.67	     6.164
  47.700         38.33	     6.782
  47.720         36.67	     6.633
  47.740         30.83	     6.083
  47.760         39.17	     6.856
  47.780         45.00	     7.348
  47.800         51.67	     7.874
  47.820         34.17	     6.403
  47.840         39.17	     6.856
  47.860         55.00	     8.124
  47.880         53.33	     8.000
  47.900         53.33	     8.000
  47.920         45.83	     7.416
  47.940         46.67	     7.483
  47.960         47.50	     7.550
  47.980         50.00	     7.746
  48.000         55.00	     8.124
  48.020         63.33	     8.718
  48.040         68.33	     9.055
  48.060         81.67	     9.899
  48.080         61.67	     8.602
  48.100         58.33	     8.367
  48.120         61.67	     8.602
  48.140         60.83	     8.544
  48.160         72.50	     9.327
  48.180         62.50	     8.660
  48.200         57.50	     8.307
  48.220         66.67	     8.944
  48.240         59.17	     8.426
  48.260         42.50	     7.141
  48.280         45.00	     7.348
  48.300         40.83	     7.000
  48.320         45.00	     7.348
  48.340         54.17	     8.062
  48.360         41.67	     7.071
  48.380         38.33	     6.782
  48.400         52.50	     7.937
  48.420         45.00	     7.348
  48.440         51.67	     7.874
  48.460         43.33	     7.211
  48.480         57.50	     8.307
  48.500         40.00	     6.928
  48.520         48.33	     7.616
  48.540         40.83	     7.000
  48.560         49.17	     7.681
  48.580         52.50	     7.937
  48.600         43.33	     7.211
  48.620         47.50	     7.550
  48.640         49.17	     7.681
  48.660         43.33	     7.211
  48.680         55.00	     8.124
  48.700         38.33	     6.782
  48.720         34.17	     6.403
  48.740         44.17	     7.280
  48.760         47.50	     7.550
  48.780         47.50	     7.550
  48.800         50.00	     7.746
  48.820         52.50	     7.937
  48.840         45.00	     7.348
  48.860         41.67	     7.071
  48.880         39.17	     6.856
  48.900         43.33	     7.211
  48.920         51.67	     7.874
  48.940         46.67	     7.483
  48.960         37.50	     6.708
  48.980         41.67	     7.071
  49.000         39.17	     6.856
  49.020         37.50	     6.708
  49.040         42.50	     7.141
  49.060         47.50	     7.550
  49.080         62.50	     8.660
  49.100         79.17	     9.747
  49.120         86.67	    10.198
  49.140         64.17	     8.775
  49.160         55.00	     8.124
  49.180         50.00	     7.746
  49.200         55.83	     8.185
  49.220         60.83	     8.544
  49.240         77.50	     9.644
  49.260         62.50	     8.660
  49.280         57.50	     8.307
  49.300         48.33	     7.616
  49.320         36.67	     6.633
  49.340         38.33	     6.782
  49.360         31.67	     6.164
  49.380         51.67	     7.874
  49.400         54.17	     8.062
  49.420         65.83	     8.888
  49.440         54.17	     8.062
  49.460         64.17	     8.775
  49.480         68.33	     9.055
  49.500         69.17	     9.110
  49.520         49.17	     7.681
  49.540         68.33	     9.055
  49.560         71.67	     9.274
  49.580         68.33	     9.055
  49.600         67.50	     9.000
  49.620         84.17	    10.050
  49.640         64.17	     8.775
  49.660         75.83	     9.539
  49.680         70.00	     9.165
  49.700         62.50	     8.660
  49.720         80.00	     9.798
  49.740         69.17	     9.110
  49.760         56.67	     8.246
  49.780         69.17	     9.110
  49.800         91.67	    10.488
  49.820         70.00	     9.165
  49.840         84.17	    10.050
  49.860         82.50	     9.950
  49.880         73.33	     9.381
  49.900         80.83	     9.849
  49.920         90.83	    10.440
  49.940         93.33	    10.583
  49.960        138.33	    12.884
  49.980        143.33	    13.115
  50.000        200.00	    15.492
  50.020        307.50	    19.209
  50.040        343.33	    20.298
  50.060        270.00	    18.000
  50.080        197.50	    15.395
  50.100        112.50	    11.619
  50.120        128.33	    12.410
  50.140        155.83	    13.675
  50.160        183.33	    14.832
  50.180        201.67	    15.556
  50.200        150.00	    13.416
  50.220         99.17	    10.909
  50.240         85.83	    10.149
  50.260         74.17	     9.434
  50.280         47.50	     7.550
  50.300         64.17	     8.775
  50.320         65.00	     8.832
  50.340         62.50	     8.660
  50.360         59.17	     8.426
  50.380         52.50	     7.937
  50.400         75.00	     9.487
  50.420         65.00	     8.832
  50.440         74.17	     9.434
  50.460         77.50	     9.644
  50.480         94.17	    10.630
  50.500         87.50	    10.247
  50.520         77.50	     9.644
  50.540         79.17	     9.747
  50.560         78.33	     9.695
  50.580         89.17	    10.344
  50.600         75.00	     9.487
  50.620         85.00	    10.100
  50.640         71.67	     9.274
  50.660         71.67	     9.274
  50.680         60.83	     8.544
  50.700         60.00	     8.485
  50.720         49.17	     7.681
  50.740         55.00	     8.124
  50.760         40.83	     7.000
  50.780         50.00	     7.746
  50.800         50.00	     7.746
  50.820         49.17	     7.681
  50.840         46.67	     7.483
  50.860         46.67	     7.483
  50.880         57.50	     8.307
  50.900         50.00	     7.746
  50.920         51.67	     7.874
  50.940         44.17	     7.280
  50.960         48.33	     7.616
  50.980         60.83	     8.544
  51.000         77.50	     9.644
  51.020         61.67	     8.602
  51.040         85.00	    10.100
  51.060         71.67	     9.274
  51.080         52.50	     7.937
  51.100         58.33	     8.367
  51.120         60.83	     8.544
  51.140         61.67	     8.602
  51.160         54.17	     8.062
  51.180         61.67	     8.602
  51.200         64.17	     8.775
  51.220         72.50	     9.327
  51.240         42.50	     7.141
  51.260         50.00	     7.746
  51.280         47.50	     7.550
  51.300         45.83	     7.416
  51.320         43.33	     7.211
  51.340         42.50	     7.141
  51.360         35.00	     6.481
  51.380         45.00	     7.348
  51.400         46.67	     7.483
  51.420         45.83	     7.416
  51.440         39.17	     6.856
  51.460         40.00	     6.928
  51.480         41.67	     7.071
  51.500         44.17	     7.280
  51.520         31.67	     6.164
  51.540         41.67	     7.071
  51.560         36.67	     6.633
  51.580         35.83	     6.557
  51.600         37.50	     6.708
  51.620         40.83	     7.000
  51.640         41.67	     7.071
  51.660         31.67	     6.164
  51.680         47.50	     7.550
  51.700         41.67	     7.071
  51.720         36.67	     6.633
  51.740         30.83	     6.083
  51.760         39.17	     6.856
  51.780         36.67	     6.633
  51.800         37.50	     6.708
  51.820         38.33	     6.782
  51.840         42.50	     7.141
  51.860         39.17	     6.856
  51.880         25.83	     5.568
  51.900         34.17	     6.403
  51.920         33.33	     6.325
  51.940         37.50	     6.708
  51.960         44.17	     7.280
  51.980         52.50	     7.937
  52.000         65.00	     8.832
  52.020         79.17	     9.747
  52.040        135.00	    12.728
  52.060        150.83	    13.454
  52.080        117.50	    11.874
  52.100         56.67	     8.246
  52.120         58.33	     8.367
  52.140         50.83	     7.810
  52.160         60.83	     8.544
  52.180        104.17	    11.180
  52.200        100.83	    11.000
  52.220         89.17	    10.344
  52.240         65.83	     8.888
  52.260         44.17	     7.280
  52.280         51.67	     7.874
  52.300         40.83	     7.000
  52.320         40.83	     7.000
  52.340         51.67	     7.874
  52.360         48.33	     7.616
  52.380         59.17	     8.426
  52.400         53.33	     8.000
  52.420         48.33	     7.616
  52.440         60.00	     8.485
  52.460         43.33	     7.211
  52.480         48.33	     7.616
  52.500         54.17	     8.062
  52.520         42.50	     7.141
  52.540         50.83	     7.810
  52.560         46.67	     7.483
  52.580         42.50	     7.141
  52.600         40.83	     7.000
  52.620         41.67	     7.071
  52.640         48.33	     7.616
  52.660         40.00	     6.928
  52.680         50.00	     7.746
  52.700         33.33	     6.325
  52.720         45.00	     7.348
  52.740         43.33	     7.211
  52.760         55.00	     8.124
  52.780         53.33	     8.000
  52.800         69.17	     9.110
  52.820         60.83	     8.544
  52.840         58.33	     8.367
  52.860         48.33	     7.616
  52.880         50.00	     7.746
  52.900         55.83	     8.185
  52.920         45.83	     7.416
  52.940         55.00	     8.124
  52.960         57.50	     8.307
  52.980         55.00	     8.124
  53.000         46.67	     7.483
  53.020         60.83	     8.544
  53.040         63.33	     8.718
  53.060         75.00	     9.487
  53.080         53.33	     8.000
  53.100         53.33	     8.000
  53.120         66.67	     8.944
  53.140         60.83	     8.544
  53.160         57.50	     8.307
  53.180         59.17	     8.426
  53.200         57.50	     8.307
  53.220         65.00	     8.832
  53.240         40.83	     7.000
  53.260         53.33	     8.000
  53.280         47.50	     7.550
  53.300         39.17	     6.856
  53.320         43.33	     7.211
  53.340         40.83	     7.000
  53.360         40.83	     7.000
  53.380         41.67	     7.071
  53.400         43.33	     7.211
  53.420         30.83	     6.083
  53.440         33.33	     6.325
  53.460         46.67	     7.483
  53.480         44.17	     7.280
  53.500         40.00	     6.928
  53.520         37.50	     6.708
  53.540         45.83	     7.416
  53.560         36.67	     6.633
  53.580         34.17	     6.403
  53.600         41.67	     7.071
  53.620         52.50	     7.937
  53.640         40.83	     7.000
  53.660         45.00	     7.348
  53.680         51.67	     7.874
  53.700         46.67	     7.483
  53.720         39.17	     6.856
  53.740         47.50	     7.550
  53.760         37.50	     6.708
  53.780         50.00	     7.746
  53.800         50.00	     7.746
  53.820         33.33	     6.325
  53.840         37.50	     6.708
  53.860         46.67	     7.483
  53.880         38.33	     6.782
  53.900         43.33	     7.211
  53.920         43.33	     7.211
  53.940         35.83	     6.557
  53.960         32.50	     6.245
  53.980         37.50	     6.708
  54.000         51.67	     7.874
  54.020         46.67	     7.483
  54.040         40.83	     7.000
  54.060         35.83	     6.557
  54.080         46.67	     7.483
  54.100         41.67	     7.071
  54.120         47.50	     7.550
  54.140         47.50	     7.550
  54.160         49.17	     7.681
  54.180         50.83	     7.810
  54.200         55.00	     8.124
  54.220         40.83	     7.000
  54.240         50.00	     7.746
  54.260         53.33	     8.000
  54.280         53.33	     8.000
  54.300         55.83	     8.185
  54.320         56.67	     8.246
  54.340         61.67	     8.602
  54.360         49.17	     7.681
  54.380         44.17	     7.280
  54.400         50.00	     7.746
  54.420         46.67	     7.483
  54.440         56.67	     8.246
  54.460         58.33	     8.367
  54.480         58.33	     8.367
  54.500         55.83	     8.185
  54.520         49.17	     7.681
  54.540         54.17	     8.062
  54.560         48.33	     7.616
  54.580         55.00	     8.124
  54.600         57.50	     8.307
  54.620         59.17	     8.426
  54.640         51.67	     7.874
  54.660         56.67	     8.246
  54.680         63.33	     8.718
  54.700         57.50	     8.307
  54.720         85.00	    10.100
  54.740        100.00	    10.954
  54.760        128.33	    12.410
  54.780        130.00	    12.490
  54.800         94.17	    10.630
  54.820         87.50	    10.247
  54.840         66.67	     8.944
  54.860         73.33	     9.381
  54.880         67.50	     9.000
  54.900         93.33	    10.583
  54.920         91.67	    10.488
  54.940         82.50	     9.950
  54.960         66.67	     8.944
  54.980         57.50	     8.307
  55.000         64.17	     8.775
  55.020         71.67	     9.274
  55.040         51.67	     7.874
  55.060         63.33	     8.718
  55.080         59.17	     8.426
  55.100         71.67	     9.274
  55.120         59.17	     8.426
  55.140         61.67	     8.602
  55.160         70.00	     9.165
  55.180         80.83	     9.849
  55.200         76.67	     9.592
  55.220         69.17	     9.110
  55.240         70.83	     9.220
  55.260         69.17	     9.110
  55.280         65.00	     8.832
  55.300         51.67	     7.874
  55.320         65.00	     8.832
  55.340         60.00	     8.485
  55.360         59.17	     8.426
  55.380         65.00	     8.832
  55.400         67.50	     9.000
  55.420         54.17	     8.062
  55.440         52.50	     7.937
  55.460         47.50	     7.550
  55.480         57.50	     8.307
  55.500         47.50	     7.550
  55.520         68.33	     9.055
  55.540         65.83	     8.888
  55.560         71.67	     9.274
  55.580         80.83	     9.849
  55.600         74.17	     9.434
  55.620         87.50	    10.247
  55.640         69.17	     9.110
  55.660         99.17	    10.909
  55.680         91.67	    10.488
  55.700         91.67	    10.488
  55.720         92.50	    10.536
  55.740         96.67	    10.770
  55.760         75.00	     9.487
  55.780         98.33	    10.863
  55.800         80.83	     9.849
  55.820         86.67	    10.198
  55.840         71.67	     9.274
  55.860         80.00	     9.798
  55.880         80.00	     9.798
  55.900         63.33	     8.718
  55.920         64.17	     8.775
  55.940         60.00	     8.485
  55.960         60.83	     8.544
  55.980         45.83	     7.416
  56.000         41.67	     7.071
  56.020         54.17	     8.062
  56.040         43.33	     7.211
  56.060         45.00	     7.348
  56.080         41.67	     7.071
  56.100         43.33	     7.211
  56.120         35.00	     6.481
  56.140         47.50	     7.550
  56.160         51.67	     7.874
  56.180         42.50	     7.141
  56.200         52.50	     7.937
  56.220         48.33	     7.616
  56.240         40.00	     6.928
  56.260         32.50	     6.245
  56.280         41.67	     7.071
  56.300         40.00	     6.928
  56.320         56.67	     8.246
  56.340         51.67	     7.874
  56.360         44.17	     7.280
  56.380         40.83	     7.000
  56.400         40.83	     7.000
  56.420         33.33	     6.325
  56.440         37.50	     6.708
  56.460         40.00	     6.928
  56.480         35.00	     6.481
  56.500         45.83	     7.416
  56.520         38.33	     6.782
  56.540         35.00	     6.481
  56.560         42.50	     7.141
  56.580         42.50	     7.141
  56.600         45.00	     7.348
  56.620         40.00	     6.928
  56.640         53.33	     8.000
  56.660         50.83	     7.810
  56.680         43.33	     7.211
  56.700         42.50	     7.141
  56.720         38.33	     6.782
  56.740         45.83	     7.416
  56.760         46.67	     7.483
  56.780         54.17	     8.062
  56.800         40.00	     6.928
  56.820         58.33	     8.367
  56.840         50.83	     7.810
  56.860         54.17	     8.062
  56.880         46.67	     7.483
  56.900         42.50	     7.141
  56.920         43.33	     7.211
  56.940         40.83	     7.000
  56.960         31.67	     6.164
  56.980         52.50	     7.937
  57.000         43.33	     7.211
  57.020         41.67	     7.071
  57.040         52.50	     7.937
  57.060         39.17	     6.856
  57.080         45.83	     7.416
  57.100         32.50	     6.245
  57.120         49.17	     7.681
  57.140         53.33	     8.000
  57.160         37.50	     6.708
  57.180         41.67	     7.071
  57.200         36.67	     6.633
  57.220         40.83	     7.000
  57.240         38.33	     6.782
  57.260         43.33	     7.211
  57.280         25.83	     5.568
  57.300         45.00	     7.348
  57.320         36.67	     6.633
  57.340         36.67	     6.633
  57.360         35.00	     6.481
  57.380         35.83	     6.557
  57.400         41.67	     7.071
  57.420         43.33	     7.211
  57.440         43.33	     7.211
  57.460         36.67	     6.633
  57.480         39.17	     6.856
  57.500         41.67	     7.071
  57.520         56.67	     8.246
  57.540         47.50	     7.550
  57.560         36.67	     6.633
  57.580         46.67	     7.483
  57.600         41.67	     7.071
  57.620         42.50	     7.141
  57.640         35.83	     6.557
  57.660         35.83	     6.557
  57.680         39.17	     6.856
  57.700         40.83	     7.000
  57.720         48.33	     7.616
  57.740         44.17	     7.280
  57.760         35.00	     6.481
  57.780         41.67	     7.071
  57.800         39.17	     6.856
  57.820         34.17	     6.403
  57.840         40.00	     6.928
  57.860         41.67	     7.071
  57.880         39.17	     6.856
  57.900         27.50	     5.745
  57.920         34.17	     6.403
  57.940         36.67	     6.633
  57.960         33.33	     6.325
  57.980         39.17	     6.856
  58.000         32.50	     6.245
  58.020         46.67	     7.483
  58.040         43.33	     7.211
  58.060         49.17	     7.681
  58.080         45.83	     7.416
  58.100         47.50	     7.550
  58.120         33.33	     6.325
  58.140         40.00	     6.928
  58.160         35.00	     6.481
  58.180         55.83	     8.185
  58.200         33.33	     6.325
  58.220         47.50	     7.550
  58.240         55.00	     8.124
  58.260         35.83	     6.557
  58.280         46.67	     7.483
  58.300         41.67	     7.071
  58.320         43.33	     7.211
  58.340         47.50	     7.550
  58.360         43.33	     7.211
  58.380         35.83	     6.557
  58.400         39.17	     6.856
  58.420         49.17	     7.681
  58.440         52.50	     7.937
  58.460         50.00	     7.746
  58.480         46.67	     7.483
  58.500         56.67	     8.246
  58.520         50.00	     7.746
  58.540         50.00	     7.746
  58.560         60.00	     8.485
  58.580         56.67	     8.246
  58.600         45.83	     7.416
  58.620         56.67	     8.246
  58.640         60.00	     8.485
  58.660         65.83	     8.888
  58.680         65.83	     8.888
  58.700         62.50	     8.660
  58.720         55.00	     8.124
  58.740         47.50	     7.550
  58.760         50.00	     7.746
  58.780         55.83	     8.185
  58.800         68.33	     9.055
  58.820         51.67	     7.874
  58.840         49.17	     7.681
  58.860         60.00	     8.485
  58.880         58.33	     8.367
  58.900         46.67	     7.483
  58.920         48.33	     7.616
  58.940         57.50	     8.307
  58.960         59.17	     8.426
  58.980         57.50	     8.307
  59.000         69.17	     9.110
  59.020         69.17	     9.110
  59.040         74.17	     9.434
  59.060         50.83	     7.810
  59.080         58.33	     8.367
  59.100         67.50	     9.000
  59.120         55.83	     8.185
  59.140         58.33	     8.367
  59.160         55.83	     8.185
  59.180         59.17	     8.426
  59.200         54.17	     8.062
  59.220         63.33	     8.718
  59.240         64.17	     8.775
  59.260         57.50	     8.307
  59.280         45.00	     7.348
  59.300         50.00	     7.746
  59.320         47.50	     7.550
  59.340         52.50	     7.937
  59.360         47.50	     7.550
  59.380         50.83	     7.810
  59.400         59.17	     8.426
  59.420         54.17	     8.062
  59.440         65.00	     8.832
  59.460         52.50	     7.937
  59.480         52.50	     7.937
  59.500         45.83	     7.416
  59.520         64.17	     8.775
  59.540         50.83	     7.810
  59.560         49.17	     7.681
  59.580         40.00	     6.928
  59.600         57.50	     8.307
  59.620         54.17	     8.062
  59.640         58.33	     8.367
  59.660         62.50	     8.660
  59.680         62.50	     8.660
  59.700         67.50	     9.000
  59.720         85.00	    10.100
  59.740         98.33	    10.863
  59.760        107.50	    11.358
  59.780        115.83	    11.790
  59.800        149.17	    13.379
  59.820        212.50	    15.969
  59.840        256.67	    17.550
  59.860        297.50	    18.894
  59.880        271.67	    18.055
  59.900        198.33	    15.427
  59.920        164.17	    14.036
  59.940        139.17	    12.923
  59.960        123.33	    12.166
  59.980        128.33	    12.410
  60.000        168.33	    14.213
  60.020        180.00	    14.697
  60.040        158.33	    13.784
  60.060        124.17	    12.207
  60.080        115.83	    11.790
  60.100         85.83	    10.149
  60.120         75.83	     9.539
  60.140         61.67	     8.602
  60.160         58.33	     8.367
  60.180         72.50	     9.327
  60.200         68.33	     9.055
  60.220         62.50	     8.660
  60.240         85.00	    10.100
  60.260         59.17	     8.426
  60.280         54.17	     8.062
  60.300         59.17	     8.426
  60.320         58.33	     8.367
  60.340         56.67	     8.246
  60.360         62.50	     8.660
  60.380         71.67	     9.274
  60.400         40.83	     7.000
  60.420         63.33	     8.718
  60.440         57.50	     8.307
  60.460         55.00	     8.124
  60.480         52.50	     7.937
  60.500         59.17	     8.426
  60.520         50.00	     7.746
  60.540         65.83	     8.888
  60.560         75.83	     9.539
  60.580         60.00	     8.485
  60.600         65.00	     8.832
  60.620         82.50	     9.950
  60.640         76.67	     9.592
  60.660         75.00	     9.487
  60.680         65.83	     8.888
  60.700         72.50	     9.327
  60.720         61.67	     8.602
  60.740         75.83	     9.539
  60.760         75.83	     9.539
  60.780         69.17	     9.110
  60.800         65.00	     8.832
  60.820         59.17	     8.426
  60.840         56.67	     8.246
  60.860         65.00	     8.832
  60.880         76.67	     9.592
  60.900         51.67	     7.874
  60.920         60.83	     8.544
  60.940         70.83	     9.220
  60.960         63.33	     8.718
  60.980         58.33	     8.367
  61.000         55.00	     8.124
  61.020         48.33	     7.616
  61.040         59.17	     8.426
  61.060         45.00	     7.348
  61.080         43.33	     7.211
  61.100         59.17	     8.426
  61.120         66.67	     8.944
  61.140         53.33	     8.000
  61.160         59.17	     8.426
  61.180         55.83	     8.185
  61.200         57.50	     8.307
  61.220         52.50	     7.937
  61.240         71.67	     9.274
  61.260         67.50	     9.000
  61.280         66.67	     8.944
  61.300         75.00	     9.487
  61.320         83.33	    10.000
  61.340         79.17	     9.747
  61.360         67.50	     9.000
  61.380         95.00	    10.677
  61.400         83.33	    10.000
  61.420         85.00	    10.100
  61.440         70.00	     9.165
  61.460         96.67	    10.770
  61.480         81.67	     9.899
  61.500         86.67	    10.198
  61.520         77.50	     9.644
  61.540         84.17	    10.050
  61.560         61.67	     8.602
  61.580         66.67	     8.944
  61.600         80.00	     9.798
  61.620         75.83	     9.539
  61.640         75.00	     9.487
  61.660         68.33	     9.055
  61.680         67.50	     9.000
  61.700         70.83	     9.220
  61.720         60.83	     8.544
  61.740         63.33	     8.718
  61.760         70.00	     9.165
  61.780         69.17	     9.110
  61.800         63.33	     8.718
  61.820         67.50	     9.000
  61.840         54.17	     8.062
  61.860         65.83	     8.888
  61.880         52.50	     7.937
  61.900         56.67	     8.246
  61.920         58.33	     8.367
  61.940         55.83	     8.185
  61.960         58.33	     8.367
  61.980         59.17	     8.426
  62.000         57.50	     8.307
  62.020         49.17	     7.681
  62.040         57.50	     8.307
  62.060         60.83	     8.544
  62.080         50.83	     7.810
  62.100         51.67	     7.874
  62.120         48.33	     7.616
  62.140         51.67	     7.874
  62.160         54.17	     8.062
  62.180         43.33	     7.211
  62.200         60.00	     8.485
  62.220         40.00	     6.928
  62.240         39.17	     6.856
  62.260         45.00	     7.348
  62.280         43.33	     7.211
  62.300         44.17	     7.280
  62.320         40.83	     7.000
  62.340         40.83	     7.000
  62.360         45.00	     7.348
  62.380         46.67	     7.483
  62.400         31.67	     6.164
  62.420         52.50	     7.937
  62.440         35.00	     6.481
  62.460         46.67	     7.483
  62.480         46.67	     7.483
  62.500         45.83	     7.416
  62.520         40.83	     7.000
  62.540         40.00	     6.928
  62.560         43.33	     7.211
  62.580         41.67	     7.071
  62.600         56.67	     8.246
  62.620         39.17	     6.856
  62.640         41.67	     7.071
  62.660         40.83	     7.000
  62.680         49.17	     7.681
  62.700         44.17	     7.280
  62.720         56.67	     8.246
  62.740         34.17	     6.403
  62.760         44.17	     7.280
  62.780         50.00	     7.746
  62.800         46.67	     7.483
  62.820         43.33	     7.211
  62.840         46.67	     7.483
  62.860         51.67	     7.874
  62.880         43.33	     7.211
  62.900         40.83	     7.000
  62.920         45.83	     7.416
  62.940         37.50	     6.708
  62.960         40.83	     7.000
  62.980         35.00	     6.481
  63.000         39.17	     6.856
  63.020         45.83	     7.416
  63.040         39.17	     6.856
  63.060         34.17	     6.403
  63.080         43.33	     7.211
  63.100         47.50	     7.550
  63.120         55.83	     8.185
  63.140         45.83	     7.416
  63.160         42.50	     7.141
  63.180         53.33	     8.000
  63.200         40.00	     6.928
  63.220         37.50	     6.708
  63.240         43.33	     7.211
  63.260         46.67	     7.483
  63.280         30.00	     6.000
  63.300         59.17	     8.426
  63.320         49.17	     7.681
  63.340         47.50	     7.550
  63.360         56.67	     8.246
  63.380         57.50	     8.307
  63.400         44.17	     7.280
  63.420         60.83	     8.544
  63.440         50.00	     7.746
  63.460         47.50	     7.550
  63.480         45.83	     7.416
  63.500         43.33	     7.211
  63.520         51.67	     7.874
  63.540         46.67	     7.483
  63.560         49.17	     7.681
  63.580         53.33	     8.000
  63.600         60.00	     8.485
  63.620         59.17	     8.426
  63.640         43.33	     7.211
  63.660         54.17	     8.062
  63.680         50.00	     7.746
  63.700         42.50	     7.141
  63.720         56.67	     8.246
  63.740         53.33	     8.000
  63.760         57.50	     8.307
  63.780         70.83	     9.220
  63.800         65.83	     8.888
  63.820         58.33	     8.367
  63.840         56.67	     8.246
  63.860         58.33	     8.367
  63.880         70.83	     9.220
  63.900         76.67	     9.592
  63.920         90.83	    10.440
  63.940         80.00	     9.798
  63.960         76.67	     9.592
  63.980         70.00	     9.165
  64.000         70.00	     9.165
  64.020         64.17	     8.775
  64.040         67.50	     9.000
  64.060         64.17	     8.775
  64.080         64.17	     8.775
  64.100         80.83	     9.849
  64.120         71.67	     9.274
  64.140         70.00	     9.165
  64.160         77.50	     9.644
  64.180         62.50	     8.660
  64.200         56.67	     8.246
  64.220         57.50	     8.307
  64.240         45.83	     7.416
  64.260         51.67	     7.874
  64.280         41.67	     7.071
  64.300         57.50	     8.307
  64.320         42.50	     7.141
  64.340         43.33	     7.211
  64.360         45.83	     7.416
  64.380         46.67	     7.483
  64.400         43.33	     7.211
  64.420         34.17	     6.403
  64.440         43.33	     7.211
  64.460         47.50	     7.550
  64.480         40.00	     6.928
  64.500         55.00	     8.124
  64.520         53.33	     8.000
  64.540         45.00	     7.348
  64.560         41.67	     7.071
  64.580         63.33	     8.718
  64.600         40.00	     6.928
  64.620         51.67	     7.874
  64.640         70.00	     9.165
  64.660         54.17	     8.062
  64.680         70.00	     9.165
  64.700         65.00	     8.832
  64.720         66.67	     8.944
  64.740         66.67	     8.944
  64.760         48.33	     7.616
  64.780         62.50	     8.660
  64.800         75.00	     9.487
  64.820         67.50	     9.000
  64.840         79.17	     9.747
  64.860        100.83	    11.000
  64.880        108.33	    11.402
  64.900         78.33	     9.695
  64.920         65.00	     8.832
  64.940         79.17	     9.747
  64.960         57.50	     8.307
  64.980         73.33	     9.381
  65.000         72.50	     9.327
