
Filename:
	C:\Program Files\Thermo Electron\WinXRD\Datafiles\F_HERMAN\FIEN\G14A_FT.raw

File Created:
	October 02, 2019 - 04:00 PM

Specimen Id:
	G14 A FT

Specimen Name:
	

Specimen Description:
	

Comment:
Scan Type: 2Theta Scan
Start Angle: 1 deg.
Stop Angle: 65 deg.
Num Points: 3201
Step Size: 0.02 deg.
Scan Rate: 1.000000
Scan Mode: Continuous
Wavelength: 1.540562
\Kalpha1: 1.540562	\Kalpha2: 1.544390	\Kbeta: 1.392218

Optics:
		Detector:
			 Type: Fixed Slits
		Tube: 
			 Type: Fixed Slits


Datas:
 Pos [deg]       Rate [CPS]      ESD [-]

Range 1 ---> Iteration 1
   1.000          0.00	     0.000
   1.020          0.00	     0.000
   1.040          0.00	     0.000
   1.060          0.00	     0.000
   1.080          0.00	     0.000
   1.100          0.00	     0.000
   1.120        200.83	    15.524
   1.140        683.33	    28.636
   1.160        431.67	    22.760
   1.180        185.00	    14.900
   1.200        290.00	    18.655
   1.220        241.67	    17.029
   1.240        345.83	    20.372
   1.260        309.17	    19.261
   1.280        317.50	    19.519
   1.300        332.50	    19.975
   1.320        275.00	    18.166
   1.340        304.17	    19.105
   1.360        317.50	    19.519
   1.380        338.33	    20.149
   1.400        454.17	    23.345
   1.420        683.33	    28.636
   1.440        853.33	    32.000
   1.460       1225.00	    38.341
   1.480       1800.00	    46.476
   1.500       2266.67	    52.154
   1.520       2597.50	    55.830
   1.540       2580.00	    55.642
   1.560       2643.33	    56.321
   1.580       2543.33	    55.245
   1.600       2574.17	    55.579
   1.620       2400.83	    53.675
   1.640       2330.00	    52.877
   1.660       2293.33	    52.460
   1.680       2350.83	    53.113
   1.700       2310.83	    52.659
   1.720       2240.83	    51.856
   1.740       2245.83	    51.913
   1.760       2208.33	    51.478
   1.780       1986.67	    48.826
   1.800       2005.00	    49.051
   1.820       1808.33	    46.583
   1.840       1726.67	    45.519
   1.860       1495.83	    42.367
   1.880       1338.33	    40.075
   1.900       1216.67	    38.210
   1.920       1037.50	    35.285
   1.940        935.00	    33.496
   1.960        838.33	    31.718
   1.980        775.83	    30.512
   2.000        735.83	    29.715
   2.020        725.83	    29.513
   2.040        728.33	    29.563
   2.060        715.83	    29.309
   2.080        702.50	    29.034
   2.100        706.67	    29.120
   2.120        674.17	    28.443
   2.140        646.67	    27.857
   2.160        682.50	    28.618
   2.180        680.83	    28.583
   2.200        626.67	    27.423
   2.220        598.33	    26.796
   2.240        610.00	    27.055
   2.260        612.50	    27.111
   2.280        597.50	    26.777
   2.300        604.17	    26.926
   2.320        613.33	    27.129
   2.340        599.17	    26.814
   2.360        553.33	    25.768
   2.380        589.17	    26.589
   2.400        573.33	    26.230
   2.420        566.67	    26.077
   2.440        539.17	    25.436
   2.460        525.00	    25.100
   2.480        568.33	    26.115
   2.500        530.83	    25.239
   2.520        512.50	    24.799
   2.540        465.00	    23.622
   2.560        537.50	    25.397
   2.580        491.67	    24.290
   2.600        514.17	    24.839
   2.620        468.33	    23.707
   2.640        485.00	    24.125
   2.660        500.83	    24.515
   2.680        474.17	    23.854
   2.700        459.17	    23.473
   2.720        484.17	    24.104
   2.740        447.50	    23.173
   2.760        435.83	    22.869
   2.780        445.00	    23.108
   2.800        484.17	    24.104
   2.820        464.17	    23.601
   2.840        445.83	    23.130
   2.860        454.17	    23.345
   2.880        399.17	    21.886
   2.900        387.50	    21.564
   2.920        429.17	    22.694
   2.940        434.17	    22.825
   2.960        416.67	    22.361
   2.980        425.83	    22.605
   3.000        396.67	    21.817
   3.020        401.67	    21.954
   3.040        369.17	    21.048
   3.060        402.50	    21.977
   3.080        400.83	    21.932
   3.100        367.50	    21.000
   3.120        371.67	    21.119
   3.140        348.33	    20.445
   3.160        380.83	    21.378
   3.180        395.00	    21.772
   3.200        350.83	    20.518
   3.220        375.00	    21.213
   3.240        395.00	    21.772
   3.260        359.17	    20.761
   3.280        348.33	    20.445
   3.300        335.83	    20.075
   3.320        374.17	    21.190
   3.340        358.33	    20.736
   3.360        350.83	    20.518
   3.380        346.67	    20.396
   3.400        363.33	    20.881
   3.420        318.33	    19.545
   3.440        341.67	    20.248
   3.460        375.83	    21.237
   3.480        337.50	    20.125
   3.500        382.50	    21.424
   3.520        308.33	    19.235
   3.540        340.00	    20.199
   3.560        349.17	    20.469
   3.580        300.00	    18.974
   3.600        354.17	    20.616
   3.620        372.50	    21.142
   3.640        343.33	    20.298
   3.660        331.67	    19.950
   3.680        300.83	    19.000
   3.700        305.83	    19.157
   3.720        320.83	    19.621
   3.740        306.67	    19.183
   3.760        278.33	    18.276
   3.780        319.17	    19.570
   3.800        304.17	    19.105
   3.820        327.50	    19.824
   3.840        305.00	    19.131
   3.860        292.50	    18.735
   3.880        320.00	    19.596
   3.900        334.17	    20.025
   3.920        333.33	    20.000
   3.940        290.83	    18.682
   3.960        273.33	    18.111
   3.980        297.50	    18.894
   4.000        278.33	    18.276
   4.020        283.33	    18.439
   4.040        288.33	    18.601
   4.060        271.67	    18.055
   4.080        285.83	    18.520
   4.100        273.33	    18.111
   4.120        283.33	    18.439
   4.140        256.67	    17.550
   4.160        284.17	    18.466
   4.180        269.17	    17.972
   4.200        299.17	    18.947
   4.220        290.00	    18.655
   4.240        258.33	    17.607
   4.260        268.33	    17.944
   4.280        275.83	    18.193
   4.300        293.33	    18.762
   4.320        241.67	    17.029
   4.340        256.67	    17.550
   4.360        235.00	    16.793
   4.380        264.17	    17.804
   4.400        230.00	    16.613
   4.420        245.83	    17.176
   4.440        245.00	    17.146
   4.460        257.50	    17.578
   4.480        265.00	    17.833
   4.500        250.00	    17.321
   4.520        238.33	    16.912
   4.540        254.17	    17.464
   4.560        232.50	    16.703
   4.580        260.00	    17.664
   4.600        219.17	    16.217
   4.620        226.67	    16.492
   4.640        255.83	    17.521
   4.660        274.17	    18.138
   4.680        239.17	    16.941
   4.700        250.83	    17.349
   4.720        225.83	    16.462
   4.740        267.50	    17.916
   4.760        235.00	    16.793
   4.780        222.50	    16.340
   4.800        257.50	    17.578
   4.820        219.17	    16.217
   4.840        231.67	    16.673
   4.860        219.17	    16.217
   4.880        230.00	    16.613
   4.900        221.67	    16.310
   4.920        190.00	    15.100
   4.940        210.00	    15.875
   4.960        205.00	    15.684
   4.980        237.50	    16.882
   5.000        223.33	    16.371
   5.020        241.67	    17.029
   5.040        191.67	    15.166
   5.060        200.00	    15.492
   5.080        205.83	    15.716
   5.100        221.67	    16.310
   5.120        220.00	    16.248
   5.140        210.83	    15.906
   5.160        231.67	    16.673
   5.180        210.83	    15.906
   5.200        195.83	    15.330
   5.220        202.50	    15.588
   5.240        182.50	    14.799
   5.260        227.50	    16.523
   5.280        190.83	    15.133
   5.300        228.33	    16.553
   5.320        209.17	    15.843
   5.340        211.67	    15.937
   5.360        235.00	    16.793
   5.380        202.50	    15.588
   5.400        190.83	    15.133
   5.420        200.00	    15.492
   5.440        197.50	    15.395
   5.460        209.17	    15.843
   5.480        197.50	    15.395
   5.500        178.33	    14.629
   5.520        183.33	    14.832
   5.540        202.50	    15.588
   5.560        182.50	    14.799
   5.580        200.83	    15.524
   5.600        235.83	    16.823
   5.620        195.83	    15.330
   5.640        184.17	    14.866
   5.660        185.00	    14.900
   5.680        220.00	    16.248
   5.700        192.50	    15.199
   5.720        175.00	    14.491
   5.740        188.33	    15.033
   5.760        205.00	    15.684
   5.780        190.83	    15.133
   5.800        191.67	    15.166
   5.820        195.83	    15.330
   5.840        173.33	    14.422
   5.860        210.00	    15.875
   5.880        225.83	    16.462
   5.900        197.50	    15.395
   5.920        205.83	    15.716
   5.940        208.33	    15.811
   5.960        217.50	    16.155
   5.980        221.67	    16.310
   6.000        170.83	    14.318
   6.020        224.17	    16.401
   6.040        248.33	    17.263
   6.060        235.00	    16.793
   6.080        239.17	    16.941
   6.100        257.50	    17.578
   6.120        228.33	    16.553
   6.140        258.33	    17.607
   6.160        268.33	    17.944
   6.180        264.17	    17.804
   6.200        293.33	    18.762
   6.220        297.50	    18.894
   6.240        315.00	    19.442
   6.260        295.83	    18.841
   6.280        260.83	    17.692
   6.300        283.33	    18.439
   6.320        327.50	    19.824
   6.340        304.17	    19.105
   6.360        327.50	    19.824
   6.380        322.50	    19.672
   6.400        342.50	    20.273
   6.420        368.33	    21.024
   6.440        320.83	    19.621
   6.460        287.50	    18.574
   6.480        263.33	    17.776
   6.500        227.50	    16.523
   6.520        230.83	    16.643
   6.540        182.50	    14.799
   6.560        184.17	    14.866
   6.580        200.00	    15.492
   6.600        211.67	    15.937
   6.620        205.83	    15.716
   6.640        196.67	    15.362
   6.660        189.17	    15.067
   6.680        186.67	    14.967
   6.700        200.83	    15.524
   6.720        180.83	    14.731
   6.740        191.67	    15.166
   6.760        160.00	    13.856
   6.780        176.67	    14.560
   6.800        184.17	    14.866
   6.820        205.00	    15.684
   6.840        205.00	    15.684
   6.860        200.83	    15.524
   6.880        186.67	    14.967
   6.900        177.50	    14.595
   6.920        184.17	    14.866
   6.940        169.17	    14.248
   6.960        204.17	    15.652
   6.980        181.67	    14.765
   7.000        185.83	    14.933
   7.020        185.00	    14.900
   7.040        172.50	    14.387
   7.060        173.33	    14.422
   7.080        189.17	    15.067
   7.100        175.83	    14.526
   7.120        201.67	    15.556
   7.140        196.67	    15.362
   7.160        193.33	    15.232
   7.180        179.17	    14.663
   7.200        178.33	    14.629
   7.220        179.17	    14.663
   7.240        171.67	    14.353
   7.260        171.67	    14.353
   7.280        166.67	    14.142
   7.300        165.83	    14.107
   7.320        165.83	    14.107
   7.340        172.50	    14.387
   7.360        165.83	    14.107
   7.380        175.83	    14.526
   7.400        163.33	    14.000
   7.420        151.67	    13.491
   7.440        164.17	    14.036
   7.460        141.67	    13.038
   7.480        154.17	    13.601
   7.500        160.83	    13.892
   7.520        175.00	    14.491
   7.540        150.00	    13.416
   7.560        172.50	    14.387
   7.580        160.83	    13.892
   7.600        178.33	    14.629
   7.620        158.33	    13.784
   7.640        165.00	    14.071
   7.660        135.00	    12.728
   7.680        165.00	    14.071
   7.700        160.83	    13.892
   7.720        144.17	    13.153
   7.740        160.00	    13.856
   7.760        161.67	    13.928
   7.780        139.17	    12.923
   7.800        154.17	    13.601
   7.820        150.00	    13.416
   7.840        155.00	    13.638
   7.860        170.00	    14.283
   7.880        172.50	    14.387
   7.900        154.17	    13.601
   7.920        150.83	    13.454
   7.940        163.33	    14.000
   7.960        174.17	    14.457
   7.980        148.33	    13.342
   8.000        157.50	    13.748
   8.020        187.50	    15.000
   8.040        155.00	    13.638
   8.060        136.67	    12.806
   8.080        147.50	    13.304
   8.100        157.50	    13.748
   8.120        165.83	    14.107
   8.140        160.83	    13.892
   8.160        157.50	    13.748
   8.180        152.50	    13.528
   8.200        159.17	    13.820
   8.220        158.33	    13.784
   8.240        158.33	    13.784
   8.260        172.50	    14.387
   8.280        164.17	    14.036
   8.300        169.17	    14.248
   8.320        171.67	    14.353
   8.340        168.33	    14.213
   8.360        175.83	    14.526
   8.380        180.83	    14.731
   8.400        164.17	    14.036
   8.420        171.67	    14.353
   8.440        150.00	    13.416
   8.460        181.67	    14.765
   8.480        176.67	    14.560
   8.500        180.00	    14.697
   8.520        189.17	    15.067
   8.540        215.83	    16.093
   8.560        171.67	    14.353
   8.580        195.83	    15.330
   8.600        204.17	    15.652
   8.620        235.00	    16.793
   8.640        215.00	    16.062
   8.660        247.50	    17.234
   8.680        223.33	    16.371
   8.700        245.00	    17.146
   8.720        284.17	    18.466
   8.740        281.67	    18.385
   8.760        280.83	    18.358
   8.780        310.00	    19.287
   8.800        349.17	    20.469
   8.820        401.67	    21.954
   8.840        389.17	    21.610
   8.860        365.83	    20.952
   8.880        426.67	    22.627
   8.900        495.00	    24.372
   8.920        510.83	    24.759
   8.940        565.83	    26.058
   8.960        611.67	    27.092
   8.980        689.17	    28.758
   9.000        850.83	    31.953
   9.020        923.33	    33.287
   9.040        941.67	    33.615
   9.060        914.17	    33.121
   9.080        860.83	    32.140
   9.100        718.33	    29.360
   9.120        516.67	    24.900
   9.140        430.00	    22.716
   9.160        289.17	    18.628
   9.180        225.83	    16.462
   9.200        268.33	    17.944
   9.220        239.17	    16.941
   9.240        188.33	    15.033
   9.260        179.17	    14.663
   9.280        205.83	    15.716
   9.300        205.83	    15.716
   9.320        190.83	    15.133
   9.340        197.50	    15.395
   9.360        171.67	    14.353
   9.380        164.17	    14.036
   9.400        158.33	    13.784
   9.420        166.67	    14.142
   9.440        156.67	    13.711
   9.460        151.67	    13.491
   9.480        156.67	    13.711
   9.500        156.67	    13.711
   9.520        150.83	    13.454
   9.540        171.67	    14.353
   9.560        189.17	    15.067
   9.580        185.00	    14.900
   9.600        190.83	    15.133
   9.620        221.67	    16.310
   9.640        179.17	    14.663
   9.660        202.50	    15.588
   9.680        179.17	    14.663
   9.700        155.00	    13.638
   9.720        150.83	    13.454
   9.740        113.33	    11.662
   9.760        120.00	    12.000
   9.780        134.17	    12.689
   9.800        110.83	    11.533
   9.820        120.00	    12.000
   9.840        118.33	    11.916
   9.860        101.67	    11.045
   9.880        105.00	    11.225
   9.900        105.00	    11.225
   9.920        112.50	    11.619
   9.940         95.00	    10.677
   9.960        108.33	    11.402
   9.980        113.33	    11.662
  10.000        111.67	    11.576
  10.020         95.83	    10.724
  10.040        115.83	    11.790
  10.060         97.50	    10.817
  10.080        117.50	    11.874
  10.100        103.33	    11.136
  10.120        105.83	    11.269
  10.140         90.00	    10.392
  10.160        109.17	    11.446
  10.180         96.67	    10.770
  10.200        107.50	    11.358
  10.220        105.83	    11.269
  10.240         95.83	    10.724
  10.260         99.17	    10.909
  10.280         85.83	    10.149
  10.300        103.33	    11.136
  10.320        100.00	    10.954
  10.340        108.33	    11.402
  10.360         95.83	    10.724
  10.380         92.50	    10.536
  10.400        102.50	    11.091
  10.420        102.50	    11.091
  10.440         93.33	    10.583
  10.460        104.17	    11.180
  10.480         74.17	     9.434
  10.500         85.83	    10.149
  10.520        105.83	    11.269
  10.540        109.17	    11.446
  10.560        124.17	    12.207
  10.580        106.67	    11.314
  10.600        136.67	    12.806
  10.620        133.33	    12.649
  10.640        138.33	    12.884
  10.660        181.67	    14.765
  10.680        196.67	    15.362
  10.700        199.17	    15.460
  10.720        170.00	    14.283
  10.740        150.83	    13.454
  10.760        134.17	    12.689
  10.780        134.17	    12.689
  10.800        125.00	    12.247
  10.820        105.83	    11.269
  10.840         95.83	    10.724
  10.860         98.33	    10.863
  10.880        105.83	    11.269
  10.900        104.17	    11.180
  10.920         74.17	     9.434
  10.940        111.67	    11.576
  10.960        103.33	    11.136
  10.980         59.17	     8.426
  11.000        101.67	    11.045
  11.020         96.67	    10.770
  11.040         86.67	    10.198
  11.060         89.17	    10.344
  11.080         86.67	    10.198
  11.100         78.33	     9.695
  11.120         87.50	    10.247
  11.140         88.33	    10.296
  11.160         98.33	    10.863
  11.180         80.00	     9.798
  11.200         78.33	     9.695
  11.220         85.00	    10.100
  11.240         98.33	    10.863
  11.260         83.33	    10.000
  11.280         81.67	     9.899
  11.300         92.50	    10.536
  11.320         97.50	    10.817
  11.340         90.83	    10.440
  11.360         86.67	    10.198
  11.380         90.00	    10.392
  11.400         94.17	    10.630
  11.420         92.50	    10.536
  11.440         88.33	    10.296
  11.460         84.17	    10.050
  11.480         86.67	    10.198
  11.500         80.83	     9.849
  11.520         96.67	    10.770
  11.540         77.50	     9.644
  11.560         92.50	    10.536
  11.580         94.17	    10.630
  11.600         80.83	     9.849
  11.620         87.50	    10.247
  11.640         83.33	    10.000
  11.660         82.50	     9.950
  11.680         79.17	     9.747
  11.700        103.33	    11.136
  11.720        101.67	    11.045
  11.740         80.83	     9.849
  11.760        100.00	    10.954
  11.780         77.50	     9.644
  11.800         88.33	    10.296
  11.820         92.50	    10.536
  11.840         90.00	    10.392
  11.860        118.33	    11.916
  11.880        100.00	    10.954
  11.900        119.17	    11.958
  11.920         87.50	    10.247
  11.940         90.83	    10.440
  11.960        101.67	    11.045
  11.980         88.33	    10.296
  12.000         90.83	    10.440
  12.020        101.67	    11.045
  12.040        108.33	    11.402
  12.060        117.50	    11.874
  12.080        118.33	    11.916
  12.100        115.83	    11.790
  12.120        145.83	    13.229
  12.140        130.83	    12.530
  12.160        148.33	    13.342
  12.180        161.67	    13.928
  12.200        201.67	    15.556
  12.220        206.67	    15.748
  12.240        270.83	    18.028
  12.260        357.50	    20.712
  12.280        418.33	    22.405
  12.300        615.83	    27.185
  12.320        781.67	    30.627
  12.340       1011.67	    34.843
  12.360       1114.17	    36.565
  12.380       1120.00	    36.661
  12.400        955.00	    33.853
  12.420        780.83	    30.610
  12.440        630.83	    27.514
  12.460        535.00	    25.338
  12.480        438.33	    22.935
  12.500        432.50	    22.782
  12.520        446.67	    23.152
  12.540        477.50	    23.937
  12.560        472.50	    23.812
  12.580        505.83	    24.637
  12.600        614.17	    27.148
  12.620        666.67	    28.284
  12.640        783.33	    30.659
  12.660        786.67	    30.725
  12.680        835.00	    31.654
  12.700        750.83	    30.017
  12.720        612.50	    27.111
  12.740        452.50	    23.302
  12.760        290.83	    18.682
  12.780        241.67	    17.029
  12.800        180.83	    14.731
  12.820        174.17	    14.457
  12.840        151.67	    13.491
  12.860        118.33	    11.916
  12.880        113.33	    11.662
  12.900        118.33	    11.916
  12.920        104.17	    11.180
  12.940         99.17	    10.909
  12.960         99.17	    10.909
  12.980        104.17	    11.180
  13.000         84.17	    10.050
  13.020        107.50	    11.358
  13.040         85.00	    10.100
  13.060         81.67	     9.899
  13.080        104.17	    11.180
  13.100         71.67	     9.274
  13.120         88.33	    10.296
  13.140         83.33	    10.000
  13.160         80.00	     9.798
  13.180         78.33	     9.695
  13.200         86.67	    10.198
  13.220         68.33	     9.055
  13.240         75.00	     9.487
  13.260         78.33	     9.695
  13.280         70.00	     9.165
  13.300         75.00	     9.487
  13.320         57.50	     8.307
  13.340         70.00	     9.165
  13.360         80.83	     9.849
  13.380         69.17	     9.110
  13.400         64.17	     8.775
  13.420         85.00	    10.100
  13.440         83.33	    10.000
  13.460         82.50	     9.950
  13.480         70.83	     9.220
  13.500         78.33	     9.695
  13.520         70.83	     9.220
  13.540         70.83	     9.220
  13.560         79.17	     9.747
  13.580         77.50	     9.644
  13.600         68.33	     9.055
  13.620         68.33	     9.055
  13.640         70.00	     9.165
  13.660         74.17	     9.434
  13.680         73.33	     9.381
  13.700         69.17	     9.110
  13.720         91.67	    10.488
  13.740         77.50	     9.644
  13.760         67.50	     9.000
  13.780         75.00	     9.487
  13.800         77.50	     9.644
  13.820         61.67	     8.602
  13.840         66.67	     8.944
  13.860         81.67	     9.899
  13.880         70.00	     9.165
  13.900         98.33	    10.863
  13.920         83.33	    10.000
  13.940         85.00	    10.100
  13.960         85.83	    10.149
  13.980        111.67	    11.576
  14.000         96.67	    10.770
  14.020         97.50	    10.817
  14.040        113.33	    11.662
  14.060         95.83	    10.724
  14.080         78.33	     9.695
  14.100         90.83	    10.440
  14.120         63.33	     8.718
  14.140         76.67	     9.592
  14.160         95.83	    10.724
  14.180         80.00	     9.798
  14.200         61.67	     8.602
  14.220         64.17	     8.775
  14.240         70.00	     9.165
  14.260         64.17	     8.775
  14.280         70.83	     9.220
  14.300         60.00	     8.485
  14.320         75.00	     9.487
  14.340         65.83	     8.888
  14.360         67.50	     9.000
  14.380         68.33	     9.055
  14.400         63.33	     8.718
  14.420         58.33	     8.367
  14.440         60.83	     8.544
  14.460         69.17	     9.110
  14.480         38.33	     6.782
  14.500         65.83	     8.888
  14.520         70.83	     9.220
  14.540         59.17	     8.426
  14.560         70.83	     9.220
  14.580         50.83	     7.810
  14.600         50.83	     7.810
  14.620         57.50	     8.307
  14.640         48.33	     7.616
  14.660         55.00	     8.124
  14.680         58.33	     8.367
  14.700         52.50	     7.937
  14.720         65.00	     8.832
  14.740         52.50	     7.937
  14.760         66.67	     8.944
  14.780         62.50	     8.660
  14.800         58.33	     8.367
  14.820         60.00	     8.485
  14.840         53.33	     8.000
  14.860         55.83	     8.185
  14.880         50.00	     7.746
  14.900         37.50	     6.708
  14.920         38.33	     6.782
  14.940         55.00	     8.124
  14.960         47.50	     7.550
  14.980         60.83	     8.544
  15.000         49.17	     7.681
  15.020         48.33	     7.616
  15.040         50.83	     7.810
  15.060         55.00	     8.124
  15.080         59.17	     8.426
  15.100         59.17	     8.426
  15.120         75.83	     9.539
  15.140         70.83	     9.220
  15.160         69.17	     9.110
  15.180         64.17	     8.775
  15.200         79.17	     9.747
  15.220         63.33	     8.718
  15.240         64.17	     8.775
  15.260         70.83	     9.220
  15.280         59.17	     8.426
  15.300         65.00	     8.832
  15.320         46.67	     7.483
  15.340         50.83	     7.810
  15.360         59.17	     8.426
  15.380         55.00	     8.124
  15.400         47.50	     7.550
  15.420         53.33	     8.000
  15.440         50.00	     7.746
  15.460         57.50	     8.307
  15.480         51.67	     7.874
  15.500         46.67	     7.483
  15.520         55.00	     8.124
  15.540         47.50	     7.550
  15.560         51.67	     7.874
  15.580         58.33	     8.367
  15.600         44.17	     7.280
  15.620         59.17	     8.426
  15.640         45.83	     7.416
  15.660         51.67	     7.874
  15.680         50.83	     7.810
  15.700         46.67	     7.483
  15.720         65.00	     8.832
  15.740         38.33	     6.782
  15.760         39.17	     6.856
  15.780         44.17	     7.280
  15.800         48.33	     7.616
  15.820         48.33	     7.616
  15.840         44.17	     7.280
  15.860         46.67	     7.483
  15.880         51.67	     7.874
  15.900         64.17	     8.775
  15.920         44.17	     7.280
  15.940         52.50	     7.937
  15.960         55.83	     8.185
  15.980         65.83	     8.888
  16.000         55.00	     8.124
  16.020         48.33	     7.616
  16.040         57.50	     8.307
  16.060         55.00	     8.124
  16.080         48.33	     7.616
  16.100         56.67	     8.246
  16.120         52.50	     7.937
  16.140         44.17	     7.280
  16.160         53.33	     8.000
  16.180         47.50	     7.550
  16.200         55.83	     8.185
  16.220         64.17	     8.775
  16.240         54.17	     8.062
  16.260         55.00	     8.124
  16.280         55.00	     8.124
  16.300         55.00	     8.124
  16.320         55.00	     8.124
  16.340         47.50	     7.550
  16.360         44.17	     7.280
  16.380         50.00	     7.746
  16.400         57.50	     8.307
  16.420         50.83	     7.810
  16.440         50.00	     7.746
  16.460         43.33	     7.211
  16.480         55.00	     8.124
  16.500         64.17	     8.775
  16.520         37.50	     6.708
  16.540         41.67	     7.071
  16.560         46.67	     7.483
  16.580         52.50	     7.937
  16.600         46.67	     7.483
  16.620         53.33	     8.000
  16.640         48.33	     7.616
  16.660         44.17	     7.280
  16.680         50.83	     7.810
  16.700         40.83	     7.000
  16.720         47.50	     7.550
  16.740         44.17	     7.280
  16.760         43.33	     7.211
  16.780         38.33	     6.782
  16.800         54.17	     8.062
  16.820         54.17	     8.062
  16.840         42.50	     7.141
  16.860         54.17	     8.062
  16.880         49.17	     7.681
  16.900         45.00	     7.348
  16.920         57.50	     8.307
  16.940         54.17	     8.062
  16.960         45.00	     7.348
  16.980         44.17	     7.280
  17.000         64.17	     8.775
  17.020         45.00	     7.348
  17.040         54.17	     8.062
  17.060         43.33	     7.211
  17.080         56.67	     8.246
  17.100         62.50	     8.660
  17.120         64.17	     8.775
  17.140         34.17	     6.403
  17.160         42.50	     7.141
  17.180         65.00	     8.832
  17.200         51.67	     7.874
  17.220         50.83	     7.810
  17.240         58.33	     8.367
  17.260         54.17	     8.062
  17.280         57.50	     8.307
  17.300         42.50	     7.141
  17.320         48.33	     7.616
  17.340         54.17	     8.062
  17.360         58.33	     8.367
  17.380         56.67	     8.246
  17.400         64.17	     8.775
  17.420         56.67	     8.246
  17.440         44.17	     7.280
  17.460         62.50	     8.660
  17.480         53.33	     8.000
  17.500         60.00	     8.485
  17.520         64.17	     8.775
  17.540         49.17	     7.681
  17.560         60.00	     8.485
  17.580         49.17	     7.681
  17.600         67.50	     9.000
  17.620         55.83	     8.185
  17.640         60.83	     8.544
  17.660         53.33	     8.000
  17.680         66.67	     8.944
  17.700         65.00	     8.832
  17.720         81.67	     9.899
  17.740         62.50	     8.660
  17.760         87.50	    10.247
  17.780         97.50	    10.817
  17.800        107.50	    11.358
  17.820         99.17	    10.909
  17.840        127.50	    12.369
  17.860        148.33	    13.342
  17.880        191.67	    15.166
  17.900        252.50	    17.407
  17.920        306.67	    19.183
  17.940        347.50	    20.421
  17.960        445.83	    23.130
  17.980        479.17	    23.979
  18.000        481.67	    24.042
  18.020        440.83	    23.000
  18.040        320.83	    19.621
  18.060        266.67	    17.889
  18.080        181.67	    14.765
  18.100        146.67	    13.266
  18.120        136.67	    12.806
  18.140        110.00	    11.489
  18.160         85.83	    10.149
  18.180         90.00	    10.392
  18.200         86.67	    10.198
  18.220         75.00	     9.487
  18.240         75.83	     9.539
  18.260         73.33	     9.381
  18.280         61.67	     8.602
  18.300         79.17	     9.747
  18.320         68.33	     9.055
  18.340         61.67	     8.602
  18.360         81.67	     9.899
  18.380         70.00	     9.165
  18.400         67.50	     9.000
  18.420         62.50	     8.660
  18.440         76.67	     9.592
  18.460         59.17	     8.426
  18.480         81.67	     9.899
  18.500         75.00	     9.487
  18.520         85.00	    10.100
  18.540         82.50	     9.950
  18.560        103.33	    11.136
  18.580         94.17	    10.630
  18.600        102.50	    11.091
  18.620         90.00	    10.392
  18.640        100.83	    11.000
  18.660        122.50	    12.124
  18.680        103.33	    11.136
  18.700        138.33	    12.884
  18.720        148.33	    13.342
  18.740        152.50	    13.528
  18.760        164.17	    14.036
  18.780        152.50	    13.528
  18.800        140.83	    13.000
  18.820        140.83	    13.000
  18.840        141.67	    13.038
  18.860        169.17	    14.248
  18.880        195.83	    15.330
  18.900        271.67	    18.055
  18.920        307.50	    19.209
  18.940        357.50	    20.712
  18.960        374.17	    21.190
  18.980        381.67	    21.401
  19.000        355.00	    20.640
  19.020        270.00	    18.000
  19.040        195.83	    15.330
  19.060        155.00	    13.638
  19.080        121.67	    12.083
  19.100        116.67	    11.832
  19.120        117.50	    11.874
  19.140         97.50	    10.817
  19.160         80.00	     9.798
  19.180         83.33	    10.000
  19.200         77.50	     9.644
  19.220         70.83	     9.220
  19.240         63.33	     8.718
  19.260         76.67	     9.592
  19.280         66.67	     8.944
  19.300         76.67	     9.592
  19.320         73.33	     9.381
  19.340         74.17	     9.434
  19.360         77.50	     9.644
  19.380         79.17	     9.747
  19.400         71.67	     9.274
  19.420         71.67	     9.274
  19.440         76.67	     9.592
  19.460         70.83	     9.220
  19.480         81.67	     9.899
  19.500         77.50	     9.644
  19.520         73.33	     9.381
  19.540         74.17	     9.434
  19.560         59.17	     8.426
  19.580         72.50	     9.327
  19.600         82.50	     9.950
  19.620         56.67	     8.246
  19.640         59.17	     8.426
  19.660         74.17	     9.434
  19.680         70.83	     9.220
  19.700         58.33	     8.367
  19.720         75.00	     9.487
  19.740         73.33	     9.381
  19.760         70.00	     9.165
  19.780         84.17	    10.050
  19.800         70.00	     9.165
  19.820         77.50	     9.644
  19.840         85.00	    10.100
  19.860        105.00	    11.225
  19.880         89.17	    10.344
  19.900        105.83	    11.269
  19.920        108.33	    11.402
  19.940         96.67	    10.770
  19.960        108.33	    11.402
  19.980        106.67	    11.314
  20.000        105.83	    11.269
  20.020        130.00	    12.490
  20.040        114.17	    11.705
  20.060        117.50	    11.874
  20.080        110.00	    11.489
  20.100         95.00	    10.677
  20.120         80.00	     9.798
  20.140         72.50	     9.327
  20.160         82.50	     9.950
  20.180         69.17	     9.110
  20.200         63.33	     8.718
  20.220         80.83	     9.849
  20.240         45.00	     7.348
  20.260         59.17	     8.426
  20.280         71.67	     9.274
  20.300         54.17	     8.062
  20.320         72.50	     9.327
  20.340         73.33	     9.381
  20.360         57.50	     8.307
  20.380         66.67	     8.944
  20.400         61.67	     8.602
  20.420         75.83	     9.539
  20.440         53.33	     8.000
  20.460         70.00	     9.165
  20.480         58.33	     8.367
  20.500         62.50	     8.660
  20.520         50.83	     7.810
  20.540         58.33	     8.367
  20.560         48.33	     7.616
  20.580         60.83	     8.544
  20.600         57.50	     8.307
  20.620         50.83	     7.810
  20.640         56.67	     8.246
  20.660         65.83	     8.888
  20.680         57.50	     8.307
  20.700         60.83	     8.544
  20.720         66.67	     8.944
  20.740         60.83	     8.544
  20.760         53.33	     8.000
  20.780         59.17	     8.426
  20.800         59.17	     8.426
  20.820         69.17	     9.110
  20.840         63.33	     8.718
  20.860         83.33	    10.000
  20.880         80.83	     9.849
  20.900         69.17	     9.110
  20.920         90.83	    10.440
  20.940        126.67	    12.329
  20.960        147.50	    13.304
  20.980        230.83	    16.643
  21.000        327.50	    19.824
  21.020        331.67	    19.950
  21.040        335.00	    20.050
  21.060        305.00	    19.131
  21.080        248.33	    17.263
  21.100        185.83	    14.933
  21.120        158.33	    13.784
  21.140        130.00	    12.490
  21.160        135.00	    12.728
  21.180        117.50	    11.874
  21.200        150.00	    13.416
  21.220        119.17	    11.958
  21.240         92.50	    10.536
  21.260         87.50	    10.247
  21.280        100.00	    10.954
  21.300         64.17	     8.775
  21.320         70.00	     9.165
  21.340         67.50	     9.000
  21.360         68.33	     9.055
  21.380         60.00	     8.485
  21.400         69.17	     9.110
  21.420         64.17	     8.775
  21.440         85.00	    10.100
  21.460         54.17	     8.062
  21.480         51.67	     7.874
  21.500         55.00	     8.124
  21.520         61.67	     8.602
  21.540         68.33	     9.055
  21.560         65.00	     8.832
  21.580         50.00	     7.746
  21.600         52.50	     7.937
  21.620         60.83	     8.544
  21.640         61.67	     8.602
  21.660         74.17	     9.434
  21.680         60.00	     8.485
  21.700         58.33	     8.367
  21.720         78.33	     9.695
  21.740         82.50	     9.950
  21.760         62.50	     8.660
  21.780         65.00	     8.832
  21.800         69.17	     9.110
  21.820         64.17	     8.775
  21.840         52.50	     7.937
  21.860         53.33	     8.000
  21.880         42.50	     7.141
  21.900         69.17	     9.110
  21.920         58.33	     8.367
  21.940         58.33	     8.367
  21.960         61.67	     8.602
  21.980         47.50	     7.550
  22.000         56.67	     8.246
  22.020         74.17	     9.434
  22.040         70.83	     9.220
  22.060         65.83	     8.888
  22.080         72.50	     9.327
  22.100         95.00	    10.677
  22.120        126.67	    12.329
  22.140        151.67	    13.491
  22.160        220.00	    16.248
  22.180        262.50	    17.748
  22.200        331.67	    19.950
  22.220        319.17	    19.570
  22.240        290.83	    18.682
  22.260        235.00	    16.793
  22.280        169.17	    14.248
  22.300        149.17	    13.379
  22.320        121.67	    12.083
  22.340         84.17	    10.050
  22.360         70.83	     9.220
  22.380         78.33	     9.695
  22.400         74.17	     9.434
  22.420         79.17	     9.747
  22.440         66.67	     8.944
  22.460         58.33	     8.367
  22.480         70.83	     9.220
  22.500         70.83	     9.220
  22.520         80.83	     9.849
  22.540         71.67	     9.274
  22.560         70.83	     9.220
  22.580         74.17	     9.434
  22.600         60.83	     8.544
  22.620         70.83	     9.220
  22.640         66.67	     8.944
  22.660         74.17	     9.434
  22.680         84.17	    10.050
  22.700         78.33	     9.695
  22.720         62.50	     8.660
  22.740         72.50	     9.327
  22.760         68.33	     9.055
  22.780         60.83	     8.544
  22.800         63.33	     8.718
  22.820         87.50	    10.247
  22.840         62.50	     8.660
  22.860         58.33	     8.367
  22.880         56.67	     8.246
  22.900         76.67	     9.592
  22.920         56.67	     8.246
  22.940         56.67	     8.246
  22.960         93.33	    10.583
  22.980         93.33	    10.583
  23.000         95.00	    10.677
  23.020        112.50	    11.619
  23.040        106.67	    11.314
  23.060        121.67	    12.083
  23.080        120.00	    12.000
  23.100        132.50	    12.610
  23.120        107.50	    11.358
  23.140        131.67	    12.570
  23.160        105.83	    11.269
  23.180        130.00	    12.490
  23.200        115.83	    11.790
  23.220        112.50	    11.619
  23.240        110.83	    11.533
  23.260         86.67	    10.198
  23.280         88.33	    10.296
  23.300         81.67	     9.899
  23.320         86.67	    10.198
  23.340         80.83	     9.849
  23.360         72.50	     9.327
  23.380         51.67	     7.874
  23.400         88.33	    10.296
  23.420         70.00	     9.165
  23.440         74.17	     9.434
  23.460         66.67	     8.944
  23.480         85.83	    10.149
  23.500         90.83	    10.440
  23.520         63.33	     8.718
  23.540         81.67	     9.899
  23.560         85.00	    10.100
  23.580         97.50	    10.817
  23.600         93.33	    10.583
  23.620        114.17	    11.705
  23.640        150.83	    13.454
  23.660        174.17	    14.457
  23.680        232.50	    16.703
  23.700        235.83	    16.823
  23.720        277.50	    18.248
  23.740        282.50	    18.412
  23.760        268.33	    17.944
  23.780        221.67	    16.310
  23.800        194.17	    15.264
  23.820        195.83	    15.330
  23.840        123.33	    12.166
  23.860        118.33	    11.916
  23.880        117.50	    11.874
  23.900         97.50	    10.817
  23.920        108.33	    11.402
  23.940        129.17	    12.450
  23.960        106.67	    11.314
  23.980        113.33	    11.662
  24.000        128.33	    12.410
  24.020        114.17	    11.705
  24.040        120.83	    12.042
  24.060        113.33	    11.662
  24.080        105.83	    11.269
  24.100        110.00	    11.489
  24.120         89.17	    10.344
  24.140        110.83	    11.533
  24.160        104.17	    11.180
  24.180         99.17	    10.909
  24.200        109.17	    11.446
  24.220        115.00	    11.747
  24.240        138.33	    12.884
  24.260        142.50	    13.077
  24.280        156.67	    13.711
  24.300        157.50	    13.748
  24.320        158.33	    13.784
  24.340        188.33	    15.033
  24.360        215.00	    16.062
  24.380        195.00	    15.297
  24.400        207.50	    15.780
  24.420        187.50	    15.000
  24.440        197.50	    15.395
  24.460        225.00	    16.432
  24.480        229.17	    16.583
  24.500        234.17	    16.763
  24.520        230.83	    16.643
  24.540        215.00	    16.062
  24.560        185.83	    14.933
  24.580        205.00	    15.684
  24.600        185.00	    14.900
  24.620        219.17	    16.217
  24.640        240.00	    16.971
  24.660        300.83	    19.000
  24.680        411.67	    22.226
  24.700        533.33	    25.298
  24.720        680.83	    28.583
  24.740        735.00	    29.698
  24.760        806.67	    31.113
  24.780        839.17	    31.733
  24.800        863.33	    32.187
  24.820        865.83	    32.234
  24.840        775.83	    30.512
  24.860        633.33	    27.568
  24.880        610.00	    27.055
  24.900        517.50	    24.920
  24.920        457.50	    23.431
  24.940        365.00	    20.928
  24.960        337.50	    20.125
  24.980        318.33	    19.545
  25.000        313.33	    19.391
  25.020        297.50	    18.894
  25.040        281.67	    18.385
  25.060        270.00	    18.000
  25.080        246.67	    17.205
  25.100        278.33	    18.276
  25.120        240.00	    16.971
  25.140        233.33	    16.733
  25.160        290.83	    18.682
  25.180        321.67	    19.647
  25.200        310.83	    19.313
  25.220        376.67	    21.260
  25.240        473.33	    23.833
  25.260        516.67	    24.900
  25.280        698.33	    28.948
  25.300        743.33	    29.866
  25.320        722.50	    29.445
  25.340        708.33	    29.155
  25.360        677.50	    28.513
  25.380        557.50	    25.865
  25.400        476.67	    23.917
  25.420        355.83	    20.664
  25.440        327.50	    19.824
  25.460        280.00	    18.330
  25.480        222.50	    16.340
  25.500        220.83	    16.279
  25.520        210.00	    15.875
  25.540        217.50	    16.155
  25.560        221.67	    16.310
  25.580        218.33	    16.186
  25.600        204.17	    15.652
  25.620        197.50	    15.395
  25.640        201.67	    15.556
  25.660        234.17	    16.763
  25.680        213.33	    16.000
  25.700        226.67	    16.492
  25.720        197.50	    15.395
  25.740        235.83	    16.823
  25.760        211.67	    15.937
  25.780        193.33	    15.232
  25.800        214.17	    16.031
  25.820        201.67	    15.556
  25.840        163.33	    14.000
  25.860        175.00	    14.491
  25.880        153.33	    13.565
  25.900        128.33	    12.410
  25.920        115.83	    11.790
  25.940        112.50	    11.619
  25.960        123.33	    12.166
  25.980        134.17	    12.689
  26.000        119.17	    11.958
  26.020        135.83	    12.767
  26.040        134.17	    12.689
  26.060        138.33	    12.884
  26.080        122.50	    12.124
  26.100        100.00	    10.954
  26.120        110.00	    11.489
  26.140        115.00	    11.747
  26.160        113.33	    11.662
  26.180        126.67	    12.329
  26.200        130.00	    12.490
  26.220        126.67	    12.329
  26.240        132.50	    12.610
  26.260        140.83	    13.000
  26.280        147.50	    13.304
  26.300        142.50	    13.077
  26.320        137.50	    12.845
  26.340        167.50	    14.177
  26.360        143.33	    13.115
  26.380        165.83	    14.107
  26.400        186.67	    14.967
  26.420        200.83	    15.524
  26.440        216.67	    16.125
  26.460        224.17	    16.401
  26.480        267.50	    17.916
  26.500        254.17	    17.464
  26.520        306.67	    19.183
  26.540        316.67	    19.494
  26.560        369.17	    21.048
  26.580        412.50	    22.249
  26.600        411.67	    22.226
  26.620        445.83	    23.130
  26.640        459.17	    23.473
  26.660        470.00	    23.749
  26.680        505.83	    24.637
  26.700        553.33	    25.768
  26.720        655.00	    28.036
  26.740        988.33	    34.438
  26.760       1411.67	    41.158
  26.780       1693.33	    45.078
  26.800       1691.67	    45.056
  26.820       1665.00	    44.699
  26.840       1600.00	    43.818
  26.860       1375.83	    40.632
  26.880       1169.17	    37.457
  26.900       1072.50	    35.875
  26.920        950.83	    33.779
  26.940        970.00	    34.117
  26.960       1039.17	    35.313
  26.980       1178.33	    37.603
  27.000       1185.83	    37.723
  27.020       1237.50	    38.536
  27.040       1192.50	    37.829
  27.060       1165.00	    37.390
  27.080       1015.00	    34.900
  27.100        804.17	    31.064
  27.120        711.67	    29.223
  27.140        579.17	    26.363
  27.160        440.83	    23.000
  27.180        337.50	    20.125
  27.200        341.67	    20.248
  27.220        269.17	    17.972
  27.240        272.50	    18.083
  27.260        203.33	    15.620
  27.280        206.67	    15.748
  27.300        190.83	    15.133
  27.320        190.00	    15.100
  27.340        157.50	    13.748
  27.360        166.67	    14.142
  27.380        150.83	    13.454
  27.400        150.83	    13.454
  27.420        156.67	    13.711
  27.440        134.17	    12.689
  27.460        137.50	    12.845
  27.480        130.00	    12.490
  27.500        142.50	    13.077
  27.520        134.17	    12.689
  27.540        132.50	    12.610
  27.560        165.00	    14.071
  27.580        184.17	    14.866
  27.600        191.67	    15.166
  27.620        238.33	    16.912
  27.640        292.50	    18.735
  27.660        302.50	    19.053
  27.680        299.17	    18.947
  27.700        299.17	    18.947
  27.720        289.17	    18.628
  27.740        244.17	    17.117
  27.760        231.67	    16.673
  27.780        200.00	    15.492
  27.800        217.50	    16.155
  27.820        202.50	    15.588
  27.840        279.17	    18.303
  27.860        363.33	    20.881
  27.880        386.67	    21.541
  27.900        397.50	    21.840
  27.920        412.50	    22.249
  27.940        411.67	    22.226
  27.960        468.33	    23.707
  27.980        461.67	    23.537
  28.000        475.83	    23.896
  28.020        585.83	    26.514
  28.040        700.00	    28.983
  28.060        742.50	    29.850
  28.080        774.17	    30.480
  28.100        711.67	    29.223
  28.120        732.50	    29.648
  28.140        661.67	    28.178
  28.160        560.83	    25.942
  28.180        445.83	    23.130
  28.200        365.83	    20.952
  28.220        320.00	    19.596
  28.240        280.83	    18.358
  28.260        244.17	    17.117
  28.280        254.17	    17.464
  28.300        255.83	    17.521
  28.320        221.67	    16.310
  28.340        240.00	    16.971
  28.360        215.83	    16.093
  28.380        200.83	    15.524
  28.400        168.33	    14.213
  28.420        167.50	    14.177
  28.440        167.50	    14.177
  28.460        189.17	    15.067
  28.480        195.83	    15.330
  28.500        177.50	    14.595
  28.520        146.67	    13.266
  28.540        135.83	    12.767
  28.560        145.00	    13.191
  28.580        102.50	    11.091
  28.600        131.67	    12.570
  28.620        130.00	    12.490
  28.640        140.00	    12.961
  28.660        144.17	    13.153
  28.680        168.33	    14.213
  28.700        183.33	    14.832
  28.720        235.00	    16.793
  28.740        248.33	    17.263
  28.760        268.33	    17.944
  28.780        270.83	    18.028
  28.800        270.00	    18.000
  28.820        248.33	    17.263
  28.840        240.83	    17.000
  28.860        185.00	    14.900
  28.880        166.67	    14.142
  28.900        181.67	    14.765
  28.920        162.50	    13.964
  28.940        142.50	    13.077
  28.960        135.00	    12.728
  28.980        129.17	    12.450
  29.000        104.17	    11.180
  29.020         90.00	    10.392
  29.040         82.50	     9.950
  29.060         91.67	    10.488
  29.080         81.67	     9.899
  29.100         82.50	     9.950
  29.120         77.50	     9.644
  29.140         83.33	    10.000
  29.160         73.33	     9.381
  29.180         75.00	     9.487
  29.200         90.00	    10.392
  29.220         77.50	     9.644
  29.240         70.83	     9.220
  29.260         70.83	     9.220
  29.280         66.67	     8.944
  29.300         65.83	     8.888
  29.320         67.50	     9.000
  29.340         68.33	     9.055
  29.360         61.67	     8.602
  29.380         69.17	     9.110
  29.400         63.33	     8.718
  29.420         58.33	     8.367
  29.440         65.83	     8.888
  29.460         60.83	     8.544
  29.480         68.33	     9.055
  29.500         63.33	     8.718
  29.520         65.00	     8.832
  29.540         63.33	     8.718
  29.560         81.67	     9.899
  29.580         78.33	     9.695
  29.600         80.83	     9.849
  29.620         65.00	     8.832
  29.640         61.67	     8.602
  29.660         80.83	     9.849
  29.680         63.33	     8.718
  29.700         70.00	     9.165
  29.720         65.00	     8.832
  29.740         80.83	     9.849
  29.760         86.67	    10.198
  29.780         82.50	     9.950
  29.800         72.50	     9.327
  29.820         90.83	    10.440
  29.840         95.00	    10.677
  29.860         84.17	    10.050
  29.880        110.83	    11.533
  29.900        123.33	    12.166
  29.920        142.50	    13.077
  29.940        151.67	    13.491
  29.960        142.50	    13.077
  29.980        198.33	    15.427
  30.000        204.17	    15.652
  30.020        195.83	    15.330
  30.040        210.83	    15.906
  30.060        197.50	    15.395
  30.080        210.00	    15.875
  30.100        195.00	    15.297
  30.120        183.33	    14.832
  30.140        145.00	    13.191
  30.160        168.33	    14.213
  30.180        137.50	    12.845
  30.200        161.67	    13.928
  30.220        131.67	    12.570
  30.240        116.67	    11.832
  30.260        136.67	    12.806
  30.280        130.83	    12.530
  30.300        134.17	    12.689
  30.320        115.00	    11.747
  30.340        130.00	    12.490
  30.360        150.00	    13.416
  30.380        145.83	    13.229
  30.400        140.83	    13.000
  30.420        125.83	    12.288
  30.440        146.67	    13.266
  30.460        143.33	    13.115
  30.480        120.83	    12.042
  30.500        138.33	    12.884
  30.520        136.67	    12.806
  30.540        147.50	    13.304
  30.560        164.17	    14.036
  30.580        180.83	    14.731
  30.600        157.50	    13.748
  30.620        171.67	    14.353
  30.640        168.33	    14.213
  30.660        148.33	    13.342
  30.680        160.00	    13.856
  30.700        156.67	    13.711
  30.720        129.17	    12.450
  30.740        115.83	    11.790
  30.760         94.17	    10.630
  30.780         97.50	    10.817
  30.800         88.33	    10.296
  30.820        100.00	    10.954
  30.840         85.00	    10.100
  30.860         85.00	    10.100
  30.880         90.83	    10.440
  30.900         85.83	    10.149
  30.920         88.33	    10.296
  30.940        120.00	    12.000
  30.960        117.50	    11.874
  30.980        120.00	    12.000
  31.000        110.83	    11.533
  31.020        125.00	    12.247
  31.040        114.17	    11.705
  31.060        101.67	    11.045
  31.080        112.50	    11.619
  31.100         95.83	    10.724
  31.120         99.17	    10.909
  31.140        113.33	    11.662
  31.160        101.67	    11.045
  31.180         97.50	    10.817
  31.200         84.17	    10.050
  31.220        116.67	    11.832
  31.240         98.33	    10.863
  31.260        119.17	    11.958
  31.280        131.67	    12.570
  31.300        138.33	    12.884
  31.320        139.17	    12.923
  31.340        165.00	    14.071
  31.360        168.33	    14.213
  31.380        181.67	    14.765
  31.400        201.67	    15.556
  31.420        195.00	    15.297
  31.440        179.17	    14.663
  31.460        179.17	    14.663
  31.480        172.50	    14.387
  31.500        150.00	    13.416
  31.520        150.83	    13.454
  31.540        125.00	    12.247
  31.560        117.50	    11.874
  31.580        123.33	    12.166
  31.600        115.00	    11.747
  31.620         99.17	    10.909
  31.640        124.17	    12.207
  31.660        147.50	    13.304
  31.680        161.67	    13.928
  31.700        156.67	    13.711
  31.720        150.83	    13.454
  31.740        178.33	    14.629
  31.760        173.33	    14.422
  31.780        158.33	    13.784
  31.800        150.83	    13.454
  31.820        148.33	    13.342
  31.840        135.83	    12.767
  31.860        103.33	    11.136
  31.880        122.50	    12.124
  31.900         84.17	    10.050
  31.920         74.17	     9.434
  31.940         81.67	     9.899
  31.960         72.50	     9.327
  31.980         65.83	     8.888
  32.000         77.50	     9.644
  32.020         89.17	    10.344
  32.040         89.17	    10.344
  32.060         79.17	     9.747
  32.080         96.67	    10.770
  32.100        102.50	    11.091
  32.120        110.83	    11.533
  32.140         92.50	    10.536
  32.160         97.50	    10.817
  32.180        125.83	    12.288
  32.200        119.17	    11.958
  32.220        121.67	    12.083
  32.240        128.33	    12.410
  32.260        109.17	    11.446
  32.280        141.67	    13.038
  32.300        108.33	    11.402
  32.320        113.33	    11.662
  32.340        119.17	    11.958
  32.360         98.33	    10.863
  32.380         71.67	     9.274
  32.400         93.33	    10.583
  32.420        105.83	    11.269
  32.440         95.00	    10.677
  32.460         75.00	     9.487
  32.480         71.67	     9.274
  32.500         73.33	     9.381
  32.520         93.33	    10.583
  32.540         81.67	     9.899
  32.560         58.33	     8.367
  32.580         57.50	     8.307
  32.600         53.33	     8.000
  32.620         40.83	     7.000
  32.640         52.50	     7.937
  32.660         55.00	     8.124
  32.680         51.67	     7.874
  32.700         45.83	     7.416
  32.720         51.67	     7.874
  32.740         57.50	     8.307
  32.760         52.50	     7.937
  32.780         54.17	     8.062
  32.800         40.00	     6.928
  32.820         54.17	     8.062
  32.840         51.67	     7.874
  32.860         50.00	     7.746
  32.880         36.67	     6.633
  32.900         69.17	     9.110
  32.920         47.50	     7.550
  32.940         59.17	     8.426
  32.960         51.67	     7.874
  32.980         70.00	     9.165
  33.000         59.17	     8.426
  33.020         55.83	     8.185
  33.040         51.67	     7.874
  33.060         59.17	     8.426
  33.080         61.67	     8.602
  33.100         52.50	     7.937
  33.120         66.67	     8.944
  33.140         64.17	     8.775
  33.160         78.33	     9.695
  33.180         90.00	    10.392
  33.200        100.83	    11.000
  33.220        101.67	    11.045
  33.240        120.00	    12.000
  33.260         98.33	    10.863
  33.280         78.33	     9.695
  33.300         89.17	    10.344
  33.320         82.50	     9.950
  33.340         75.00	     9.487
  33.360         70.83	     9.220
  33.380         54.17	     8.062
  33.400         59.17	     8.426
  33.420         58.33	     8.367
  33.440         58.33	     8.367
  33.460         58.33	     8.367
  33.480         55.00	     8.124
  33.500         56.67	     8.246
  33.520         90.83	    10.440
  33.540         65.83	     8.888
  33.560         60.00	     8.485
  33.580         57.50	     8.307
  33.600         62.50	     8.660
  33.620         60.00	     8.485
  33.640         75.00	     9.487
  33.660         52.50	     7.937
  33.680         72.50	     9.327
  33.700         52.50	     7.937
  33.720         56.67	     8.246
  33.740         53.33	     8.000
  33.760         63.33	     8.718
  33.780         56.67	     8.246
  33.800         46.67	     7.483
  33.820         53.33	     8.000
  33.840         57.50	     8.307
  33.860         60.83	     8.544
  33.880         62.50	     8.660
  33.900         72.50	     9.327
  33.920         55.00	     8.124
  33.940         52.50	     7.937
  33.960         54.17	     8.062
  33.980         69.17	     9.110
  34.000         60.83	     8.544
  34.020         60.00	     8.485
  34.040         67.50	     9.000
  34.060         68.33	     9.055
  34.080         74.17	     9.434
  34.100         60.00	     8.485
  34.120         75.83	     9.539
  34.140         99.17	    10.909
  34.160        118.33	    11.916
  34.180         71.67	     9.274
  34.200        102.50	    11.091
  34.220         79.17	     9.747
  34.240         81.67	     9.899
  34.260         90.83	    10.440
  34.280         88.33	    10.296
  34.300         92.50	    10.536
  34.320         80.00	     9.798
  34.340         68.33	     9.055
  34.360         68.33	     9.055
  34.380         78.33	     9.695
  34.400         80.83	     9.849
  34.420         75.00	     9.487
  34.440         56.67	     8.246
  34.460         72.50	     9.327
  34.480         65.00	     8.832
  34.500         67.50	     9.000
  34.520         90.83	    10.440
  34.540         65.00	     8.832
  34.560         92.50	    10.536
  34.580        102.50	    11.091
  34.600        110.00	    11.489
  34.620        113.33	    11.662
  34.640        105.00	    11.225
  34.660        130.83	    12.530
  34.680        140.83	    13.000
  34.700        122.50	    12.124
  34.720        115.83	    11.790
  34.740        128.33	    12.410
  34.760        114.17	    11.705
  34.780        131.67	    12.570
  34.800        125.00	    12.247
  34.820        109.17	    11.446
  34.840        102.50	    11.091
  34.860        109.17	    11.446
  34.880        113.33	    11.662
  34.900         91.67	    10.488
  34.920         90.00	    10.392
  34.940         84.17	    10.050
  34.960        130.00	    12.490
  34.980        130.00	    12.490
  35.000        120.00	    12.000
  35.020        135.00	    12.728
  35.040        141.67	    13.038
  35.060        163.33	    14.000
  35.080        143.33	    13.115
  35.100        160.00	    13.856
  35.120        175.00	    14.491
  35.140        185.00	    14.900
  35.160        170.83	    14.318
  35.180        169.17	    14.248
  35.200        180.83	    14.731
  35.220        137.50	    12.845
  35.240        163.33	    14.000
  35.260        137.50	    12.845
  35.280        163.33	    14.000
  35.300        125.00	    12.247
  35.320        115.00	    11.747
  35.340        105.00	    11.225
  35.360        100.83	    11.000
  35.380        115.83	    11.790
  35.400         95.83	    10.724
  35.420        105.83	    11.269
  35.440        110.83	    11.533
  35.460         98.33	    10.863
  35.480        106.67	    11.314
  35.500        117.50	    11.874
  35.520        115.00	    11.747
  35.540        128.33	    12.410
  35.560         96.67	    10.770
  35.580        138.33	    12.884
  35.600        132.50	    12.610
  35.620        160.00	    13.856
  35.640        175.00	    14.491
  35.660        180.00	    14.697
  35.680        182.50	    14.799
  35.700        201.67	    15.556
  35.720        185.83	    14.933
  35.740        187.50	    15.000
  35.760        209.17	    15.843
  35.780        178.33	    14.629
  35.800        162.50	    13.964
  35.820        180.83	    14.731
  35.840        148.33	    13.342
  35.860        127.50	    12.369
  35.880        120.00	    12.000
  35.900        122.50	    12.124
  35.920        107.50	    11.358
  35.940        108.33	    11.402
  35.960         96.67	    10.770
  35.980         97.50	    10.817
  36.000         93.33	    10.583
  36.020         98.33	    10.863
  36.040         89.17	    10.344
  36.060         93.33	    10.583
  36.080         89.17	    10.344
  36.100         90.83	    10.440
  36.120        115.83	    11.790
  36.140        122.50	    12.124
  36.160        146.67	    13.266
  36.180        120.00	    12.000
  36.200        134.17	    12.689
  36.220        136.67	    12.806
  36.240        127.50	    12.369
  36.260        139.17	    12.923
  36.280        115.00	    11.747
  36.300        114.17	    11.705
  36.320        119.17	    11.958
  36.340        104.17	    11.180
  36.360         92.50	    10.536
  36.380         89.17	    10.344
  36.400         65.83	     8.888
  36.420         70.00	     9.165
  36.440         63.33	     8.718
  36.460         77.50	     9.644
  36.480         64.17	     8.775
  36.500         81.67	     9.899
  36.520         69.17	     9.110
  36.540         75.83	     9.539
  36.560         79.17	     9.747
  36.580         85.00	    10.100
  36.600         98.33	    10.863
  36.620        127.50	    12.369
  36.640        139.17	    12.923
  36.660        178.33	    14.629
  36.680        180.00	    14.697
  36.700        170.83	    14.318
  36.720        190.83	    15.133
  36.740        175.00	    14.491
  36.760        181.67	    14.765
  36.780        165.83	    14.107
  36.800        143.33	    13.115
  36.820        145.00	    13.191
  36.840        134.17	    12.689
  36.860        136.67	    12.806
  36.880        111.67	    11.576
  36.900        108.33	    11.402
  36.920        116.67	    11.832
  36.940        108.33	    11.402
  36.960         80.00	     9.798
  36.980         75.00	     9.487
  37.000         80.83	     9.849
  37.020         69.17	     9.110
  37.040         78.33	     9.695
  37.060         83.33	    10.000
  37.080         69.17	     9.110
  37.100         86.67	    10.198
  37.120         60.83	     8.544
  37.140         73.33	     9.381
  37.160         68.33	     9.055
  37.180         70.83	     9.220
  37.200         66.67	     8.944
  37.220         86.67	    10.198
  37.240         72.50	     9.327
  37.260         97.50	    10.817
  37.280         95.00	    10.677
  37.300         88.33	    10.296
  37.320         93.33	    10.583
  37.340         90.00	    10.392
  37.360         88.33	    10.296
  37.380         93.33	    10.583
  37.400         91.67	    10.488
  37.420        100.00	    10.954
  37.440         84.17	    10.050
  37.460        106.67	    11.314
  37.480         90.00	    10.392
  37.500         90.00	    10.392
  37.520         85.00	    10.100
  37.540        113.33	    11.662
  37.560         96.67	    10.770
  37.580         94.17	    10.630
  37.600        110.00	    11.489
  37.620         92.50	    10.536
  37.640         93.33	    10.583
  37.660         90.83	    10.440
  37.680         91.67	    10.488
  37.700         88.33	    10.296
  37.720        102.50	    11.091
  37.740         95.83	    10.724
  37.760         92.50	    10.536
  37.780        120.00	    12.000
  37.800        101.67	    11.045
  37.820        105.00	    11.225
  37.840        106.67	    11.314
  37.860        112.50	    11.619
  37.880         95.00	    10.677
  37.900        106.67	    11.314
  37.920         97.50	    10.817
  37.940         82.50	     9.950
  37.960         81.67	     9.899
  37.980         95.83	    10.724
  38.000         73.33	     9.381
  38.020         83.33	    10.000
  38.040         63.33	     8.718
  38.060         57.50	     8.307
  38.080         45.83	     7.416
  38.100         50.00	     7.746
  38.120         50.83	     7.810
  38.140         46.67	     7.483
  38.160         41.67	     7.071
  38.180         43.33	     7.211
  38.200         47.50	     7.550
  38.220         39.17	     6.856
  38.240         44.17	     7.280
  38.260         51.67	     7.874
  38.280         41.67	     7.071
  38.300         50.83	     7.810
  38.320         47.50	     7.550
  38.340         45.00	     7.348
  38.360         35.83	     6.557
  38.380         37.50	     6.708
  38.400         44.17	     7.280
  38.420         42.50	     7.141
  38.440         46.67	     7.483
  38.460         44.17	     7.280
  38.480         44.17	     7.280
  38.500         35.83	     6.557
  38.520         33.33	     6.325
  38.540         45.00	     7.348
  38.560         43.33	     7.211
  38.580         43.33	     7.211
  38.600         40.00	     6.928
  38.620         58.33	     8.367
  38.640         51.67	     7.874
  38.660         61.67	     8.602
  38.680         48.33	     7.616
  38.700         50.00	     7.746
  38.720         57.50	     8.307
  38.740         48.33	     7.616
  38.760         63.33	     8.718
  38.780         55.83	     8.185
  38.800         52.50	     7.937
  38.820         47.50	     7.550
  38.840         61.67	     8.602
  38.860         55.83	     8.185
  38.880         53.33	     8.000
  38.900         61.67	     8.602
  38.920         59.17	     8.426
  38.940         95.83	    10.724
  38.960         74.17	     9.434
  38.980         82.50	     9.950
  39.000         53.33	     8.000
  39.020         56.67	     8.246
  39.040         70.83	     9.220
  39.060         60.83	     8.544
  39.080         59.17	     8.426
  39.100         62.50	     8.660
  39.120         52.50	     7.937
  39.140         50.83	     7.810
  39.160         48.33	     7.616
  39.180         52.50	     7.937
  39.200         45.00	     7.348
  39.220         50.00	     7.746
  39.240         44.17	     7.280
  39.260         53.33	     8.000
  39.280         49.17	     7.681
  39.300         46.67	     7.483
  39.320         45.83	     7.416
  39.340         44.17	     7.280
  39.360         52.50	     7.937
  39.380         47.50	     7.550
  39.400         47.50	     7.550
  39.420         47.50	     7.550
  39.440         40.83	     7.000
  39.460         45.00	     7.348
  39.480         34.17	     6.403
  39.500         55.83	     8.185
  39.520         58.33	     8.367
  39.540         75.00	     9.487
  39.560         80.83	     9.849
  39.580        114.17	    11.705
  39.600        125.83	    12.288
  39.620        131.67	    12.570
  39.640        120.83	    12.042
  39.660        125.00	    12.247
  39.680        109.17	    11.446
  39.700        109.17	    11.446
  39.720        109.17	    11.446
  39.740         97.50	    10.817
  39.760         72.50	     9.327
  39.780         64.17	     8.775
  39.800         78.33	     9.695
  39.820         66.67	     8.944
  39.840         77.50	     9.644
  39.860         68.33	     9.055
  39.880         63.33	     8.718
  39.900         70.83	     9.220
  39.920         64.17	     8.775
  39.940         55.00	     8.124
  39.960         58.33	     8.367
  39.980         68.33	     9.055
  40.000         60.00	     8.485
  40.020         55.83	     8.185
  40.040         56.67	     8.246
  40.060         58.33	     8.367
  40.080         59.17	     8.426
  40.100         60.00	     8.485
  40.120         51.67	     7.874
  40.140         58.33	     8.367
  40.160         51.67	     7.874
  40.180         57.50	     8.307
  40.200         57.50	     8.307
  40.220         48.33	     7.616
  40.240         50.00	     7.746
  40.260         57.50	     8.307
  40.280         55.00	     8.124
  40.300         62.50	     8.660
  40.320         58.33	     8.367
  40.340         50.83	     7.810
  40.360         65.83	     8.888
  40.380         68.33	     9.055
  40.400         81.67	     9.899
  40.420         73.33	     9.381
  40.440         77.50	     9.644
  40.460         94.17	    10.630
  40.480        100.00	    10.954
  40.500         85.83	    10.149
  40.520         96.67	    10.770
  40.540         72.50	     9.327
  40.560         78.33	     9.695
  40.580         59.17	     8.426
  40.600         60.83	     8.544
  40.620         60.00	     8.485
  40.640         48.33	     7.616
  40.660         56.67	     8.246
  40.680         51.67	     7.874
  40.700         48.33	     7.616
  40.720         35.83	     6.557
  40.740         45.00	     7.348
  40.760         44.17	     7.280
  40.780         40.00	     6.928
  40.800         45.00	     7.348
  40.820         49.17	     7.681
  40.840         35.83	     6.557
  40.860         41.67	     7.071
  40.880         58.33	     8.367
  40.900         43.33	     7.211
  40.920         43.33	     7.211
  40.940         47.50	     7.550
  40.960         40.83	     7.000
  40.980         51.67	     7.874
  41.000         50.00	     7.746
  41.020         45.00	     7.348
  41.040         46.67	     7.483
  41.060         55.83	     8.185
  41.080         45.00	     7.348
  41.100         49.17	     7.681
  41.120         46.67	     7.483
  41.140         42.50	     7.141
  41.160         50.00	     7.746
  41.180         65.00	     8.832
  41.200         50.83	     7.810
  41.220         41.67	     7.071
  41.240         50.83	     7.810
  41.260         38.33	     6.782
  41.280         46.67	     7.483
  41.300         51.67	     7.874
  41.320         63.33	     8.718
  41.340         62.50	     8.660
  41.360         66.67	     8.944
  41.380         64.17	     8.775
  41.400         70.83	     9.220
  41.420         60.00	     8.485
  41.440         73.33	     9.381
  41.460         59.17	     8.426
  41.480         66.67	     8.944
  41.500         57.50	     8.307
  41.520         70.83	     9.220
  41.540         61.67	     8.602
  41.560         50.83	     7.810
  41.580         65.00	     8.832
  41.600         55.83	     8.185
  41.620         61.67	     8.602
  41.640         53.33	     8.000
  41.660         56.67	     8.246
  41.680         60.83	     8.544
  41.700         60.83	     8.544
  41.720         67.50	     9.000
  41.740         50.83	     7.810
  41.760         65.83	     8.888
  41.780         69.17	     9.110
  41.800         75.83	     9.539
  41.820         85.83	    10.149
  41.840         94.17	    10.630
  41.860         96.67	    10.770
  41.880         95.83	    10.724
  41.900         85.83	    10.149
  41.920         95.83	    10.724
  41.940         86.67	    10.198
  41.960         89.17	    10.344
  41.980         82.50	     9.950
  42.000         88.33	    10.296
  42.020         90.83	    10.440
  42.040         77.50	     9.644
  42.060         79.17	     9.747
  42.080         92.50	    10.536
  42.100         85.83	    10.149
  42.120         91.67	    10.488
  42.140         82.50	     9.950
  42.160         83.33	    10.000
  42.180         67.50	     9.000
  42.200         85.00	    10.100
  42.220         69.17	     9.110
  42.240         60.83	     8.544
  42.260         66.67	     8.944
  42.280         76.67	     9.592
  42.300         61.67	     8.602
  42.320         70.83	     9.220
  42.340         61.67	     8.602
  42.360         71.67	     9.274
  42.380         65.83	     8.888
  42.400         72.50	     9.327
  42.420         74.17	     9.434
  42.440         75.00	     9.487
  42.460         86.67	    10.198
  42.480         73.33	     9.381
  42.500        100.83	    11.000
  42.520        100.83	    11.000
  42.540         94.17	    10.630
  42.560        143.33	    13.115
  42.580        139.17	    12.923
  42.600        163.33	    14.000
  42.620        150.00	    13.416
  42.640        141.67	    13.038
  42.660        138.33	    12.884
  42.680        112.50	    11.619
  42.700        127.50	    12.369
  42.720         85.83	    10.149
  42.740        101.67	    11.045
  42.760         76.67	     9.592
  42.780         75.00	     9.487
  42.800         70.83	     9.220
  42.820         62.50	     8.660
  42.840         63.33	     8.718
  42.860         70.00	     9.165
  42.880         71.67	     9.274
  42.900         72.50	     9.327
  42.920         55.00	     8.124
  42.940         58.33	     8.367
  42.960         63.33	     8.718
  42.980         54.17	     8.062
  43.000         65.83	     8.888
  43.020         60.00	     8.485
  43.040         58.33	     8.367
  43.060         52.50	     7.937
  43.080         46.67	     7.483
  43.100         55.83	     8.185
  43.120         48.33	     7.616
  43.140         50.83	     7.810
  43.160         53.33	     8.000
  43.180         54.17	     8.062
  43.200         65.00	     8.832
  43.220         45.83	     7.416
  43.240         52.50	     7.937
  43.260         53.33	     8.000
  43.280         39.17	     6.856
  43.300         42.50	     7.141
  43.320         47.50	     7.550
  43.340         38.33	     6.782
  43.360         28.33	     5.831
  43.380         47.50	     7.550
  43.400         47.50	     7.550
  43.420         44.17	     7.280
  43.440         43.33	     7.211
  43.460         56.67	     8.246
  43.480         58.33	     8.367
  43.500         35.00	     6.481
  43.520         25.83	     5.568
  43.540         40.00	     6.928
  43.560         37.50	     6.708
  43.580         45.00	     7.348
  43.600         45.00	     7.348
  43.620         49.17	     7.681
  43.640         49.17	     7.681
  43.660         40.83	     7.000
  43.680         60.83	     8.544
  43.700         45.00	     7.348
  43.720         61.67	     8.602
  43.740         50.00	     7.746
  43.760         53.33	     8.000
  43.780         52.50	     7.937
  43.800         50.00	     7.746
  43.820         63.33	     8.718
  43.840         55.00	     8.124
  43.860         39.17	     6.856
  43.880         53.33	     8.000
  43.900         51.67	     7.874
  43.920         52.50	     7.937
  43.940         65.83	     8.888
  43.960         51.67	     7.874
  43.980         49.17	     7.681
  44.000         53.33	     8.000
  44.020         50.00	     7.746
  44.040         57.50	     8.307
  44.060         54.17	     8.062
  44.080         50.00	     7.746
  44.100         40.00	     6.928
  44.120         59.17	     8.426
  44.140         40.83	     7.000
  44.160         41.67	     7.071
  44.180         45.83	     7.416
  44.200         57.50	     8.307
  44.220         42.50	     7.141
  44.240         42.50	     7.141
  44.260         48.33	     7.616
  44.280         50.83	     7.810
  44.300         55.83	     8.185
  44.320         62.50	     8.660
  44.340         52.50	     7.937
  44.360         43.33	     7.211
  44.380         59.17	     8.426
  44.400         50.00	     7.746
  44.420         48.33	     7.616
  44.440         47.50	     7.550
  44.460         47.50	     7.550
  44.480         53.33	     8.000
  44.500         55.83	     8.185
  44.520         60.83	     8.544
  44.540         54.17	     8.062
  44.560         41.67	     7.071
  44.580         31.67	     6.164
  44.600         49.17	     7.681
  44.620         45.83	     7.416
  44.640         54.17	     8.062
  44.660         52.50	     7.937
  44.680         50.00	     7.746
  44.700         45.83	     7.416
  44.720         56.67	     8.246
  44.740         60.83	     8.544
  44.760         55.00	     8.124
  44.780         46.67	     7.483
  44.800         62.50	     8.660
  44.820         55.00	     8.124
  44.840         73.33	     9.381
  44.860         80.00	     9.798
  44.880         76.67	     9.592
  44.900         68.33	     9.055
  44.920         75.83	     9.539
  44.940         97.50	    10.817
  44.960         77.50	     9.644
  44.980         89.17	    10.344
  45.000         94.17	    10.630
  45.020        103.33	    11.136
  45.040        111.67	    11.576
  45.060        109.17	    11.446
  45.080         96.67	    10.770
  45.100        120.00	    12.000
  45.120        110.83	    11.533
  45.140        125.83	    12.288
  45.160        106.67	    11.314
  45.180         86.67	    10.198
  45.200        104.17	    11.180
  45.220        100.00	    10.954
  45.240        100.83	    11.000
  45.260        119.17	    11.958
  45.280        101.67	    11.045
  45.300        112.50	    11.619
  45.320        105.00	    11.225
  45.340         93.33	    10.583
  45.360         95.83	    10.724
  45.380        110.00	    11.489
  45.400        120.83	    12.042
  45.420        115.83	    11.790
  45.440        123.33	    12.166
  45.460        143.33	    13.115
  45.480        148.33	    13.342
  45.500        186.67	    14.967
  45.520        180.00	    14.697
  45.540        212.50	    15.969
  45.560        215.83	    16.093
  45.580        260.00	    17.664
  45.600        308.33	    19.235
  45.620        340.00	    20.199
  45.640        377.50	    21.284
  45.660        398.33	    21.863
  45.680        380.83	    21.378
  45.700        405.00	    22.045
  45.720        410.00	    22.181
  45.740        450.00	    23.238
  45.760        370.83	    21.095
  45.780        332.50	    19.975
  45.800        301.67	    19.026
  45.820        320.00	    19.596
  45.840        236.67	    16.852
  45.860        227.50	    16.523
  45.880        208.33	    15.811
  45.900        191.67	    15.166
  45.920        191.67	    15.166
  45.940        160.83	    13.892
  45.960        141.67	    13.038
  45.980        111.67	    11.576
  46.000        107.50	    11.358
  46.020        134.17	    12.689
  46.040        101.67	    11.045
  46.060        110.83	    11.533
  46.080        112.50	    11.619
  46.100         96.67	    10.770
  46.120         71.67	     9.274
  46.140         61.67	     8.602
  46.160         80.83	     9.849
  46.180         61.67	     8.602
  46.200         65.83	     8.888
  46.220         90.83	    10.440
  46.240         72.50	     9.327
  46.260         64.17	     8.775
  46.280         55.00	     8.124
  46.300         58.33	     8.367
  46.320         68.33	     9.055
  46.340         80.83	     9.849
  46.360         55.83	     8.185
  46.380         51.67	     7.874
  46.400         51.67	     7.874
  46.420         46.67	     7.483
  46.440         55.00	     8.124
  46.460         54.17	     8.062
  46.480         38.33	     6.782
  46.500         41.67	     7.071
  46.520         39.17	     6.856
  46.540         44.17	     7.280
  46.560         39.17	     6.856
  46.580         38.33	     6.782
  46.600         46.67	     7.483
  46.620         41.67	     7.071
  46.640         51.67	     7.874
  46.660         40.83	     7.000
  46.680         40.00	     6.928
  46.700         37.50	     6.708
  46.720         36.67	     6.633
  46.740         31.67	     6.164
  46.760         48.33	     7.616
  46.780         51.67	     7.874
  46.800         51.67	     7.874
  46.820         38.33	     6.782
  46.840         38.33	     6.782
  46.860         43.33	     7.211
  46.880         38.33	     6.782
  46.900         49.17	     7.681
  46.920         40.00	     6.928
  46.940         40.83	     7.000
  46.960         35.00	     6.481
  46.980         39.17	     6.856
  47.000         41.67	     7.071
  47.020         37.50	     6.708
  47.040         35.83	     6.557
  47.060         46.67	     7.483
  47.080         44.17	     7.280
  47.100         24.17	     5.385
  47.120         40.83	     7.000
  47.140         55.00	     8.124
  47.160         50.00	     7.746
  47.180         42.50	     7.141
  47.200         46.67	     7.483
  47.220         54.17	     8.062
  47.240         63.33	     8.718
  47.260         64.17	     8.775
  47.280         50.83	     7.810
  47.300         67.50	     9.000
  47.320         70.83	     9.220
  47.340         65.00	     8.832
  47.360         70.83	     9.220
  47.380         59.17	     8.426
  47.400         56.67	     8.246
  47.420         56.67	     8.246
  47.440         53.33	     8.000
  47.460         46.67	     7.483
  47.480         39.17	     6.856
  47.500         33.33	     6.325
  47.520         41.67	     7.071
  47.540         45.83	     7.416
  47.560         40.83	     7.000
  47.580         41.67	     7.071
  47.600         43.33	     7.211
  47.620         59.17	     8.426
  47.640         50.83	     7.810
  47.660         39.17	     6.856
  47.680         38.33	     6.782
  47.700         43.33	     7.211
  47.720         49.17	     7.681
  47.740         43.33	     7.211
  47.760         36.67	     6.633
  47.780         35.83	     6.557
  47.800         36.67	     6.633
  47.820         35.83	     6.557
  47.840         42.50	     7.141
  47.860         45.00	     7.348
  47.880         35.83	     6.557
  47.900         24.17	     5.385
  47.920         36.67	     6.633
  47.940         42.50	     7.141
  47.960         45.00	     7.348
  47.980         35.83	     6.557
  48.000         40.83	     7.000
  48.020         35.00	     6.481
  48.040         37.50	     6.708
  48.060         35.00	     6.481
  48.080         59.17	     8.426
  48.100         55.83	     8.185
  48.120         52.50	     7.937
  48.140         53.33	     8.000
  48.160         60.00	     8.485
  48.180         50.83	     7.810
  48.200         55.00	     8.124
  48.220         58.33	     8.367
  48.240         84.17	    10.050
  48.260         71.67	     9.274
  48.280         67.50	     9.000
  48.300         72.50	     9.327
  48.320         70.00	     9.165
  48.340         60.00	     8.485
  48.360         73.33	     9.381
  48.380         72.50	     9.327
  48.400         77.50	     9.644
  48.420         60.00	     8.485
  48.440         73.33	     9.381
  48.460         73.33	     9.381
  48.480         74.17	     9.434
  48.500         64.17	     8.775
  48.520         58.33	     8.367
  48.540         61.67	     8.602
  48.560         46.67	     7.483
  48.580         50.83	     7.810
  48.600         53.33	     8.000
  48.620         48.33	     7.616
  48.640         45.00	     7.348
  48.660         57.50	     8.307
  48.680         53.33	     8.000
  48.700         59.17	     8.426
  48.720         44.17	     7.280
  48.740         43.33	     7.211
  48.760         43.33	     7.211
  48.780         42.50	     7.141
  48.800         57.50	     8.307
  48.820         51.67	     7.874
  48.840         58.33	     8.367
  48.860         57.50	     8.307
  48.880         40.00	     6.928
  48.900         44.17	     7.280
  48.920         52.50	     7.937
  48.940         60.83	     8.544
  48.960         44.17	     7.280
  48.980         49.17	     7.681
  49.000         37.50	     6.708
  49.020         43.33	     7.211
  49.040         42.50	     7.141
  49.060         54.17	     8.062
  49.080         45.00	     7.348
  49.100         54.17	     8.062
  49.120         43.33	     7.211
  49.140         44.17	     7.280
  49.160         44.17	     7.280
  49.180         44.17	     7.280
  49.200         44.17	     7.280
  49.220         45.00	     7.348
  49.240         39.17	     6.856
  49.260         40.83	     7.000
  49.280         38.33	     6.782
  49.300         58.33	     8.367
  49.320         56.67	     8.246
  49.340         65.00	     8.832
  49.360         56.67	     8.246
  49.380         79.17	     9.747
  49.400         50.00	     7.746
  49.420         67.50	     9.000
  49.440         64.17	     8.775
  49.460         51.67	     7.874
  49.480         50.83	     7.810
  49.500         51.67	     7.874
  49.520         58.33	     8.367
  49.540         45.00	     7.348
  49.560         56.67	     8.246
  49.580         48.33	     7.616
  49.600         58.33	     8.367
  49.620         45.83	     7.416
  49.640         37.50	     6.708
  49.660         51.67	     7.874
  49.680         51.67	     7.874
  49.700         56.67	     8.246
  49.720         57.50	     8.307
  49.740         44.17	     7.280
  49.760         49.17	     7.681
  49.780         55.00	     8.124
  49.800         57.50	     8.307
  49.820         54.17	     8.062
  49.840         56.67	     8.246
  49.860         65.83	     8.888
  49.880         64.17	     8.775
  49.900         70.00	     9.165
  49.920         75.83	     9.539
  49.940         72.50	     9.327
  49.960         70.00	     9.165
  49.980         70.83	     9.220
  50.000         81.67	     9.899
  50.020         82.50	     9.950
  50.040         85.83	    10.149
  50.060         89.17	    10.344
  50.080         86.67	    10.198
  50.100        105.83	    11.269
  50.120         96.67	    10.770
  50.140         90.83	    10.440
  50.160        103.33	    11.136
  50.180         98.33	    10.863
  50.200        135.00	    12.728
  50.220        166.67	    14.142
  50.240        155.00	    13.638
  50.260        225.00	    16.432
  50.280        215.83	    16.093
  50.300        232.50	    16.703
  50.320        182.50	    14.799
  50.340        165.83	    14.107
  50.360        161.67	    13.928
  50.380        140.83	    13.000
  50.400        170.83	    14.318
  50.420        119.17	    11.958
  50.440        149.17	    13.379
  50.460        125.83	    12.288
  50.480        105.83	    11.269
  50.500         86.67	    10.198
  50.520         66.67	     8.944
  50.540         45.83	     7.416
  50.560         67.50	     9.000
  50.580         65.83	     8.888
  50.600         71.67	     9.274
  50.620         55.83	     8.185
  50.640         50.83	     7.810
  50.660         67.50	     9.000
  50.680         73.33	     9.381
  50.700         95.83	    10.724
  50.720         92.50	    10.536
  50.740         90.00	    10.392
  50.760         92.50	    10.536
  50.780         76.67	     9.592
  50.800         79.17	     9.747
  50.820         88.33	    10.296
  50.840         82.50	     9.950
  50.860         80.00	     9.798
  50.880         82.50	     9.950
  50.900         67.50	     9.000
  50.920         58.33	     8.367
  50.940         63.33	     8.718
  50.960         62.50	     8.660
  50.980         45.83	     7.416
  51.000         48.33	     7.616
  51.020         54.17	     8.062
  51.040         49.17	     7.681
  51.060         53.33	     8.000
  51.080         30.00	     6.000
  51.100         50.00	     7.746
  51.120         46.67	     7.483
  51.140         35.83	     6.557
  51.160         47.50	     7.550
  51.180         57.50	     8.307
  51.200         54.17	     8.062
  51.220         45.00	     7.348
  51.240         70.00	     9.165
  51.260         70.83	     9.220
  51.280         78.33	     9.695
  51.300        101.67	    11.045
  51.320         90.00	    10.392
  51.340         66.67	     8.944
  51.360         80.00	     9.798
  51.380         90.83	    10.440
  51.400         90.00	    10.392
  51.420         88.33	    10.296
  51.440         69.17	     9.110
  51.460         70.00	     9.165
  51.480         79.17	     9.747
  51.500         70.00	     9.165
  51.520         54.17	     8.062
  51.540         63.33	     8.718
  51.560         45.00	     7.348
  51.580         47.50	     7.550
  51.600         57.50	     8.307
  51.620         45.00	     7.348
  51.640         42.50	     7.141
  51.660         32.50	     6.245
  51.680         37.50	     6.708
  51.700         42.50	     7.141
  51.720         35.00	     6.481
  51.740         33.33	     6.325
  51.760         40.00	     6.928
  51.780         40.00	     6.928
  51.800         31.67	     6.164
  51.820         37.50	     6.708
  51.840         35.00	     6.481
  51.860         40.83	     7.000
  51.880         33.33	     6.325
  51.900         38.33	     6.782
  51.920         30.00	     6.000
  51.940         39.17	     6.856
  51.960         31.67	     6.164
  51.980         36.67	     6.633
  52.000         37.50	     6.708
  52.020         34.17	     6.403
  52.040         33.33	     6.325
  52.060         40.00	     6.928
  52.080         39.17	     6.856
  52.100         24.17	     5.385
  52.120         39.17	     6.856
  52.140         30.00	     6.000
  52.160         30.00	     6.000
  52.180         45.00	     7.348
  52.200         50.83	     7.810
  52.220         46.67	     7.483
  52.240         50.00	     7.746
  52.260         48.33	     7.616
  52.280         57.50	     8.307
  52.300         45.00	     7.348
  52.320         60.83	     8.544
  52.340         49.17	     7.681
  52.360         56.67	     8.246
  52.380         55.00	     8.124
  52.400         59.17	     8.426
  52.420         47.50	     7.550
  52.440         50.83	     7.810
  52.460         50.83	     7.810
  52.480         59.17	     8.426
  52.500         59.17	     8.426
  52.520         52.50	     7.937
  52.540         61.67	     8.602
  52.560         78.33	     9.695
  52.580         71.67	     9.274
  52.600         65.00	     8.832
  52.620         60.83	     8.544
  52.640         52.50	     7.937
  52.660         61.67	     8.602
  52.680         60.83	     8.544
  52.700         71.67	     9.274
  52.720         70.00	     9.165
  52.740         65.83	     8.888
  52.760         61.67	     8.602
  52.780         49.17	     7.681
  52.800         59.17	     8.426
  52.820         58.33	     8.367
  52.840         60.83	     8.544
  52.860         55.83	     8.185
  52.880         70.83	     9.220
  52.900         57.50	     8.307
  52.920         47.50	     7.550
  52.940         53.33	     8.000
  52.960         51.67	     7.874
  52.980         55.83	     8.185
  53.000         45.83	     7.416
  53.020         48.33	     7.616
  53.040         61.67	     8.602
  53.060         65.83	     8.888
  53.080         54.17	     8.062
  53.100         63.33	     8.718
  53.120         59.17	     8.426
  53.140         67.50	     9.000
  53.160         63.33	     8.718
  53.180         56.67	     8.246
  53.200         49.17	     7.681
  53.220         49.17	     7.681
  53.240         65.00	     8.832
  53.260         62.50	     8.660
  53.280         70.00	     9.165
  53.300         64.17	     8.775
  53.320         63.33	     8.718
  53.340         60.83	     8.544
  53.360         69.17	     9.110
  53.380         65.83	     8.888
  53.400         47.50	     7.550
  53.420         60.83	     8.544
  53.440         55.83	     8.185
  53.460         55.00	     8.124
  53.480         56.67	     8.246
  53.500         59.17	     8.426
  53.520         60.83	     8.544
  53.540         60.83	     8.544
  53.560         43.33	     7.211
  53.580         42.50	     7.141
  53.600         56.67	     8.246
  53.620         44.17	     7.280
  53.640         45.00	     7.348
  53.660         50.00	     7.746
  53.680         55.83	     8.185
  53.700         44.17	     7.280
  53.720         39.17	     6.856
  53.740         50.00	     7.746
  53.760         43.33	     7.211
  53.780         46.67	     7.483
  53.800         44.17	     7.280
  53.820         42.50	     7.141
  53.840         45.83	     7.416
  53.860         46.67	     7.483
  53.880         40.00	     6.928
  53.900         32.50	     6.245
  53.920         50.00	     7.746
  53.940         37.50	     6.708
  53.960         45.00	     7.348
  53.980         34.17	     6.403
  54.000         47.50	     7.550
  54.020         52.50	     7.937
  54.040         48.33	     7.616
  54.060         45.83	     7.416
  54.080         45.83	     7.416
  54.100         43.33	     7.211
  54.120         45.00	     7.348
  54.140         35.83	     6.557
  54.160         31.67	     6.164
  54.180         51.67	     7.874
  54.200         54.17	     8.062
  54.220         39.17	     6.856
  54.240         47.50	     7.550
  54.260         51.67	     7.874
  54.280         53.33	     8.000
  54.300         54.17	     8.062
  54.320         48.33	     7.616
  54.340         48.33	     7.616
  54.360         53.33	     8.000
  54.380         55.83	     8.185
  54.400         48.33	     7.616
  54.420         63.33	     8.718
  54.440         58.33	     8.367
  54.460         60.83	     8.544
  54.480         56.67	     8.246
  54.500         54.17	     8.062
  54.520         66.67	     8.944
  54.540         55.00	     8.124
  54.560         74.17	     9.434
  54.580         61.67	     8.602
  54.600         61.67	     8.602
  54.620         63.33	     8.718
  54.640         63.33	     8.718
  54.660         51.67	     7.874
  54.680         63.33	     8.718
  54.700         54.17	     8.062
  54.720         80.83	     9.849
  54.740         64.17	     8.775
  54.760         65.83	     8.888
  54.780         70.83	     9.220
  54.800         80.00	     9.798
  54.820         62.50	     8.660
  54.840         71.67	     9.274
  54.860         58.33	     8.367
  54.880         80.83	     9.849
  54.900         90.83	    10.440
  54.920         70.00	     9.165
  54.940         77.50	     9.644
  54.960         90.83	    10.440
  54.980        117.50	    11.874
  55.000        115.83	    11.790
  55.020         93.33	    10.583
  55.040        115.83	    11.790
  55.060         83.33	    10.000
  55.080         84.17	    10.050
  55.100         79.17	     9.747
  55.120         88.33	    10.296
  55.140         70.83	     9.220
  55.160         87.50	    10.247
  55.180         79.17	     9.747
  55.200         76.67	     9.592
  55.220         75.00	     9.487
  55.240         60.83	     8.544
  55.260         75.83	     9.539
  55.280         56.67	     8.246
  55.300         61.67	     8.602
  55.320         66.67	     8.944
  55.340         60.00	     8.485
  55.360         70.83	     9.220
  55.380         62.50	     8.660
  55.400         89.17	    10.344
  55.420         76.67	     9.592
  55.440         81.67	     9.899
  55.460        102.50	    11.091
  55.480         75.83	     9.539
  55.500         88.33	    10.296
  55.520         74.17	     9.434
  55.540         81.67	     9.899
  55.560         81.67	     9.899
  55.580         68.33	     9.055
  55.600         70.00	     9.165
  55.620         68.33	     9.055
  55.640         81.67	     9.899
  55.660         65.00	     8.832
  55.680         79.17	     9.747
  55.700         75.00	     9.487
  55.720         53.33	     8.000
  55.740         78.33	     9.695
  55.760         74.17	     9.434
  55.780         86.67	    10.198
  55.800         90.00	    10.392
  55.820         96.67	    10.770
  55.840         88.33	    10.296
  55.860         85.83	    10.149
  55.880         96.67	    10.770
  55.900         90.83	    10.440
  55.920        106.67	    11.314
  55.940        103.33	    11.136
  55.960         98.33	    10.863
  55.980        100.83	    11.000
  56.000         92.50	    10.536
  56.020         84.17	    10.050
  56.040         85.00	    10.100
  56.060         98.33	    10.863
  56.080         77.50	     9.644
  56.100         86.67	    10.198
  56.120         84.17	    10.050
  56.140         73.33	     9.381
  56.160         75.00	     9.487
  56.180         67.50	     9.000
  56.200         69.17	     9.110
  56.220         61.67	     8.602
  56.240         37.50	     6.708
  56.260         58.33	     8.367
  56.280         59.17	     8.426
  56.300         48.33	     7.616
  56.320         51.67	     7.874
  56.340         65.00	     8.832
  56.360         49.17	     7.681
  56.380         45.83	     7.416
  56.400         34.17	     6.403
  56.420         52.50	     7.937
  56.440         60.83	     8.544
  56.460         45.83	     7.416
  56.480         45.83	     7.416
  56.500         46.67	     7.483
  56.520         56.67	     8.246
  56.540         50.83	     7.810
  56.560         52.50	     7.937
  56.580         34.17	     6.403
  56.600         45.83	     7.416
  56.620         40.83	     7.000
  56.640         45.00	     7.348
  56.660         43.33	     7.211
  56.680         45.83	     7.416
  56.700         62.50	     8.660
  56.720         36.67	     6.633
  56.740         49.17	     7.681
  56.760         39.17	     6.856
  56.780         45.83	     7.416
  56.800         54.17	     8.062
  56.820         44.17	     7.280
  56.840         48.33	     7.616
  56.860         41.67	     7.071
  56.880         48.33	     7.616
  56.900         45.00	     7.348
  56.920         40.00	     6.928
  56.940         35.83	     6.557
  56.960         59.17	     8.426
  56.980         50.00	     7.746
  57.000         45.83	     7.416
  57.020         35.00	     6.481
  57.040         46.67	     7.483
  57.060         35.83	     6.557
  57.080         35.83	     6.557
  57.100         51.67	     7.874
  57.120         42.50	     7.141
  57.140         46.67	     7.483
  57.160         48.33	     7.616
  57.180         43.33	     7.211
  57.200         46.67	     7.483
  57.220         28.33	     5.831
  57.240         38.33	     6.782
  57.260         40.00	     6.928
  57.280         50.00	     7.746
  57.300         44.17	     7.280
  57.320         49.17	     7.681
  57.340         31.67	     6.164
  57.360         47.50	     7.550
  57.380         40.83	     7.000
  57.400         56.67	     8.246
  57.420         42.50	     7.141
  57.440         42.50	     7.141
  57.460         33.33	     6.325
  57.480         36.67	     6.633
  57.500         45.83	     7.416
  57.520         45.83	     7.416
  57.540         47.50	     7.550
  57.560         50.83	     7.810
  57.580         40.83	     7.000
  57.600         39.17	     6.856
  57.620         45.00	     7.348
  57.640         55.83	     8.185
  57.660         42.50	     7.141
  57.680         40.83	     7.000
  57.700         43.33	     7.211
  57.720         42.50	     7.141
  57.740         69.17	     9.110
  57.760         46.67	     7.483
  57.780         49.17	     7.681
  57.800         42.50	     7.141
  57.820         44.17	     7.280
  57.840         48.33	     7.616
  57.860         46.67	     7.483
  57.880         60.00	     8.485
  57.900         40.83	     7.000
  57.920         39.17	     6.856
  57.940         50.00	     7.746
  57.960         40.00	     6.928
  57.980         40.00	     6.928
  58.000         40.00	     6.928
  58.020         35.83	     6.557
  58.040         35.83	     6.557
  58.060         35.00	     6.481
  58.080         36.67	     6.633
  58.100         38.33	     6.782
  58.120         57.50	     8.307
  58.140         48.33	     7.616
  58.160         51.67	     7.874
  58.180         50.00	     7.746
  58.200         44.17	     7.280
  58.220         53.33	     8.000
  58.240         61.67	     8.602
  58.260         51.67	     7.874
  58.280         50.00	     7.746
  58.300         60.00	     8.485
  58.320         54.17	     8.062
  58.340         45.00	     7.348
  58.360         45.00	     7.348
  58.380         54.17	     8.062
  58.400         49.17	     7.681
  58.420         45.83	     7.416
  58.440         44.17	     7.280
  58.460         60.83	     8.544
  58.480         40.83	     7.000
  58.500         44.17	     7.280
  58.520         50.00	     7.746
  58.540         56.67	     8.246
  58.560         50.00	     7.746
  58.580         52.50	     7.937
  58.600         50.00	     7.746
  58.620         55.83	     8.185
  58.640         49.17	     7.681
  58.660         50.83	     7.810
  58.680         63.33	     8.718
  58.700         44.17	     7.280
  58.720         60.83	     8.544
  58.740         55.83	     8.185
  58.760         63.33	     8.718
  58.780         77.50	     9.644
  58.800         60.83	     8.544
  58.820         62.50	     8.660
  58.840         79.17	     9.747
  58.860         55.83	     8.185
  58.880         62.50	     8.660
  58.900         70.83	     9.220
  58.920         70.00	     9.165
  58.940         50.00	     7.746
  58.960         69.17	     9.110
  58.980         57.50	     8.307
  59.000         65.00	     8.832
  59.020         74.17	     9.434
  59.040         70.00	     9.165
  59.060         64.17	     8.775
  59.080         55.83	     8.185
  59.100         66.67	     8.944
  59.120         60.83	     8.544
  59.140         73.33	     9.381
  59.160         72.50	     9.327
  59.180         65.00	     8.832
  59.200         65.83	     8.888
  59.220         80.83	     9.849
  59.240         65.83	     8.888
  59.260         70.83	     9.220
  59.280         58.33	     8.367
  59.300         94.17	    10.630
  59.320         78.33	     9.695
  59.340         84.17	    10.050
  59.360         88.33	    10.296
  59.380         80.00	     9.798
  59.400         70.83	     9.220
  59.420         65.00	     8.832
  59.440         75.83	     9.539
  59.460         75.00	     9.487
  59.480         77.50	     9.644
  59.500         61.67	     8.602
  59.520         75.00	     9.487
  59.540         61.67	     8.602
  59.560         61.67	     8.602
  59.580         55.83	     8.185
  59.600         65.00	     8.832
  59.620         55.83	     8.185
  59.640         63.33	     8.718
  59.660         51.67	     7.874
  59.680         51.67	     7.874
  59.700         62.50	     8.660
  59.720         60.83	     8.544
  59.740         52.50	     7.937
  59.760         57.50	     8.307
  59.780         45.00	     7.348
  59.800         65.83	     8.888
  59.820         54.17	     8.062
  59.840         47.50	     7.550
  59.860         64.17	     8.775
  59.880         53.33	     8.000
  59.900         59.17	     8.426
  59.920         72.50	     9.327
  59.940         89.17	    10.344
  59.960         65.83	     8.888
  59.980         65.00	     8.832
  60.000         92.50	    10.536
  60.020        130.00	    12.490
  60.040        136.67	    12.806
  60.060        175.00	    14.491
  60.080        203.33	    15.620
  60.100        181.67	    14.765
  60.120        168.33	    14.213
  60.140        146.67	    13.266
  60.160        129.17	    12.450
  60.180        110.83	    11.533
  60.200        119.17	    11.958
  60.220        129.17	    12.450
  60.240        128.33	    12.410
  60.260        135.00	    12.728
  60.280        128.33	    12.410
  60.300        100.00	    10.954
  60.320        107.50	    11.358
  60.340         90.83	    10.440
  60.360         75.83	     9.539
  60.380         65.83	     8.888
  60.400         70.83	     9.220
  60.420         67.50	     9.000
  60.440         76.67	     9.592
  60.460         61.67	     8.602
  60.480         60.83	     8.544
  60.500         61.67	     8.602
  60.520         64.17	     8.775
  60.540         67.50	     9.000
  60.560         65.00	     8.832
  60.580         65.83	     8.888
  60.600         68.33	     9.055
  60.620         71.67	     9.274
  60.640         57.50	     8.307
  60.660         48.33	     7.616
  60.680         75.83	     9.539
  60.700         75.00	     9.487
  60.720         62.50	     8.660
  60.740         81.67	     9.899
  60.760         70.83	     9.220
  60.780         64.17	     8.775
  60.800         70.83	     9.220
  60.820         76.67	     9.592
  60.840         59.17	     8.426
  60.860         89.17	    10.344
  60.880         81.67	     9.899
  60.900         70.83	     9.220
  60.920         86.67	    10.198
  60.940         85.00	    10.100
  60.960         78.33	     9.695
  60.980         89.17	    10.344
  61.000         72.50	     9.327
  61.020         91.67	    10.488
  61.040         83.33	    10.000
  61.060         87.50	    10.247
  61.080         79.17	     9.747
  61.100         88.33	    10.296
  61.120         76.67	     9.592
  61.140         76.67	     9.592
  61.160         78.33	     9.695
  61.180         80.00	     9.798
  61.200         79.17	     9.747
  61.220         71.67	     9.274
  61.240         62.50	     8.660
  61.260         55.83	     8.185
  61.280         59.17	     8.426
  61.300         70.00	     9.165
  61.320         61.67	     8.602
  61.340         60.83	     8.544
  61.360         65.00	     8.832
  61.380         55.00	     8.124
  61.400         70.00	     9.165
  61.420         60.83	     8.544
  61.440         67.50	     9.000
  61.460         71.67	     9.274
  61.480         68.33	     9.055
  61.500         83.33	    10.000
  61.520         84.17	    10.050
  61.540         74.17	     9.434
  61.560         61.67	     8.602
  61.580         65.00	     8.832
  61.600         74.17	     9.434
  61.620         79.17	     9.747
  61.640         75.83	     9.539
  61.660         83.33	    10.000
  61.680         70.83	     9.220
  61.700         65.00	     8.832
  61.720         77.50	     9.644
  61.740         76.67	     9.592
  61.760         80.83	     9.849
  61.780         69.17	     9.110
  61.800         78.33	     9.695
  61.820         76.67	     9.592
  61.840         77.50	     9.644
  61.860         60.83	     8.544
  61.880         64.17	     8.775
  61.900         81.67	     9.899
  61.920         64.17	     8.775
  61.940         80.00	     9.798
  61.960         74.17	     9.434
  61.980         60.00	     8.485
  62.000         75.00	     9.487
  62.020         69.17	     9.110
  62.040         64.17	     8.775
  62.060         60.83	     8.544
  62.080         71.67	     9.274
  62.100         61.67	     8.602
  62.120         66.67	     8.944
  62.140         55.00	     8.124
  62.160         72.50	     9.327
  62.180         65.00	     8.832
  62.200         68.33	     9.055
  62.220         76.67	     9.592
  62.240         60.83	     8.544
  62.260         61.67	     8.602
  62.280         57.50	     8.307
  62.300         53.33	     8.000
  62.320         49.17	     7.681
  62.340         45.83	     7.416
  62.360         70.00	     9.165
  62.380         52.50	     7.937
  62.400         52.50	     7.937
  62.420         55.00	     8.124
  62.440         48.33	     7.616
  62.460         49.17	     7.681
  62.480         46.67	     7.483
  62.500         52.50	     7.937
  62.520         48.33	     7.616
  62.540         35.83	     6.557
  62.560         42.50	     7.141
  62.580         38.33	     6.782
  62.600         54.17	     8.062
  62.620         50.00	     7.746
  62.640         34.17	     6.403
  62.660         55.83	     8.185
  62.680         55.00	     8.124
  62.700         35.00	     6.481
  62.720         46.67	     7.483
  62.740         43.33	     7.211
  62.760         71.67	     9.274
  62.780         60.00	     8.485
  62.800         64.17	     8.775
  62.820         60.83	     8.544
  62.840         55.83	     8.185
  62.860         52.50	     7.937
  62.880         40.83	     7.000
  62.900         38.33	     6.782
  62.920         41.67	     7.071
  62.940         55.00	     8.124
  62.960         58.33	     8.367
  62.980         34.17	     6.403
  63.000         45.83	     7.416
  63.020         57.50	     8.307
  63.040         49.17	     7.681
  63.060         46.67	     7.483
  63.080         63.33	     8.718
  63.100         39.17	     6.856
  63.120         44.17	     7.280
  63.140         50.00	     7.746
  63.160         43.33	     7.211
  63.180         43.33	     7.211
  63.200         45.83	     7.416
  63.220         49.17	     7.681
  63.240         42.50	     7.141
  63.260         36.67	     6.633
  63.280         50.83	     7.810
  63.300         36.67	     6.633
  63.320         50.83	     7.810
  63.340         60.83	     8.544
  63.360         39.17	     6.856
  63.380         53.33	     8.000
  63.400         50.83	     7.810
  63.420         40.83	     7.000
  63.440         47.50	     7.550
  63.460         50.00	     7.746
  63.480         51.67	     7.874
  63.500         41.67	     7.071
  63.520         63.33	     8.718
  63.540         55.00	     8.124
  63.560         51.67	     7.874
  63.580         55.00	     8.124
  63.600         68.33	     9.055
  63.620         62.50	     8.660
  63.640         60.00	     8.485
  63.660         55.83	     8.185
  63.680         59.17	     8.426
  63.700         43.33	     7.211
  63.720         39.17	     6.856
  63.740         56.67	     8.246
  63.760         57.50	     8.307
  63.780         53.33	     8.000
  63.800         65.83	     8.888
  63.820         62.50	     8.660
  63.840         50.83	     7.810
  63.860         53.33	     8.000
  63.880         56.67	     8.246
  63.900         57.50	     8.307
  63.920         59.17	     8.426
  63.940         61.67	     8.602
  63.960         43.33	     7.211
  63.980         62.50	     8.660
  64.000         66.67	     8.944
  64.020         76.67	     9.592
  64.040         70.00	     9.165
  64.060         57.50	     8.307
  64.080         59.17	     8.426
  64.100         71.67	     9.274
  64.120         67.50	     9.000
  64.140        110.00	    11.489
  64.160         79.17	     9.747
  64.180         81.67	     9.899
  64.200         67.50	     9.000
  64.220         69.17	     9.110
  64.240         78.33	     9.695
  64.260         90.83	    10.440
  64.280         90.00	    10.392
  64.300         85.83	    10.149
  64.320         75.00	     9.487
  64.340         89.17	    10.344
  64.360         80.00	     9.798
  64.380         75.83	     9.539
  64.400         72.50	     9.327
  64.420         73.33	     9.381
  64.440         71.67	     9.274
  64.460         60.00	     8.485
  64.480         43.33	     7.211
  64.500         65.83	     8.888
  64.520         55.83	     8.185
  64.540         55.00	     8.124
  64.560         49.17	     7.681
  64.580         51.67	     7.874
  64.600         46.67	     7.483
  64.620         50.00	     7.746
  64.640         42.50	     7.141
  64.660         50.83	     7.810
  64.680         57.50	     8.307
  64.700         44.17	     7.280
  64.720         46.67	     7.483
  64.740         47.50	     7.550
  64.760         53.33	     8.000
  64.780         69.17	     9.110
  64.800         70.00	     9.165
  64.820         77.50	     9.644
  64.840         53.33	     8.000
  64.860         71.67	     9.274
  64.880         69.17	     9.110
  64.900         67.50	     9.000
  64.920         63.33	     8.718
  64.940         77.50	     9.644
  64.960         69.17	     9.110
  64.980         61.67	     8.602
  65.000         65.00	     8.832
