
Filename:
	C:\Program Files\Thermo Electron\WinXRD\Datafiles\F_HERMAN\FIEN\G15_RT.raw

File Created:
	January 30, 2020 - 09:25 AM

Specimen Id:
	G15 RT

Specimen Name:
	

Specimen Description:
	

Comment:
Scan Type: 2Theta Scan
Start Angle: 3 deg.
Stop Angle: 65 deg.
Num Points: 3101
Step Size: 0.02 deg.
Scan Rate: 1.000000
Scan Mode: Continuous
Wavelength: 1.540562
\Kalpha1: 1.540562	\Kalpha2: 1.544390	\Kbeta: 1.392218

Optics:
		Detector:
			 Type: Fixed Slits
		Tube: 
			 Type: Fixed Slits


Datas:
 Pos [deg]       Rate [CPS]      ESD [-]

Range 1 ---> Iteration 1
   3.000        428.33	    22.672
   3.020        417.50	    22.383
   3.040        440.83	    23.000
   3.060        425.83	    22.605
   3.080        460.83	    23.516
   3.100        440.83	    23.000
   3.120        405.83	    22.068
   3.140        435.83	    22.869
   3.160        410.00	    22.181
   3.180        440.00	    22.978
   3.200        415.00	    22.316
   3.220        385.00	    21.494
   3.240        390.83	    21.656
   3.260        382.50	    21.424
   3.280        377.50	    21.284
   3.300        418.33	    22.405
   3.320        372.50	    21.142
   3.340        370.83	    21.095
   3.360        401.67	    21.954
   3.380        352.50	    20.567
   3.400        401.67	    21.954
   3.420        405.83	    22.068
   3.440        385.00	    21.494
   3.460        375.00	    21.213
   3.480        395.83	    21.794
   3.500        364.17	    20.905
   3.520        390.83	    21.656
   3.540        359.17	    20.761
   3.560        380.83	    21.378
   3.580        333.33	    20.000
   3.600        367.50	    21.000
   3.620        370.00	    21.071
   3.640        340.83	    20.224
   3.660        360.00	    20.785
   3.680        354.17	    20.616
   3.700        339.17	    20.174
   3.720        355.83	    20.664
   3.740        355.83	    20.664
   3.760        363.33	    20.881
   3.780        320.00	    19.596
   3.800        340.00	    20.199
   3.820        344.17	    20.322
   3.840        334.17	    20.025
   3.860        305.83	    19.157
   3.880        328.33	    19.849
   3.900        328.33	    19.849
   3.920        307.50	    19.209
   3.940        305.83	    19.157
   3.960        292.50	    18.735
   3.980        303.33	    19.079
   4.000        295.00	    18.815
   4.020        313.33	    19.391
   4.040        289.17	    18.628
   4.060        300.83	    19.000
   4.080        315.00	    19.442
   4.100        317.50	    19.519
   4.120        335.00	    20.050
   4.140        277.50	    18.248
   4.160        311.67	    19.339
   4.180        274.17	    18.138
   4.200        323.33	    19.698
   4.220        282.50	    18.412
   4.240        310.00	    19.287
   4.260        283.33	    18.439
   4.280        281.67	    18.385
   4.300        273.33	    18.111
   4.320        290.83	    18.682
   4.340        271.67	    18.055
   4.360        280.00	    18.330
   4.380        260.00	    17.664
   4.400        267.50	    17.916
   4.420        293.33	    18.762
   4.440        314.17	    19.416
   4.460        277.50	    18.248
   4.480        260.83	    17.692
   4.500        281.67	    18.385
   4.520        250.00	    17.321
   4.540        260.83	    17.692
   4.560        265.00	    17.833
   4.580        251.67	    17.378
   4.600        249.17	    17.292
   4.620        296.67	    18.868
   4.640        274.17	    18.138
   4.660        255.83	    17.521
   4.680        263.33	    17.776
   4.700        270.83	    18.028
   4.720        282.50	    18.412
   4.740        263.33	    17.776
   4.760        255.83	    17.521
   4.780        264.17	    17.804
   4.800        265.00	    17.833
   4.820        260.83	    17.692
   4.840        255.83	    17.521
   4.860        263.33	    17.776
   4.880        244.17	    17.117
   4.900        237.50	    16.882
   4.920        259.17	    17.635
   4.940        258.33	    17.607
   4.960        237.50	    16.882
   4.980        233.33	    16.733
   5.000        259.17	    17.635
   5.020        250.83	    17.349
   5.040        241.67	    17.029
   5.060        234.17	    16.763
   5.080        225.00	    16.432
   5.100        221.67	    16.310
   5.120        225.00	    16.432
   5.140        252.50	    17.407
   5.160        227.50	    16.523
   5.180        260.83	    17.692
   5.200        241.67	    17.029
   5.220        216.67	    16.125
   5.240        230.83	    16.643
   5.260        190.83	    15.133
   5.280        215.00	    16.062
   5.300        225.00	    16.432
   5.320        220.00	    16.248
   5.340        218.33	    16.186
   5.360        225.83	    16.462
   5.380        215.83	    16.093
   5.400        223.33	    16.371
   5.420        246.67	    17.205
   5.440        220.00	    16.248
   5.460        229.17	    16.583
   5.480        224.17	    16.401
   5.500        218.33	    16.186
   5.520        207.50	    15.780
   5.540        216.67	    16.125
   5.560        214.17	    16.031
   5.580        214.17	    16.031
   5.600        231.67	    16.673
   5.620        240.00	    16.971
   5.640        221.67	    16.310
   5.660        254.17	    17.464
   5.680        230.83	    16.643
   5.700        253.33	    17.436
   5.720        271.67	    18.055
   5.740        253.33	    17.436
   5.760        256.67	    17.550
   5.780        295.00	    18.815
   5.800        261.67	    17.720
   5.820        293.33	    18.762
   5.840        310.83	    19.313
   5.860        398.33	    21.863
   5.880        533.33	    25.298
   5.900        581.67	    26.420
   5.920        490.83	    24.269
   5.940        396.67	    21.817
   5.960        385.83	    21.517
   5.980        395.00	    21.772
   6.000        361.67	    20.833
   6.020        345.00	    20.347
   6.040        352.50	    20.567
   6.060        305.00	    19.131
   6.080        310.83	    19.313
   6.100        309.17	    19.261
   6.120        350.00	    20.494
   6.140        311.67	    19.339
   6.160        296.67	    18.868
   6.180        263.33	    17.776
   6.200        200.00	    15.492
   6.220        242.50	    17.059
   6.240        207.50	    15.780
   6.260        220.00	    16.248
   6.280        209.17	    15.843
   6.300        197.50	    15.395
   6.320        217.50	    16.155
   6.340        204.17	    15.652
   6.360        187.50	    15.000
   6.380        191.67	    15.166
   6.400        224.17	    16.401
   6.420        214.17	    16.031
   6.440        184.17	    14.866
   6.460        212.50	    15.969
   6.480        183.33	    14.832
   6.500        195.00	    15.297
   6.520        177.50	    14.595
   6.540        200.00	    15.492
   6.560        191.67	    15.166
   6.580        196.67	    15.362
   6.600        190.83	    15.133
   6.620        184.17	    14.866
   6.640        183.33	    14.832
   6.660        196.67	    15.362
   6.680        215.83	    16.093
   6.700        181.67	    14.765
   6.720        218.33	    16.186
   6.740        156.67	    13.711
   6.760        183.33	    14.832
   6.780        166.67	    14.142
   6.800        189.17	    15.067
   6.820        176.67	    14.560
   6.840        200.83	    15.524
   6.860        170.00	    14.283
   6.880        165.83	    14.107
   6.900        172.50	    14.387
   6.920        177.50	    14.595
   6.940        170.83	    14.318
   6.960        164.17	    14.036
   6.980        161.67	    13.928
   7.000        188.33	    15.033
   7.020        165.00	    14.071
   7.040        194.17	    15.264
   7.060        174.17	    14.457
   7.080        186.67	    14.967
   7.100        150.83	    13.454
   7.120        158.33	    13.784
   7.140        162.50	    13.964
   7.160        180.83	    14.731
   7.180        145.83	    13.229
   7.200        185.83	    14.933
   7.220        167.50	    14.177
   7.240        180.00	    14.697
   7.260        186.67	    14.967
   7.280        164.17	    14.036
   7.300        177.50	    14.595
   7.320        163.33	    14.000
   7.340        164.17	    14.036
   7.360        168.33	    14.213
   7.380        183.33	    14.832
   7.400        160.00	    13.856
   7.420        162.50	    13.964
   7.440        174.17	    14.457
   7.460        168.33	    14.213
   7.480        170.00	    14.283
   7.500        165.83	    14.107
   7.520        185.00	    14.900
   7.540        170.00	    14.283
   7.560        163.33	    14.000
   7.580        175.83	    14.526
   7.600        158.33	    13.784
   7.620        148.33	    13.342
   7.640        151.67	    13.491
   7.660        160.83	    13.892
   7.680        173.33	    14.422
   7.700        186.67	    14.967
   7.720        144.17	    13.153
   7.740        170.00	    14.283
   7.760        150.83	    13.454
   7.780        145.00	    13.191
   7.800        155.83	    13.675
   7.820        164.17	    14.036
   7.840        131.67	    12.570
   7.860        161.67	    13.928
   7.880        149.17	    13.379
   7.900        152.50	    13.528
   7.920        151.67	    13.491
   7.940        170.00	    14.283
   7.960        131.67	    12.570
   7.980        155.83	    13.675
   8.000        165.00	    14.071
   8.020        139.17	    12.923
   8.040        147.50	    13.304
   8.060        130.00	    12.490
   8.080        165.83	    14.107
   8.100        144.17	    13.153
   8.120        159.17	    13.820
   8.140        160.00	    13.856
   8.160        156.67	    13.711
   8.180        157.50	    13.748
   8.200        157.50	    13.748
   8.220        149.17	    13.379
   8.240        142.50	    13.077
   8.260        158.33	    13.784
   8.280        142.50	    13.077
   8.300        171.67	    14.353
   8.320        157.50	    13.748
   8.340        165.00	    14.071
   8.360        170.83	    14.318
   8.380        172.50	    14.387
   8.400        185.83	    14.933
   8.420        189.17	    15.067
   8.440        181.67	    14.765
   8.460        163.33	    14.000
   8.480        188.33	    15.033
   8.500        189.17	    15.067
   8.520        213.33	    16.000
   8.540        198.33	    15.427
   8.560        250.00	    17.321
   8.580        249.17	    17.292
   8.600        303.33	    19.079
   8.620        328.33	    19.849
   8.640        404.17	    22.023
   8.660        460.83	    23.516
   8.680        482.50	    24.062
   8.700        474.17	    23.854
   8.720        459.17	    23.473
   8.740        590.83	    26.627
   8.760        794.17	    30.871
   8.780        940.83	    33.601
   8.800        823.33	    31.432
   8.820        548.33	    25.652
   8.840        323.33	    19.698
   8.860        205.83	    15.716
   8.880        211.67	    15.937
   8.900        166.67	    14.142
   8.920        173.33	    14.422
   8.940        150.83	    13.454
   8.960        156.67	    13.711
   8.980        155.00	    13.638
   9.000        156.67	    13.711
   9.020        167.50	    14.177
   9.040        165.83	    14.107
   9.060        157.50	    13.748
   9.080        165.83	    14.107
   9.100        157.50	    13.748
   9.120        130.83	    12.530
   9.140        145.00	    13.191
   9.160        125.83	    12.288
   9.180        128.33	    12.410
   9.200        161.67	    13.928
   9.220        140.83	    13.000
   9.240        125.00	    12.247
   9.260        141.67	    13.038
   9.280        128.33	    12.410
   9.300        146.67	    13.266
   9.320        150.00	    13.416
   9.340        158.33	    13.784
   9.360        186.67	    14.967
   9.380        143.33	    13.115
   9.400        131.67	    12.570
   9.420        123.33	    12.166
   9.440        132.50	    12.610
   9.460        124.17	    12.207
   9.480        132.50	    12.610
   9.500        128.33	    12.410
   9.520        137.50	    12.845
   9.540        123.33	    12.166
   9.560        121.67	    12.083
   9.580        116.67	    11.832
   9.600        122.50	    12.124
   9.620        137.50	    12.845
   9.640        139.17	    12.923
   9.660        135.83	    12.767
   9.680        128.33	    12.410
   9.700        118.33	    11.916
   9.720        117.50	    11.874
   9.740         99.17	    10.909
   9.760        105.83	    11.269
   9.780        113.33	    11.662
   9.800        115.00	    11.747
   9.820        110.00	    11.489
   9.840        111.67	    11.576
   9.860        115.83	    11.790
   9.880        104.17	    11.180
   9.900        122.50	    12.124
   9.920        105.00	    11.225
   9.940        120.83	    12.042
   9.960        118.33	    11.916
   9.980        113.33	    11.662
  10.000        124.17	    12.207
  10.020        110.00	    11.489
  10.040        120.83	    12.042
  10.060        100.83	    11.000
  10.080        104.17	    11.180
  10.100        111.67	    11.576
  10.120        110.00	    11.489
  10.140        113.33	    11.662
  10.160        115.83	    11.790
  10.180        108.33	    11.402
  10.200        100.00	    10.954
  10.220        102.50	    11.091
  10.240        106.67	    11.314
  10.260        102.50	    11.091
  10.280        121.67	    12.083
  10.300        102.50	    11.091
  10.320        121.67	    12.083
  10.340        137.50	    12.845
  10.360        134.17	    12.689
  10.380        141.67	    13.038
  10.400        158.33	    13.784
  10.420        195.00	    15.297
  10.440        193.33	    15.232
  10.460        216.67	    16.125
  10.480        207.50	    15.780
  10.500        187.50	    15.000
  10.520        142.50	    13.077
  10.540        130.00	    12.490
  10.560        105.00	    11.225
  10.580         96.67	    10.770
  10.600        109.17	    11.446
  10.620        115.83	    11.790
  10.640        103.33	    11.136
  10.660         87.50	    10.247
  10.680        115.00	    11.747
  10.700        109.17	    11.446
  10.720        111.67	    11.576
  10.740         95.00	    10.677
  10.760         97.50	    10.817
  10.780        106.67	    11.314
  10.800         83.33	    10.000
  10.820         91.67	    10.488
  10.840         93.33	    10.583
  10.860         90.00	    10.392
  10.880        106.67	    11.314
  10.900        111.67	    11.576
  10.920        118.33	    11.916
  10.940        105.00	    11.225
  10.960        108.33	    11.402
  10.980        108.33	    11.402
  11.000        103.33	    11.136
  11.020        100.00	    10.954
  11.040         98.33	    10.863
  11.060        100.83	    11.000
  11.080         96.67	    10.770
  11.100        102.50	    11.091
  11.120        109.17	    11.446
  11.140         97.50	    10.817
  11.160         77.50	     9.644
  11.180         94.17	    10.630
  11.200        102.50	    11.091
  11.220         80.83	     9.849
  11.240         92.50	    10.536
  11.260        106.67	    11.314
  11.280        103.33	    11.136
  11.300        108.33	    11.402
  11.320        102.50	    11.091
  11.340        114.17	    11.705
  11.360        105.83	    11.269
  11.380        115.00	    11.747
  11.400        105.83	    11.269
  11.420         94.17	    10.630
  11.440         91.67	    10.488
  11.460         81.67	     9.899
  11.480         90.00	    10.392
  11.500        113.33	    11.662
  11.520         86.67	    10.198
  11.540        107.50	    11.358
  11.560        110.83	    11.533
  11.580        109.17	    11.446
  11.600        120.83	    12.042
  11.620        103.33	    11.136
  11.640        105.83	    11.269
  11.660        109.17	    11.446
  11.680        102.50	    11.091
  11.700        115.00	    11.747
  11.720        112.50	    11.619
  11.740        105.00	    11.225
  11.760         85.83	    10.149
  11.780        118.33	    11.916
  11.800        100.00	    10.954
  11.820        102.50	    11.091
  11.840        118.33	    11.916
  11.860        102.50	    11.091
  11.880        121.67	    12.083
  11.900        119.17	    11.958
  11.920        140.00	    12.961
  11.940        131.67	    12.570
  11.960        135.83	    12.767
  11.980        161.67	    13.928
  12.000        163.33	    14.000
  12.020        196.67	    15.362
  12.040        244.17	    17.117
  12.060        321.67	    19.647
  12.080        416.67	    22.361
  12.100        475.00	    23.875
  12.120        363.33	    20.881
  12.140        250.00	    17.321
  12.160        200.83	    15.524
  12.180        187.50	    15.000
  12.200        170.83	    14.318
  12.220        211.67	    15.937
  12.240        200.00	    15.492
  12.260        226.67	    16.492
  12.280        252.50	    17.407
  12.300        226.67	    16.492
  12.320        209.17	    15.843
  12.340        227.50	    16.523
  12.360        287.50	    18.574
  12.380        322.50	    19.672
  12.400        392.50	    21.703
  12.420        368.33	    21.024
  12.440        292.50	    18.735
  12.460        202.50	    15.588
  12.480        141.67	    13.038
  12.500        117.50	    11.874
  12.520        100.83	    11.000
  12.540        109.17	    11.446
  12.560        106.67	    11.314
  12.580         96.67	    10.770
  12.600        125.00	    12.247
  12.620         95.83	    10.724
  12.640        105.00	    11.225
  12.660         92.50	    10.536
  12.680        103.33	    11.136
  12.700         90.83	    10.440
  12.720         93.33	    10.583
  12.740         96.67	    10.770
  12.760         93.33	    10.583
  12.780         81.67	     9.899
  12.800         85.00	    10.100
  12.820         82.50	     9.950
  12.840         78.33	     9.695
  12.860         83.33	    10.000
  12.880         95.00	    10.677
  12.900         85.00	    10.100
  12.920         80.83	     9.849
  12.940         80.83	     9.849
  12.960        103.33	    11.136
  12.980        100.83	    11.000
  13.000         95.00	    10.677
  13.020         89.17	    10.344
  13.040         86.67	    10.198
  13.060         83.33	    10.000
  13.080         84.17	    10.050
  13.100         92.50	    10.536
  13.120         91.67	    10.488
  13.140         97.50	    10.817
  13.160         85.00	    10.100
  13.180         82.50	     9.950
  13.200         71.67	     9.274
  13.220         82.50	     9.950
  13.240         82.50	     9.950
  13.260         85.00	    10.100
  13.280         75.00	     9.487
  13.300         75.83	     9.539
  13.320         73.33	     9.381
  13.340         72.50	     9.327
  13.360         90.83	    10.440
  13.380         85.83	    10.149
  13.400         96.67	    10.770
  13.420         69.17	     9.110
  13.440         73.33	     9.381
  13.460         88.33	    10.296
  13.480         83.33	    10.000
  13.500         75.00	     9.487
  13.520         69.17	     9.110
  13.540         99.17	    10.909
  13.560         90.00	    10.392
  13.580         79.17	     9.747
  13.600         82.50	     9.950
  13.620         91.67	    10.488
  13.640         72.50	     9.327
  13.660         78.33	     9.695
  13.680        104.17	    11.180
  13.700         85.83	    10.149
  13.720         81.67	     9.899
  13.740         85.00	    10.100
  13.760        103.33	    11.136
  13.780         85.00	    10.100
  13.800         88.33	    10.296
  13.820         98.33	    10.863
  13.840         93.33	    10.583
  13.860         75.83	     9.539
  13.880         79.17	     9.747
  13.900         64.17	     8.775
  13.920         79.17	     9.747
  13.940         76.67	     9.592
  13.960         83.33	    10.000
  13.980         75.00	     9.487
  14.000         81.67	     9.899
  14.020         88.33	    10.296
  14.040         78.33	     9.695
  14.060         77.50	     9.644
  14.080         70.83	     9.220
  14.100         79.17	     9.747
  14.120         83.33	    10.000
  14.140         75.00	     9.487
  14.160         68.33	     9.055
  14.180         75.83	     9.539
  14.200         62.50	     8.660
  14.220         79.17	     9.747
  14.240         71.67	     9.274
  14.260         86.67	    10.198
  14.280         77.50	     9.644
  14.300         77.50	     9.644
  14.320         86.67	    10.198
  14.340         83.33	    10.000
  14.360         75.83	     9.539
  14.380         60.00	     8.485
  14.400         98.33	    10.863
  14.420         72.50	     9.327
  14.440         70.83	     9.220
  14.460         70.83	     9.220
  14.480         77.50	     9.644
  14.500         78.33	     9.695
  14.520         71.67	     9.274
  14.540         75.83	     9.539
  14.560         89.17	    10.344
  14.580         89.17	    10.344
  14.600         79.17	     9.747
  14.620         75.00	     9.487
  14.640         82.50	     9.950
  14.660         80.00	     9.798
  14.680         72.50	     9.327
  14.700         89.17	    10.344
  14.720         72.50	     9.327
  14.740         80.00	     9.798
  14.760         80.00	     9.798
  14.780        107.50	    11.358
  14.800         73.33	     9.381
  14.820         72.50	     9.327
  14.840         73.33	     9.381
  14.860         73.33	     9.381
  14.880         65.83	     8.888
  14.900         88.33	    10.296
  14.920         80.83	     9.849
  14.940         92.50	    10.536
  14.960         67.50	     9.000
  14.980         60.83	     8.544
  15.000         63.33	     8.718
  15.020         83.33	    10.000
  15.040         74.17	     9.434
  15.060         60.83	     8.544
  15.080         72.50	     9.327
  15.100         62.50	     8.660
  15.120         80.83	     9.849
  15.140         51.67	     7.874
  15.160         78.33	     9.695
  15.180         58.33	     8.367
  15.200         78.33	     9.695
  15.220         75.00	     9.487
  15.240         70.00	     9.165
  15.260         60.83	     8.544
  15.280         73.33	     9.381
  15.300         74.17	     9.434
  15.320         74.17	     9.434
  15.340         64.17	     8.775
  15.360         65.83	     8.888
  15.380         62.50	     8.660
  15.400         68.33	     9.055
  15.420         76.67	     9.592
  15.440         85.83	    10.149
  15.460         50.00	     7.746
  15.480         61.67	     8.602
  15.500         68.33	     9.055
  15.520         82.50	     9.950
  15.540         70.00	     9.165
  15.560         56.67	     8.246
  15.580         77.50	     9.644
  15.600         87.50	    10.247
  15.620         70.83	     9.220
  15.640         78.33	     9.695
  15.660         63.33	     8.718
  15.680         70.00	     9.165
  15.700         63.33	     8.718
  15.720         68.33	     9.055
  15.740         60.83	     8.544
  15.760         73.33	     9.381
  15.780         70.83	     9.220
  15.800         67.50	     9.000
  15.820         67.50	     9.000
  15.840         83.33	    10.000
  15.860         69.17	     9.110
  15.880         61.67	     8.602
  15.900         74.17	     9.434
  15.920         77.50	     9.644
  15.940         78.33	     9.695
  15.960         61.67	     8.602
  15.980         66.67	     8.944
  16.000         67.50	     9.000
  16.020         70.83	     9.220
  16.040         55.83	     8.185
  16.060         60.83	     8.544
  16.080         56.67	     8.246
  16.100         72.50	     9.327
  16.120         57.50	     8.307
  16.140         60.83	     8.544
  16.160         68.33	     9.055
  16.180         70.83	     9.220
  16.200         60.83	     8.544
  16.220         66.67	     8.944
  16.240         60.00	     8.485
  16.260         70.00	     9.165
  16.280         63.33	     8.718
  16.300         53.33	     8.000
  16.320         63.33	     8.718
  16.340         64.17	     8.775
  16.360         70.83	     9.220
  16.380         58.33	     8.367
  16.400         56.67	     8.246
  16.420         60.83	     8.544
  16.440         64.17	     8.775
  16.460         63.33	     8.718
  16.480         65.00	     8.832
  16.500         70.83	     9.220
  16.520         69.17	     9.110
  16.540         59.17	     8.426
  16.560         67.50	     9.000
  16.580         55.83	     8.185
  16.600         67.50	     9.000
  16.620         65.83	     8.888
  16.640         60.00	     8.485
  16.660         60.83	     8.544
  16.680         60.00	     8.485
  16.700         75.00	     9.487
  16.720         57.50	     8.307
  16.740         65.83	     8.888
  16.760         70.83	     9.220
  16.780         58.33	     8.367
  16.800         60.83	     8.544
  16.820         58.33	     8.367
  16.840         79.17	     9.747
  16.860         70.00	     9.165
  16.880         55.00	     8.124
  16.900         57.50	     8.307
  16.920         71.67	     9.274
  16.940         77.50	     9.644
  16.960         74.17	     9.434
  16.980         73.33	     9.381
  17.000         68.33	     9.055
  17.020         51.67	     7.874
  17.040         58.33	     8.367
  17.060         68.33	     9.055
  17.080         59.17	     8.426
  17.100         66.67	     8.944
  17.120         60.83	     8.544
  17.140         67.50	     9.000
  17.160         73.33	     9.381
  17.180         73.33	     9.381
  17.200         80.00	     9.798
  17.220         54.17	     8.062
  17.240         69.17	     9.110
  17.260         74.17	     9.434
  17.280         84.17	    10.050
  17.300         58.33	     8.367
  17.320         66.67	     8.944
  17.340         70.83	     9.220
  17.360         57.50	     8.307
  17.380         68.33	     9.055
  17.400         75.83	     9.539
  17.420         76.67	     9.592
  17.440         65.83	     8.888
  17.460         64.17	     8.775
  17.480         72.50	     9.327
  17.500         65.00	     8.832
  17.520         62.50	     8.660
  17.540         78.33	     9.695
  17.560         76.67	     9.592
  17.580         71.67	     9.274
  17.600         79.17	     9.747
  17.620         91.67	    10.488
  17.640        135.83	    12.767
  17.660        155.00	    13.638
  17.680        247.50	    17.234
  17.700        289.17	    18.628
  17.720        305.00	    19.131
  17.740        287.50	    18.574
  17.760        268.33	    17.944
  17.780        195.83	    15.330
  17.800        133.33	    12.649
  17.820         99.17	    10.909
  17.840         61.67	     8.602
  17.860         80.00	     9.798
  17.880         67.50	     9.000
  17.900         80.00	     9.798
  17.920         85.00	    10.100
  17.940         71.67	     9.274
  17.960         52.50	     7.937
  17.980         71.67	     9.274
  18.000         82.50	     9.950
  18.020         68.33	     9.055
  18.040         72.50	     9.327
  18.060         70.83	     9.220
  18.080         62.50	     8.660
  18.100         77.50	     9.644
  18.120         59.17	     8.426
  18.140         74.17	     9.434
  18.160         59.17	     8.426
  18.180         61.67	     8.602
  18.200         77.50	     9.644
  18.220         74.17	     9.434
  18.240         60.83	     8.544
  18.260         74.17	     9.434
  18.280         70.00	     9.165
  18.300        100.83	    11.000
  18.320        108.33	    11.402
  18.340        108.33	    11.402
  18.360        115.00	    11.747
  18.380         92.50	    10.536
  18.400         86.67	    10.198
  18.420         99.17	    10.909
  18.440        100.00	    10.954
  18.460        107.50	    11.358
  18.480        109.17	    11.446
  18.500         95.00	    10.677
  18.520         99.17	    10.909
  18.540        105.83	    11.269
  18.560        100.00	    10.954
  18.580         76.67	     9.592
  18.600        114.17	    11.705
  18.620         82.50	     9.950
  18.640        102.50	    11.091
  18.660        130.83	    12.530
  18.680        149.17	    13.379
  18.700        190.83	    15.133
  18.720        150.00	    13.416
  18.740        141.67	    13.038
  18.760        106.67	    11.314
  18.780        107.50	    11.358
  18.800         71.67	     9.274
  18.820         69.17	     9.110
  18.840         74.17	     9.434
  18.860         78.33	     9.695
  18.880         74.17	     9.434
  18.900         60.83	     8.544
  18.920         69.17	     9.110
  18.940         65.83	     8.888
  18.960         60.00	     8.485
  18.980         78.33	     9.695
  19.000         76.67	     9.592
  19.020         81.67	     9.899
  19.040         75.00	     9.487
  19.060         80.00	     9.798
  19.080         76.67	     9.592
  19.100         74.17	     9.434
  19.120         70.00	     9.165
  19.140         83.33	    10.000
  19.160         75.00	     9.487
  19.180         81.67	     9.899
  19.200         95.00	    10.677
  19.220         65.83	     8.888
  19.240         65.83	     8.888
  19.260         69.17	     9.110
  19.280         83.33	    10.000
  19.300         73.33	     9.381
  19.320         71.67	     9.274
  19.340         86.67	    10.198
  19.360         74.17	     9.434
  19.380         70.00	     9.165
  19.400         52.50	     7.937
  19.420         69.17	     9.110
  19.440         60.00	     8.485
  19.460         81.67	     9.899
  19.480         84.17	    10.050
  19.500         73.33	     9.381
  19.520         66.67	     8.944
  19.540         82.50	     9.950
  19.560         80.00	     9.798
  19.580         91.67	    10.488
  19.600         89.17	    10.344
  19.620         87.50	    10.247
  19.640         92.50	    10.536
  19.660         85.00	    10.100
  19.680         98.33	    10.863
  19.700        102.50	    11.091
  19.720        112.50	    11.619
  19.740        120.83	    12.042
  19.760        121.67	    12.083
  19.780        104.17	    11.180
  19.800        106.67	    11.314
  19.820         95.00	    10.677
  19.840         99.17	    10.909
  19.860         73.33	     9.381
  19.880         80.83	     9.849
  19.900         59.17	     8.426
  19.920         73.33	     9.381
  19.940         74.17	     9.434
  19.960         66.67	     8.944
  19.980         62.50	     8.660
  20.000         71.67	     9.274
  20.020         60.83	     8.544
  20.040         73.33	     9.381
  20.060         80.00	     9.798
  20.080         79.17	     9.747
  20.100         72.50	     9.327
  20.120         54.17	     8.062
  20.140         71.67	     9.274
  20.160         70.83	     9.220
  20.180         71.67	     9.274
  20.200         49.17	     7.681
  20.220         58.33	     8.367
  20.240         65.00	     8.832
  20.260         80.83	     9.849
  20.280         55.83	     8.185
  20.300         68.33	     9.055
  20.320         63.33	     8.718
  20.340         58.33	     8.367
  20.360         55.00	     8.124
  20.380         64.17	     8.775
  20.400         60.83	     8.544
  20.420         70.83	     9.220
  20.440         77.50	     9.644
  20.460         67.50	     9.000
  20.480         76.67	     9.592
  20.500         80.83	     9.849
  20.520         71.67	     9.274
  20.540         84.17	    10.050
  20.560         84.17	    10.050
  20.580         65.83	     8.888
  20.600         70.83	     9.220
  20.620         64.17	     8.775
  20.640         85.00	    10.100
  20.660         90.00	    10.392
  20.680        107.50	    11.358
  20.700        118.33	    11.916
  20.720        220.00	    16.248
  20.740        321.67	    19.647
  20.760        282.50	    18.412
  20.780        254.17	    17.464
  20.800        227.50	    16.523
  20.820        145.00	    13.191
  20.840        116.67	    11.832
  20.860         92.50	    10.536
  20.880         90.83	    10.440
  20.900         74.17	     9.434
  20.920         84.17	    10.050
  20.940         75.00	     9.487
  20.960         89.17	    10.344
  20.980         71.67	     9.274
  21.000         57.50	     8.307
  21.020         74.17	     9.434
  21.040         70.00	     9.165
  21.060         66.67	     8.944
  21.080         75.00	     9.487
  21.100         69.17	     9.110
  21.120         53.33	     8.000
  21.140         57.50	     8.307
  21.160         64.17	     8.775
  21.180         62.50	     8.660
  21.200         70.00	     9.165
  21.220         64.17	     8.775
  21.240         70.83	     9.220
  21.260         62.50	     8.660
  21.280         67.50	     9.000
  21.300         61.67	     8.602
  21.320         52.50	     7.937
  21.340         60.00	     8.485
  21.360         70.83	     9.220
  21.380         65.00	     8.832
  21.400         65.00	     8.832
  21.420         49.17	     7.681
  21.440         66.67	     8.944
  21.460         63.33	     8.718
  21.480         71.67	     9.274
  21.500         65.83	     8.888
  21.520         67.50	     9.000
  21.540         74.17	     9.434
  21.560         61.67	     8.602
  21.580         59.17	     8.426
  21.600         64.17	     8.775
  21.620         54.17	     8.062
  21.640         67.50	     9.000
  21.660         66.67	     8.944
  21.680         64.17	     8.775
  21.700         65.83	     8.888
  21.720         76.67	     9.592
  21.740         69.17	     9.110
  21.760         74.17	     9.434
  21.780         80.00	     9.798
  21.800         70.83	     9.220
  21.820         88.33	    10.296
  21.840         83.33	    10.000
  21.860        115.83	    11.790
  21.880        170.83	    14.318
  21.900        229.17	    16.583
  21.920        187.50	    15.000
  21.940        250.83	    17.349
  21.960        221.67	    16.310
  21.980        175.83	    14.526
  22.000        117.50	    11.874
  22.020        113.33	    11.662
  22.040         78.33	     9.695
  22.060         70.83	     9.220
  22.080         64.17	     8.775
  22.100         61.67	     8.602
  22.120         66.67	     8.944
  22.140         57.50	     8.307
  22.160         65.00	     8.832
  22.180         56.67	     8.246
  22.200         80.83	     9.849
  22.220         71.67	     9.274
  22.240         60.00	     8.485
  22.260         79.17	     9.747
  22.280         92.50	    10.536
  22.300         78.33	     9.695
  22.320         84.17	    10.050
  22.340         80.00	     9.798
  22.360         82.50	     9.950
  22.380         78.33	     9.695
  22.400         80.83	     9.849
  22.420         87.50	    10.247
  22.440         62.50	     8.660
  22.460         79.17	     9.747
  22.480         70.83	     9.220
  22.500         64.17	     8.775
  22.520         70.00	     9.165
  22.540         65.00	     8.832
  22.560         55.00	     8.124
  22.580         63.33	     8.718
  22.600         65.00	     8.832
  22.620         51.67	     7.874
  22.640         75.83	     9.539
  22.660         65.83	     8.888
  22.680         60.00	     8.485
  22.700         74.17	     9.434
  22.720        108.33	    11.402
  22.740         87.50	    10.247
  22.760         85.00	    10.100
  22.780         88.33	    10.296
  22.800        104.17	    11.180
  22.820         93.33	    10.583
  22.840         88.33	    10.296
  22.860         86.67	    10.198
  22.880         85.83	    10.149
  22.900        101.67	    11.045
  22.920         93.33	    10.583
  22.940        111.67	    11.576
  22.960        109.17	    11.446
  22.980        118.33	    11.916
  23.000         87.50	    10.247
  23.020         79.17	     9.747
  23.040         65.83	     8.888
  23.060         65.83	     8.888
  23.080         60.83	     8.544
  23.100         61.67	     8.602
  23.120         65.83	     8.888
  23.140         44.17	     7.280
  23.160         64.17	     8.775
  23.180         70.00	     9.165
  23.200         64.17	     8.775
  23.220         61.67	     8.602
  23.240         57.50	     8.307
  23.260         63.33	     8.718
  23.280         60.83	     8.544
  23.300         83.33	    10.000
  23.320         55.83	     8.185
  23.340         68.33	     9.055
  23.360         70.83	     9.220
  23.380         90.00	    10.392
  23.400         94.17	    10.630
  23.420        150.00	    13.416
  23.440        135.00	    12.728
  23.460        130.83	    12.530
  23.480        127.50	    12.369
  23.500        112.50	    11.619
  23.520         99.17	    10.909
  23.540        109.17	    11.446
  23.560         92.50	    10.536
  23.580         85.83	    10.149
  23.600         85.83	    10.149
  23.620         81.67	     9.899
  23.640         87.50	    10.247
  23.660        105.00	    11.225
  23.680         93.33	    10.583
  23.700         96.67	    10.770
  23.720         87.50	    10.247
  23.740         91.67	    10.488
  23.760         95.83	    10.724
  23.780         67.50	     9.000
  23.800         82.50	     9.950
  23.820         88.33	    10.296
  23.840         85.00	    10.100
  23.860         67.50	     9.000
  23.880         62.50	     8.660
  23.900         71.67	     9.274
  23.920         84.17	    10.050
  23.940         88.33	    10.296
  23.960         67.50	     9.000
  23.980         73.33	     9.381
  24.000         84.17	    10.050
  24.020         83.33	    10.000
  24.040        112.50	    11.619
  24.060         95.83	    10.724
  24.080        105.00	    11.225
  24.100        120.00	    12.000
  24.120        123.33	    12.166
  24.140        118.33	    11.916
  24.160        130.00	    12.490
  24.180        135.83	    12.767
  24.200        172.50	    14.387
  24.220        126.67	    12.329
  24.240        113.33	    11.662
  24.260        107.50	    11.358
  24.280         89.17	    10.344
  24.300         91.67	    10.488
  24.320         85.83	    10.149
  24.340         93.33	    10.583
  24.360         98.33	    10.863
  24.380         96.67	    10.770
  24.400        120.83	    12.042
  24.420        146.67	    13.266
  24.440        159.17	    13.820
  24.460        175.00	    14.491
  24.480        245.83	    17.176
  24.500        238.33	    16.912
  24.520        225.83	    16.462
  24.540        220.00	    16.248
  24.560        197.50	    15.395
  24.580        183.33	    14.832
  24.600        180.00	    14.697
  24.620        153.33	    13.565
  24.640        154.17	    13.601
  24.660        149.17	    13.379
  24.680        131.67	    12.570
  24.700        130.83	    12.530
  24.720        151.67	    13.491
  24.740        121.67	    12.083
  24.760        144.17	    13.153
  24.780        119.17	    11.958
  24.800        119.17	    11.958
  24.820        120.83	    12.042
  24.840        116.67	    11.832
  24.860        109.17	    11.446
  24.880        110.83	    11.533
  24.900        120.00	    12.000
  24.920        115.00	    11.747
  24.940        115.00	    11.747
  24.960        130.00	    12.490
  24.980        145.83	    13.229
  25.000        184.17	    14.866
  25.020        212.50	    15.969
  25.040        220.00	    16.248
  25.060        235.83	    16.823
  25.080        284.17	    18.466
  25.100        216.67	    16.125
  25.120        182.50	    14.799
  25.140        155.00	    13.638
  25.160        126.67	    12.329
  25.180         93.33	    10.583
  25.200        105.00	    11.225
  25.220        116.67	    11.832
  25.240        110.00	    11.489
  25.260        126.67	    12.329
  25.280         95.00	    10.677
  25.300        126.67	    12.329
  25.320        133.33	    12.649
  25.340        143.33	    13.115
  25.360        157.50	    13.748
  25.380        135.83	    12.767
  25.400        158.33	    13.784
  25.420        129.17	    12.450
  25.440        136.67	    12.806
  25.460        122.50	    12.124
  25.480        126.67	    12.329
  25.500        118.33	    11.916
  25.520        110.00	    11.489
  25.540        104.17	    11.180
  25.560        103.33	    11.136
  25.580        105.00	    11.225
  25.600         98.33	    10.863
  25.620         91.67	    10.488
  25.640         79.17	     9.747
  25.660         85.00	    10.100
  25.680         73.33	     9.381
  25.700         78.33	     9.695
  25.720         73.33	     9.381
  25.740         75.83	     9.539
  25.760         68.33	     9.055
  25.780         69.17	     9.110
  25.800         70.83	     9.220
  25.820         58.33	     8.367
  25.840         88.33	    10.296
  25.860         79.17	     9.747
  25.880         71.67	     9.274
  25.900         75.00	     9.487
  25.920         71.67	     9.274
  25.940         68.33	     9.055
  25.960         83.33	    10.000
  25.980         54.17	     8.062
  26.000         75.00	     9.487
  26.020         85.83	    10.149
  26.040         66.67	     8.944
  26.060         79.17	     9.747
  26.080         85.83	    10.149
  26.100         76.67	     9.592
  26.120         87.50	    10.247
  26.140         80.83	     9.849
  26.160        102.50	    11.091
  26.180         93.33	    10.583
  26.200        112.50	    11.619
  26.220        126.67	    12.329
  26.240        110.83	    11.533
  26.260        171.67	    14.353
  26.280        179.17	    14.663
  26.300        258.33	    17.607
  26.320        375.83	    21.237
  26.340        288.33	    18.601
  26.360        230.83	    16.643
  26.380        268.33	    17.944
  26.400        319.17	    19.570
  26.420        276.67	    18.221
  26.440        295.83	    18.841
  26.460        412.50	    22.249
  26.480        691.67	    28.810
  26.500       1374.17	    40.608
  26.520       1732.50	    45.596
  26.540       1580.83	    43.555
  26.560       1306.67	    39.598
  26.580       1107.50	    36.455
  26.600        979.17	    34.278
  26.620        699.17	    28.965
  26.640        470.00	    23.749
  26.660        352.50	    20.567
  26.680        383.33	    21.448
  26.700        469.17	    23.728
  26.720        658.33	    28.107
  26.740        768.33	    30.364
  26.760        780.83	    30.610
  26.780        750.83	    30.017
  26.800        682.50	    28.618
  26.820        640.83	    27.731
  26.840        525.83	    25.120
  26.860        429.17	    22.694
  26.880        317.50	    19.519
  26.900        238.33	    16.912
  26.920        215.83	    16.093
  26.940        166.67	    14.142
  26.960        188.33	    15.033
  26.980        151.67	    13.491
  27.000        146.67	    13.266
  27.020        148.33	    13.342
  27.040        121.67	    12.083
  27.060        110.00	    11.489
  27.080        113.33	    11.662
  27.100         83.33	    10.000
  27.120         80.83	     9.849
  27.140         84.17	    10.050
  27.160         84.17	    10.050
  27.180         95.00	    10.677
  27.200         98.33	    10.863
  27.220         72.50	     9.327
  27.240         76.67	     9.592
  27.260        105.00	    11.225
  27.280         80.00	     9.798
  27.300         99.17	    10.909
  27.320         93.33	    10.583
  27.340        130.00	    12.490
  27.360        143.33	    13.115
  27.380        131.67	    12.570
  27.400        128.33	    12.410
  27.420        140.83	    13.000
  27.440        125.83	    12.288
  27.460        130.83	    12.530
  27.480        100.00	    10.954
  27.500         92.50	    10.536
  27.520        104.17	    11.180
  27.540         87.50	    10.247
  27.560        110.00	    11.489
  27.580        150.83	    13.454
  27.600        170.00	    14.283
  27.620        218.33	    16.186
  27.640        219.17	    16.217
  27.660        260.00	    17.664
  27.680        350.00	    20.494
  27.700        430.00	    22.716
  27.720        385.83	    21.517
  27.740        359.17	    20.761
  27.760        411.67	    22.226
  27.780        454.17	    23.345
  27.800        340.00	    20.199
  27.820        306.67	    19.183
  27.840        311.67	    19.339
  27.860        265.83	    17.861
  27.880        234.17	    16.763
  27.900        177.50	    14.595
  27.920        148.33	    13.342
  27.940        133.33	    12.649
  27.960        147.50	    13.304
  27.980        146.67	    13.266
  28.000        184.17	    14.866
  28.020        170.83	    14.318
  28.040        176.67	    14.560
  28.060        152.50	    13.528
  28.080        161.67	    13.928
  28.100        136.67	    12.806
  28.120        125.83	    12.288
  28.140        131.67	    12.570
  28.160        110.83	    11.533
  28.180        147.50	    13.304
  28.200        113.33	    11.662
  28.220        104.17	    11.180
  28.240         98.33	    10.863
  28.260         83.33	    10.000
  28.280         88.33	    10.296
  28.300         89.17	    10.344
  28.320         79.17	     9.747
  28.340         86.67	    10.198
  28.360         70.83	     9.220
  28.380         67.50	     9.000
  28.400         76.67	     9.592
  28.420         85.00	    10.100
  28.440         95.00	    10.677
  28.460         95.00	    10.677
  28.480        119.17	    11.958
  28.500        120.83	    12.042
  28.520        144.17	    13.153
  28.540        109.17	    11.446
  28.560        122.50	    12.124
  28.580        116.67	    11.832
  28.600        109.17	    11.446
  28.620         99.17	    10.909
  28.640         74.17	     9.434
  28.660         85.83	    10.149
  28.680         80.00	     9.798
  28.700         79.17	     9.747
  28.720         75.00	     9.487
  28.740         67.50	     9.000
  28.760         57.50	     8.307
  28.780         55.83	     8.185
  28.800         77.50	     9.644
  28.820         51.67	     7.874
  28.840         60.83	     8.544
  28.860         45.00	     7.348
  28.880         51.67	     7.874
  28.900         62.50	     8.660
  28.920         60.00	     8.485
  28.940         54.17	     8.062
  28.960         37.50	     6.708
  28.980         60.83	     8.544
  29.000         54.17	     8.062
  29.020         48.33	     7.616
  29.040         55.83	     8.185
  29.060         55.00	     8.124
  29.080         58.33	     8.367
  29.100         56.67	     8.246
  29.120         53.33	     8.000
  29.140         61.67	     8.602
  29.160         54.17	     8.062
  29.180         49.17	     7.681
  29.200         55.00	     8.124
  29.220         47.50	     7.550
  29.240         49.17	     7.681
  29.260         45.83	     7.416
  29.280         52.50	     7.937
  29.300         51.67	     7.874
  29.320         60.00	     8.485
  29.340         59.17	     8.426
  29.360         50.83	     7.810
  29.380         66.67	     8.944
  29.400         65.83	     8.888
  29.420         55.83	     8.185
  29.440         65.83	     8.888
  29.460         55.83	     8.185
  29.480         52.50	     7.937
  29.500         60.00	     8.485
  29.520         54.17	     8.062
  29.540         62.50	     8.660
  29.560         55.83	     8.185
  29.580         58.33	     8.367
  29.600         70.83	     9.220
  29.620         82.50	     9.950
  29.640         85.00	    10.100
  29.660         92.50	    10.536
  29.680        100.00	    10.954
  29.700        105.00	    11.225
  29.720        106.67	    11.314
  29.740        140.00	    12.961
  29.760        137.50	    12.845
  29.780        150.83	    13.454
  29.800        125.83	    12.288
  29.820        124.17	    12.207
  29.840        100.00	    10.954
  29.860        106.67	    11.314
  29.880         90.00	    10.392
  29.900        103.33	    11.136
  29.920         73.33	     9.381
  29.940         88.33	    10.296
  29.960         90.00	    10.392
  29.980         76.67	     9.592
  30.000         85.00	    10.100
  30.020         93.33	    10.583
  30.040         70.00	     9.165
  30.060         75.83	     9.539
  30.080         65.83	     8.888
  30.100         84.17	    10.050
  30.120         71.67	     9.274
  30.140         86.67	    10.198
  30.160         74.17	     9.434
  30.180         96.67	    10.770
  30.200         94.17	    10.630
  30.220         81.67	     9.899
  30.240         88.33	    10.296
  30.260        108.33	    11.402
  30.280        115.00	    11.747
  30.300         74.17	     9.434
  30.320         98.33	    10.863
  30.340         86.67	    10.198
  30.360         99.17	    10.909
  30.380         93.33	    10.583
  30.400         80.00	     9.798
  30.420         78.33	     9.695
  30.440         81.67	     9.899
  30.460         78.33	     9.695
  30.480         65.00	     8.832
  30.500         55.83	     8.185
  30.520         65.00	     8.832
  30.540         75.00	     9.487
  30.560         65.83	     8.888
  30.580         64.17	     8.775
  30.600         61.67	     8.602
  30.620         73.33	     9.381
  30.640         62.50	     8.660
  30.660         61.67	     8.602
  30.680         65.83	     8.888
  30.700         66.67	     8.944
  30.720         76.67	     9.592
  30.740         80.83	     9.849
  30.760         87.50	    10.247
  30.780         78.33	     9.695
  30.800         69.17	     9.110
  30.820         80.00	     9.798
  30.840         81.67	     9.899
  30.860         64.17	     8.775
  30.880         94.17	    10.630
  30.900         80.00	     9.798
  30.920        105.83	    11.269
  30.940        107.50	    11.358
  30.960        122.50	    12.124
  30.980        106.67	    11.314
  31.000         98.33	    10.863
  31.020        111.67	    11.576
  31.040        142.50	    13.077
  31.060        114.17	    11.705
  31.080        110.83	    11.533
  31.100         96.67	    10.770
  31.120        105.83	    11.269
  31.140        128.33	    12.410
  31.160        100.00	    10.954
  31.180        104.17	    11.180
  31.200         73.33	     9.381
  31.220         95.83	    10.724
  31.240         74.17	     9.434
  31.260         80.00	     9.798
  31.280         80.83	     9.849
  31.300         81.67	     9.899
  31.320         66.67	     8.944
  31.340         70.00	     9.165
  31.360         75.83	     9.539
  31.380         83.33	    10.000
  31.400         71.67	     9.274
  31.420         77.50	     9.644
  31.440         76.67	     9.592
  31.460         73.33	     9.381
  31.480         90.83	    10.440
  31.500         89.17	    10.344
  31.520         77.50	     9.644
  31.540         70.83	     9.220
  31.560         57.50	     8.307
  31.580         55.83	     8.185
  31.600         54.17	     8.062
  31.620         61.67	     8.602
  31.640         60.00	     8.485
  31.660         63.33	     8.718
  31.680         69.17	     9.110
  31.700         48.33	     7.616
  31.720         61.67	     8.602
  31.740         66.67	     8.944
  31.760         51.67	     7.874
  31.780         57.50	     8.307
  31.800         66.67	     8.944
  31.820         60.83	     8.544
  31.840         73.33	     9.381
  31.860         83.33	    10.000
  31.880         75.00	     9.487
  31.900         81.67	     9.899
  31.920         91.67	    10.488
  31.940         87.50	    10.247
  31.960         71.67	     9.274
  31.980         73.33	     9.381
  32.000         96.67	    10.770
  32.020        100.00	    10.954
  32.040         72.50	     9.327
  32.060         92.50	    10.536
  32.080         62.50	     8.660
  32.100         68.33	     9.055
  32.120         70.83	     9.220
  32.140         80.00	     9.798
  32.160         75.83	     9.539
  32.180         83.33	    10.000
  32.200         65.83	     8.888
  32.220         55.83	     8.185
  32.240         60.00	     8.485
  32.260         54.17	     8.062
  32.280         55.83	     8.185
  32.300         50.00	     7.746
  32.320         49.17	     7.681
  32.340         51.67	     7.874
  32.360         40.83	     7.000
  32.380         45.00	     7.348
  32.400         53.33	     8.000
  32.420         45.83	     7.416
  32.440         36.67	     6.633
  32.460         43.33	     7.211
  32.480         35.00	     6.481
  32.500         37.50	     6.708
  32.520         44.17	     7.280
  32.540         33.33	     6.325
  32.560         45.00	     7.348
  32.580         44.17	     7.280
  32.600         55.00	     8.124
  32.620         39.17	     6.856
  32.640         49.17	     7.681
  32.660         44.17	     7.280
  32.680         49.17	     7.681
  32.700         49.17	     7.681
  32.720         50.00	     7.746
  32.740         45.00	     7.348
  32.760         53.33	     8.000
  32.780         55.83	     8.185
  32.800         50.00	     7.746
  32.820         45.83	     7.416
  32.840         40.00	     6.928
  32.860         53.33	     8.000
  32.880         50.83	     7.810
  32.900         69.17	     9.110
  32.920         62.50	     8.660
  32.940         63.33	     8.718
  32.960         60.00	     8.485
  32.980         56.67	     8.246
  33.000         57.50	     8.307
  33.020         54.17	     8.062
  33.040         45.00	     7.348
  33.060         54.17	     8.062
  33.080         42.50	     7.141
  33.100         58.33	     8.367
  33.120         50.00	     7.746
  33.140         37.50	     6.708
  33.160         55.00	     8.124
  33.180         58.33	     8.367
  33.200         42.50	     7.141
  33.220         44.17	     7.280
  33.240         53.33	     8.000
  33.260         48.33	     7.616
  33.280         44.17	     7.280
  33.300         58.33	     8.367
  33.320         50.00	     7.746
  33.340         48.33	     7.616
  33.360         49.17	     7.681
  33.380         54.17	     8.062
  33.400         55.00	     8.124
  33.420         41.67	     7.071
  33.440         37.50	     6.708
  33.460         44.17	     7.280
  33.480         46.67	     7.483
  33.500         45.83	     7.416
  33.520         48.33	     7.616
  33.540         45.00	     7.348
  33.560         51.67	     7.874
  33.580         50.00	     7.746
  33.600         52.50	     7.937
  33.620         56.67	     8.246
  33.640         51.67	     7.874
  33.660         54.17	     8.062
  33.680         61.67	     8.602
  33.700         59.17	     8.426
  33.720         57.50	     8.307
  33.740         67.50	     9.000
  33.760         71.67	     9.274
  33.780         53.33	     8.000
  33.800         68.33	     9.055
  33.820         69.17	     9.110
  33.840         50.83	     7.810
  33.860         58.33	     8.367
  33.880         79.17	     9.747
  33.900         75.00	     9.487
  33.920         67.50	     9.000
  33.940         76.67	     9.592
  33.960         76.67	     9.592
  33.980         74.17	     9.434
  34.000         72.50	     9.327
  34.020         60.83	     8.544
  34.040         76.67	     9.592
  34.060         52.50	     7.937
  34.080         48.33	     7.616
  34.100         71.67	     9.274
  34.120         78.33	     9.695
  34.140         50.00	     7.746
  34.160         57.50	     8.307
  34.180         56.67	     8.246
  34.200         58.33	     8.367
  34.220         61.67	     8.602
  34.240         71.67	     9.274
  34.260         64.17	     8.775
  34.280         62.50	     8.660
  34.300         70.83	     9.220
  34.320         80.00	     9.798
  34.340         89.17	    10.344
  34.360        101.67	    11.045
  34.380        101.67	    11.045
  34.400         92.50	    10.536
  34.420        129.17	    12.450
  34.440        100.00	    10.954
  34.460        127.50	    12.369
  34.480        145.00	    13.191
  34.500        130.00	    12.490
  34.520        119.17	    11.958
  34.540        111.67	    11.576
  34.560        135.00	    12.728
  34.580        140.83	    13.000
  34.600        122.50	    12.124
  34.620         90.83	    10.440
  34.640         96.67	    10.770
  34.660        110.00	    11.489
  34.680        111.67	    11.576
  34.700        100.83	    11.000
  34.720        110.00	    11.489
  34.740        105.00	    11.225
  34.760        113.33	    11.662
  34.780        129.17	    12.450
  34.800        125.00	    12.247
  34.820        124.17	    12.207
  34.840        120.83	    12.042
  34.860        151.67	    13.491
  34.880        138.33	    12.884
  34.900        141.67	    13.038
  34.920        140.83	    13.000
  34.940        112.50	    11.619
  34.960        130.00	    12.490
  34.980        107.50	    11.358
  35.000         99.17	    10.909
  35.020         90.00	    10.392
  35.040        111.67	    11.576
  35.060         93.33	    10.583
  35.080         91.67	    10.488
  35.100         70.83	     9.220
  35.120         85.00	    10.100
  35.140         92.50	    10.536
  35.160         65.00	     8.832
  35.180         89.17	    10.344
  35.200         80.00	     9.798
  35.220         82.50	     9.950
  35.240         82.50	     9.950
  35.260         80.83	     9.849
  35.280        108.33	    11.402
  35.300         93.33	    10.583
  35.320         96.67	    10.770
  35.340        102.50	    11.091
  35.360        152.50	    13.528
  35.380        144.17	    13.153
  35.400        170.83	    14.318
  35.420        205.83	    15.716
  35.440        215.83	    16.093
  35.460        177.50	    14.595
  35.480        152.50	    13.528
  35.500        145.83	    13.229
  35.520        179.17	    14.663
  35.540        155.00	    13.638
  35.560        128.33	    12.410
  35.580        116.67	    11.832
  35.600         85.83	    10.149
  35.620         78.33	     9.695
  35.640         74.17	     9.434
  35.660         60.00	     8.485
  35.680         75.83	     9.539
  35.700         82.50	     9.950
  35.720         68.33	     9.055
  35.740         55.00	     8.124
  35.760         57.50	     8.307
  35.780         55.83	     8.185
  35.800         55.83	     8.185
  35.820         59.17	     8.426
  35.840         74.17	     9.434
  35.860         62.50	     8.660
  35.880         79.17	     9.747
  35.900         73.33	     9.381
  35.920        123.33	    12.166
  35.940         86.67	    10.198
  35.960        102.50	    11.091
  35.980         99.17	    10.909
  36.000         87.50	    10.247
  36.020        109.17	    11.446
  36.040         87.50	    10.247
  36.060         92.50	    10.536
  36.080         71.67	     9.274
  36.100         80.00	     9.798
  36.120         68.33	     9.055
  36.140         69.17	     9.110
  36.160         61.67	     8.602
  36.180         65.00	     8.832
  36.200         48.33	     7.616
  36.220         65.83	     8.888
  36.240         50.00	     7.746
  36.260         66.67	     8.944
  36.280         71.67	     9.274
  36.300         74.17	     9.434
  36.320         88.33	    10.296
  36.340         81.67	     9.899
  36.360         92.50	    10.536
  36.380        129.17	    12.450
  36.400        160.83	    13.892
  36.420        185.83	    14.933
  36.440        158.33	    13.784
  36.460        134.17	    12.689
  36.480        131.67	    12.570
  36.500        113.33	    11.662
  36.520        160.83	    13.892
  36.540        122.50	    12.124
  36.560        108.33	    11.402
  36.580        110.83	    11.533
  36.600        111.67	    11.576
  36.620         77.50	     9.644
  36.640         85.00	    10.100
  36.660         83.33	    10.000
  36.680         95.83	    10.724
  36.700         75.00	     9.487
  36.720         61.67	     8.602
  36.740         69.17	     9.110
  36.760         74.17	     9.434
  36.780         60.83	     8.544
  36.800         54.17	     8.062
  36.820         62.50	     8.660
  36.840         70.83	     9.220
  36.860         50.00	     7.746
  36.880         46.67	     7.483
  36.900         57.50	     8.307
  36.920         53.33	     8.000
  36.940         43.33	     7.211
  36.960         65.00	     8.832
  36.980         60.00	     8.485
  37.000         49.17	     7.681
  37.020         53.33	     8.000
  37.040         56.67	     8.246
  37.060         55.83	     8.185
  37.080         60.00	     8.485
  37.100         55.83	     8.185
  37.120         55.83	     8.185
  37.140         55.83	     8.185
  37.160         72.50	     9.327
  37.180         72.50	     9.327
  37.200         70.00	     9.165
  37.220         85.00	    10.100
  37.240         88.33	    10.296
  37.260         93.33	    10.583
  37.280         79.17	     9.747
  37.300         79.17	     9.747
  37.320         80.83	     9.849
  37.340         97.50	    10.817
  37.360         77.50	     9.644
  37.380         82.50	     9.950
  37.400        101.67	    11.045
  37.420         83.33	    10.000
  37.440         82.50	     9.950
  37.460         85.00	    10.100
  37.480         81.67	     9.899
  37.500         90.83	    10.440
  37.520         90.00	    10.392
  37.540         90.00	    10.392
  37.560         96.67	    10.770
  37.580        102.50	    11.091
  37.600         89.17	    10.344
  37.620         81.67	     9.899
  37.640         87.50	    10.247
  37.660         78.33	     9.695
  37.680         80.83	     9.849
  37.700         78.33	     9.695
  37.720         75.00	     9.487
  37.740         79.17	     9.747
  37.760         60.00	     8.485
  37.780         59.17	     8.426
  37.800         55.83	     8.185
  37.820         73.33	     9.381
  37.840         41.67	     7.071
  37.860         45.83	     7.416
  37.880         49.17	     7.681
  37.900         40.83	     7.000
  37.920         39.17	     6.856
  37.940         50.00	     7.746
  37.960         36.67	     6.633
  37.980         40.00	     6.928
  38.000         52.50	     7.937
  38.020         55.00	     8.124
  38.040         78.33	     9.695
  38.060         92.50	    10.536
  38.080         63.33	     8.718
  38.100         42.50	     7.141
  38.120         57.50	     8.307
  38.140         69.17	     9.110
  38.160         62.50	     8.660
  38.180         60.00	     8.485
  38.200         45.00	     7.348
  38.220         48.33	     7.616
  38.240         50.83	     7.810
  38.260         38.33	     6.782
  38.280         44.17	     7.280
  38.300         40.00	     6.928
  38.320         45.00	     7.348
  38.340         45.83	     7.416
  38.360         52.50	     7.937
  38.380         54.17	     8.062
  38.400         56.67	     8.246
  38.420         38.33	     6.782
  38.440         48.33	     7.616
  38.460         55.83	     8.185
  38.480         59.17	     8.426
  38.500         69.17	     9.110
  38.520         65.00	     8.832
  38.540         60.00	     8.485
  38.560         58.33	     8.367
  38.580         56.67	     8.246
  38.600         58.33	     8.367
  38.620         69.17	     9.110
  38.640         56.67	     8.246
  38.660         50.83	     7.810
  38.680         45.83	     7.416
  38.700         68.33	     9.055
  38.720         53.33	     8.000
  38.740         62.50	     8.660
  38.760         51.67	     7.874
  38.780         46.67	     7.483
  38.800         47.50	     7.550
  38.820         58.33	     8.367
  38.840         49.17	     7.681
  38.860         49.17	     7.681
  38.880         58.33	     8.367
  38.900         46.67	     7.483
  38.920         57.50	     8.307
  38.940         38.33	     6.782
  38.960         38.33	     6.782
  38.980         40.83	     7.000
  39.000         58.33	     8.367
  39.020         58.33	     8.367
  39.040         54.17	     8.062
  39.060         57.50	     8.307
  39.080         88.33	    10.296
  39.100         77.50	     9.644
  39.120         60.83	     8.544
  39.140         56.67	     8.246
  39.160         55.00	     8.124
  39.180         55.00	     8.124
  39.200         69.17	     9.110
  39.220         64.17	     8.775
  39.240         61.67	     8.602
  39.260         65.00	     8.832
  39.280         54.17	     8.062
  39.300         80.83	     9.849
  39.320        100.00	    10.954
  39.340        120.83	    12.042
  39.360        157.50	    13.748
  39.380        130.83	    12.530
  39.400        116.67	    11.832
  39.420         95.00	    10.677
  39.440        109.17	    11.446
  39.460        100.83	    11.000
  39.480         95.00	    10.677
  39.500         74.17	     9.434
  39.520         70.00	     9.165
  39.540         57.50	     8.307
  39.560         69.17	     9.110
  39.580         54.17	     8.062
  39.600         67.50	     9.000
  39.620         56.67	     8.246
  39.640         74.17	     9.434
  39.660         62.50	     8.660
  39.680         56.67	     8.246
  39.700         57.50	     8.307
  39.720         50.83	     7.810
  39.740         62.50	     8.660
  39.760         62.50	     8.660
  39.780         66.67	     8.944
  39.800         48.33	     7.616
  39.820         63.33	     8.718
  39.840         64.17	     8.775
  39.860         66.67	     8.944
  39.880         60.83	     8.544
  39.900         52.50	     7.937
  39.920         62.50	     8.660
  39.940         48.33	     7.616
  39.960         56.67	     8.246
  39.980         49.17	     7.681
  40.000         59.17	     8.426
  40.020         45.83	     7.416
  40.040         37.50	     6.708
  40.060         57.50	     8.307
  40.080         49.17	     7.681
  40.100         50.00	     7.746
  40.120         62.50	     8.660
  40.140         81.67	     9.899
  40.160        102.50	    11.091
  40.180        106.67	    11.314
  40.200         85.83	    10.149
  40.220         81.67	     9.899
  40.240         86.67	    10.198
  40.260         70.00	     9.165
  40.280         85.00	    10.100
  40.300         83.33	    10.000
  40.320         45.00	     7.348
  40.340         64.17	     8.775
  40.360         62.50	     8.660
  40.380         50.83	     7.810
  40.400         50.83	     7.810
  40.420         45.83	     7.416
  40.440         64.17	     8.775
  40.460         51.67	     7.874
  40.480         30.83	     6.083
  40.500         38.33	     6.782
  40.520         47.50	     7.550
  40.540         63.33	     8.718
  40.560         46.67	     7.483
  40.580         43.33	     7.211
  40.600         38.33	     6.782
  40.620         52.50	     7.937
  40.640         46.67	     7.483
  40.660         41.67	     7.071
  40.680         46.67	     7.483
  40.700         64.17	     8.775
  40.720         49.17	     7.681
  40.740         55.83	     8.185
  40.760         56.67	     8.246
  40.780         60.00	     8.485
  40.800         59.17	     8.426
  40.820         53.33	     8.000
  40.840         56.67	     8.246
  40.860         66.67	     8.944
  40.880         57.50	     8.307
  40.900         65.00	     8.832
  40.920         70.00	     9.165
  40.940         58.33	     8.367
  40.960         51.67	     7.874
  40.980         40.00	     6.928
  41.000         50.83	     7.810
  41.020         59.17	     8.426
  41.040         56.67	     8.246
  41.060         61.67	     8.602
  41.080         56.67	     8.246
  41.100         49.17	     7.681
  41.120         67.50	     9.000
  41.140         57.50	     8.307
  41.160         72.50	     9.327
  41.180         70.00	     9.165
  41.200         72.50	     9.327
  41.220         61.67	     8.602
  41.240         57.50	     8.307
  41.260         57.50	     8.307
  41.280         62.50	     8.660
  41.300         70.00	     9.165
  41.320         51.67	     7.874
  41.340         59.17	     8.426
  41.360         53.33	     8.000
  41.380         50.83	     7.810
  41.400         52.50	     7.937
  41.420         55.00	     8.124
  41.440         53.33	     8.000
  41.460         66.67	     8.944
  41.480         87.50	    10.247
  41.500         70.83	     9.220
  41.520         82.50	     9.950
  41.540         93.33	    10.583
  41.560         89.17	    10.344
  41.580        100.00	    10.954
  41.600         98.33	    10.863
  41.620         85.83	    10.149
  41.640         81.67	     9.899
  41.660        100.00	    10.954
  41.680         78.33	     9.695
  41.700         69.17	     9.110
  41.720         83.33	    10.000
  41.740         80.83	     9.849
  41.760         75.00	     9.487
  41.780         73.33	     9.381
  41.800         79.17	     9.747
  41.820         70.00	     9.165
  41.840         85.83	    10.149
  41.860         81.67	     9.899
  41.880         80.00	     9.798
  41.900        110.00	    11.489
  41.920         72.50	     9.327
  41.940         77.50	     9.644
  41.960         80.00	     9.798
  41.980         76.67	     9.592
  42.000         76.67	     9.592
  42.020         88.33	    10.296
  42.040         79.17	     9.747
  42.060         84.17	    10.050
  42.080         83.33	    10.000
  42.100         56.67	     8.246
  42.120         85.83	    10.149
  42.140         75.83	     9.539
  42.160         95.83	    10.724
  42.180         95.83	    10.724
  42.200         99.17	    10.909
  42.220        100.00	    10.954
  42.240        110.83	    11.533
  42.260        125.00	    12.247
  42.280        161.67	    13.928
  42.300        135.00	    12.728
  42.320        171.67	    14.353
  42.340        162.50	    13.964
  42.360        162.50	    13.964
  42.380        133.33	    12.649
  42.400        118.33	    11.916
  42.420        125.00	    12.247
  42.440        115.83	    11.790
  42.460         99.17	    10.909
  42.480         98.33	    10.863
  42.500         80.83	     9.849
  42.520         79.17	     9.747
  42.540         50.83	     7.810
  42.560         60.00	     8.485
  42.580         55.83	     8.185
  42.600         60.00	     8.485
  42.620         59.17	     8.426
  42.640         67.50	     9.000
  42.660         64.17	     8.775
  42.680         81.67	     9.899
  42.700         87.50	    10.247
  42.720         79.17	     9.747
  42.740         60.83	     8.544
  42.760         75.83	     9.539
  42.780         64.17	     8.775
  42.800         65.83	     8.888
  42.820         83.33	    10.000
  42.840         67.50	     9.000
  42.860         63.33	     8.718
  42.880         65.83	     8.888
  42.900         55.00	     8.124
  42.920         53.33	     8.000
  42.940         66.67	     8.944
  42.960         73.33	     9.381
  42.980         49.17	     7.681
  43.000         55.00	     8.124
  43.020         44.17	     7.280
  43.040         54.17	     8.062
  43.060         57.50	     8.307
  43.080         52.50	     7.937
  43.100         53.33	     8.000
  43.120         50.83	     7.810
  43.140         65.83	     8.888
  43.160         58.33	     8.367
  43.180         54.17	     8.062
  43.200         50.00	     7.746
  43.220         65.00	     8.832
  43.240         53.33	     8.000
  43.260         49.17	     7.681
  43.280         63.33	     8.718
  43.300         67.50	     9.000
  43.320         60.83	     8.544
  43.340         75.83	     9.539
  43.360         72.50	     9.327
  43.380         70.83	     9.220
  43.400         75.00	     9.487
  43.420         77.50	     9.644
  43.440         84.17	    10.050
  43.460         95.00	    10.677
  43.480         90.83	    10.440
  43.500         84.17	    10.050
  43.520         80.83	     9.849
  43.540         97.50	    10.817
  43.560        103.33	    11.136
  43.580         74.17	     9.434
  43.600         86.67	    10.198
  43.620         88.33	    10.296
  43.640         88.33	    10.296
  43.660         87.50	    10.247
  43.680         78.33	     9.695
  43.700         81.67	     9.899
  43.720         90.83	    10.440
  43.740         88.33	    10.296
  43.760         81.67	     9.899
  43.780         74.17	     9.434
  43.800         87.50	    10.247
  43.820        104.17	    11.180
  43.840         98.33	    10.863
  43.860        100.00	    10.954
  43.880         85.83	    10.149
  43.900         98.33	    10.863
  43.920        112.50	    11.619
  43.940         85.00	    10.100
  43.960        105.00	    11.225
  43.980        115.00	    11.747
  44.000        104.17	    11.180
  44.020        124.17	    12.207
  44.040        125.83	    12.288
  44.060        123.33	    12.166
  44.080        140.00	    12.961
  44.100        139.17	    12.923
  44.120        168.33	    14.213
  44.140        157.50	    13.748
  44.160        191.67	    15.166
  44.180        189.17	    15.067
  44.200        218.33	    16.186
  44.220        183.33	    14.832
  44.240        250.00	    17.321
  44.260        244.17	    17.117
  44.280        269.17	    17.972
  44.300        254.17	    17.464
  44.320        248.33	    17.263
  44.340        275.00	    18.166
  44.360        339.17	    20.174
  44.380        342.50	    20.273
  44.400        310.83	    19.313
  44.420        338.33	    20.149
  44.440        333.33	    20.000
  44.460        308.33	    19.235
  44.480        310.00	    19.287
  44.500        330.00	    19.900
  44.520        300.83	    19.000
  44.540        292.50	    18.735
  44.560        279.17	    18.303
  44.580        244.17	    17.117
  44.600        225.00	    16.432
  44.620        216.67	    16.125
  44.640        216.67	    16.125
  44.660        192.50	    15.199
  44.680        185.00	    14.900
  44.700        182.50	    14.799
  44.720        179.17	    14.663
  44.740        186.67	    14.967
  44.760        150.00	    13.416
  44.780        144.17	    13.153
  44.800        131.67	    12.570
  44.820        151.67	    13.491
  44.840        147.50	    13.304
  44.860        150.00	    13.416
  44.880        142.50	    13.077
  44.900        118.33	    11.916
  44.920        111.67	    11.576
  44.940        140.83	    13.000
  44.960        123.33	    12.166
  44.980        105.83	    11.269
  45.000         83.33	    10.000
  45.020         94.17	    10.630
  45.040         97.50	    10.817
  45.060        107.50	    11.358
  45.080         85.00	    10.100
  45.100         87.50	    10.247
  45.120         93.33	    10.583
  45.140         97.50	    10.817
  45.160         83.33	    10.000
  45.180         97.50	    10.817
  45.200         87.50	    10.247
  45.220         90.00	    10.392
  45.240         98.33	    10.863
  45.260        102.50	    11.091
  45.280         97.50	    10.817
  45.300        100.83	    11.000
  45.320        108.33	    11.402
  45.340        147.50	    13.304
  45.360        165.83	    14.107
  45.380        195.83	    15.330
  45.400        239.17	    16.941
  45.420        247.50	    17.234
  45.440        272.50	    18.083
  45.460        290.83	    18.682
  45.480        235.83	    16.823
  45.500        234.17	    16.763
  45.520        255.83	    17.521
  45.540        207.50	    15.780
  45.560        200.00	    15.492
  45.580        178.33	    14.629
  45.600        167.50	    14.177
  45.620        183.33	    14.832
  45.640        168.33	    14.213
  45.660        167.50	    14.177
  45.680        181.67	    14.765
  45.700        148.33	    13.342
  45.720        139.17	    12.923
  45.740        114.17	    11.705
  45.760        100.00	    10.954
  45.780        105.00	    11.225
  45.800        104.17	    11.180
  45.820        114.17	    11.705
  45.840         95.00	    10.677
  45.860         82.50	     9.950
  45.880         70.83	     9.220
  45.900         62.50	     8.660
  45.920         75.83	     9.539
  45.940         65.83	     8.888
  45.960         72.50	     9.327
  45.980         75.00	     9.487
  46.000         59.17	     8.426
  46.020         62.50	     8.660
  46.040         65.00	     8.832
  46.060         58.33	     8.367
  46.080         61.67	     8.602
  46.100         51.67	     7.874
  46.120         49.17	     7.681
  46.140         55.83	     8.185
  46.160         49.17	     7.681
  46.180         40.83	     7.000
  46.200         30.83	     6.083
  46.220         46.67	     7.483
  46.240         36.67	     6.633
  46.260         42.50	     7.141
  46.280         36.67	     6.633
  46.300         36.67	     6.633
  46.320         32.50	     6.245
  46.340         50.00	     7.746
  46.360         39.17	     6.856
  46.380         45.00	     7.348
  46.400         44.17	     7.280
  46.420         63.33	     8.718
  46.440         37.50	     6.708
  46.460         45.00	     7.348
  46.480         40.83	     7.000
  46.500         45.83	     7.416
  46.520         49.17	     7.681
  46.540         39.17	     6.856
  46.560         32.50	     6.245
  46.580         41.67	     7.071
  46.600         25.00	     5.477
  46.620         40.00	     6.928
  46.640         38.33	     6.782
  46.660         45.00	     7.348
  46.680         50.00	     7.746
  46.700         55.83	     8.185
  46.720         40.83	     7.000
  46.740         48.33	     7.616
  46.760         42.50	     7.141
  46.780         45.83	     7.416
  46.800         44.17	     7.280
  46.820         39.17	     6.856
  46.840         45.00	     7.348
  46.860         47.50	     7.550
  46.880         46.67	     7.483
  46.900         50.00	     7.746
  46.920         42.50	     7.141
  46.940         60.83	     8.544
  46.960         58.33	     8.367
  46.980         76.67	     9.592
  47.000         87.50	    10.247
  47.020         95.83	    10.724
  47.040        106.67	    11.314
  47.060        140.83	    13.000
  47.080        169.17	    14.248
  47.100        191.67	    15.166
  47.120        158.33	    13.784
  47.140        110.00	    11.489
  47.160         95.83	    10.724
  47.180         92.50	    10.536
  47.200         85.83	    10.149
  47.220        119.17	    11.958
  47.240        103.33	    11.136
  47.260         79.17	     9.747
  47.280         47.50	     7.550
  47.300         39.17	     6.856
  47.320         45.83	     7.416
  47.340         54.17	     8.062
  47.360         42.50	     7.141
  47.380         41.67	     7.071
  47.400         48.33	     7.616
  47.420         31.67	     6.164
  47.440         35.83	     6.557
  47.460         40.00	     6.928
  47.480         30.00	     6.000
  47.500         44.17	     7.280
  47.520         34.17	     6.403
  47.540         30.83	     6.083
  47.560         28.33	     5.831
  47.580         33.33	     6.325
  47.600         36.67	     6.633
  47.620         31.67	     6.164
  47.640         34.17	     6.403
  47.660         40.83	     7.000
  47.680         36.67	     6.633
  47.700         44.17	     7.280
  47.720         27.50	     5.745
  47.740         24.17	     5.385
  47.760         39.17	     6.856
  47.780         26.67	     5.657
  47.800         35.83	     6.557
  47.820         51.67	     7.874
  47.840         52.50	     7.937
  47.860         50.00	     7.746
  47.880         48.33	     7.616
  47.900         41.67	     7.071
  47.920         45.00	     7.348
  47.940         51.67	     7.874
  47.960         44.17	     7.280
  47.980         56.67	     8.246
  48.000         55.83	     8.185
  48.020         61.67	     8.602
  48.040         56.67	     8.246
  48.060         65.00	     8.832
  48.080         54.17	     8.062
  48.100         58.33	     8.367
  48.120         75.00	     9.487
  48.140         77.50	     9.644
  48.160         75.00	     9.487
  48.180         85.00	    10.100
  48.200         74.17	     9.434
  48.220         65.83	     8.888
  48.240         59.17	     8.426
  48.260         63.33	     8.718
  48.280         60.00	     8.485
  48.300         65.83	     8.888
  48.320         56.67	     8.246
  48.340         60.83	     8.544
  48.360         44.17	     7.280
  48.380         44.17	     7.280
  48.400         47.50	     7.550
  48.420         50.83	     7.810
  48.440         57.50	     8.307
  48.460         47.50	     7.550
  48.480         35.83	     6.557
  48.500         41.67	     7.071
  48.520         45.83	     7.416
  48.540         49.17	     7.681
  48.560         40.83	     7.000
  48.580         58.33	     8.367
  48.600         45.00	     7.348
  48.620         61.67	     8.602
  48.640         49.17	     7.681
  48.660         46.67	     7.483
  48.680         42.50	     7.141
  48.700         46.67	     7.483
  48.720         40.83	     7.000
  48.740         36.67	     6.633
  48.760         45.00	     7.348
  48.780         39.17	     6.856
  48.800         42.50	     7.141
  48.820         29.17	     5.916
  48.840         40.00	     6.928
  48.860         52.50	     7.937
  48.880         42.50	     7.141
  48.900         55.00	     8.124
  48.920         53.33	     8.000
  48.940         44.17	     7.280
  48.960         43.33	     7.211
  48.980         47.50	     7.550
  49.000         40.00	     6.928
  49.020         41.67	     7.071
  49.040         43.33	     7.211
  49.060         54.17	     8.062
  49.080         59.17	     8.426
  49.100         60.83	     8.544
  49.120         45.83	     7.416
  49.140         51.67	     7.874
  49.160         45.00	     7.348
  49.180         45.83	     7.416
  49.200         33.33	     6.325
  49.220         54.17	     8.062
  49.240         50.00	     7.746
  49.260         51.67	     7.874
  49.280         35.00	     6.481
  49.300         40.00	     6.928
  49.320         33.33	     6.325
  49.340         44.17	     7.280
  49.360         46.67	     7.483
  49.380         55.83	     8.185
  49.400         59.17	     8.426
  49.420         42.50	     7.141
  49.440         46.67	     7.483
  49.460         54.17	     8.062
  49.480         49.17	     7.681
  49.500         45.00	     7.348
  49.520         50.83	     7.810
  49.540         55.83	     8.185
  49.560         53.33	     8.000
  49.580         55.00	     8.124
  49.600         62.50	     8.660
  49.620         65.00	     8.832
  49.640         64.17	     8.775
  49.660         67.50	     9.000
  49.680         55.00	     8.124
  49.700         60.83	     8.544
  49.720         65.83	     8.888
  49.740         69.17	     9.110
  49.760         90.83	    10.440
  49.780         81.67	     9.899
  49.800         77.50	     9.644
  49.820         75.00	     9.487
  49.840         90.00	    10.392
  49.860         94.17	    10.630
  49.880         92.50	    10.536
  49.900         79.17	     9.747
  49.920        111.67	    11.576
  49.940        122.50	    12.124
  49.960        169.17	    14.248
  49.980        243.33	    17.088
  50.000        295.83	    18.841
  50.020        345.00	    20.347
  50.040        295.00	    18.815
  50.060        193.33	    15.232
  50.080        149.17	    13.379
  50.100        155.83	    13.675
  50.120        171.67	    14.353
  50.140        204.17	    15.652
  50.160        211.67	    15.937
  50.180        175.83	    14.526
  50.200        109.17	    11.446
  50.220         72.50	     9.327
  50.240         61.67	     8.602
  50.260         74.17	     9.434
  50.280         71.67	     9.274
  50.300         52.50	     7.937
  50.320         60.83	     8.544
  50.340         52.50	     7.937
  50.360         69.17	     9.110
  50.380         60.00	     8.485
  50.400         67.50	     9.000
  50.420         73.33	     9.381
  50.440         90.83	    10.440
  50.460        111.67	    11.576
  50.480         92.50	    10.536
  50.500        101.67	    11.045
  50.520         65.00	     8.832
  50.540         77.50	     9.644
  50.560         75.83	     9.539
  50.580         67.50	     9.000
  50.600         76.67	     9.592
  50.620         93.33	    10.583
  50.640         66.67	     8.944
  50.660         51.67	     7.874
  50.680         61.67	     8.602
  50.700         43.33	     7.211
  50.720         45.83	     7.416
  50.740         43.33	     7.211
  50.760         57.50	     8.307
  50.780         58.33	     8.367
  50.800         45.00	     7.348
  50.820         40.00	     6.928
  50.840         48.33	     7.616
  50.860         33.33	     6.325
  50.880         30.83	     6.083
  50.900         40.00	     6.928
  50.920         52.50	     7.937
  50.940         48.33	     7.616
  50.960         57.50	     8.307
  50.980         50.00	     7.746
  51.000         61.67	     8.602
  51.020         53.33	     8.000
  51.040         69.17	     9.110
  51.060         51.67	     7.874
  51.080         49.17	     7.681
  51.100         59.17	     8.426
  51.120         65.83	     8.888
  51.140         81.67	     9.899
  51.160         52.50	     7.937
  51.180         72.50	     9.327
  51.200         58.33	     8.367
  51.220         59.17	     8.426
  51.240         50.83	     7.810
  51.260         43.33	     7.211
  51.280         50.83	     7.810
  51.300         47.50	     7.550
  51.320         44.17	     7.280
  51.340         33.33	     6.325
  51.360         36.67	     6.633
  51.380         44.17	     7.280
  51.400         28.33	     5.831
  51.420         35.00	     6.481
  51.440         35.00	     6.481
  51.460         35.83	     6.557
  51.480         26.67	     5.657
  51.500         37.50	     6.708
  51.520         35.83	     6.557
  51.540         27.50	     5.745
  51.560         38.33	     6.782
  51.580         40.83	     7.000
  51.600         35.83	     6.557
  51.620         39.17	     6.856
  51.640         35.83	     6.557
  51.660         38.33	     6.782
  51.680         43.33	     7.211
  51.700         40.00	     6.928
  51.720         34.17	     6.403
  51.740         33.33	     6.325
  51.760         48.33	     7.616
  51.780         42.50	     7.141
  51.800         38.33	     6.782
  51.820         28.33	     5.831
  51.840         46.67	     7.483
  51.860         35.00	     6.481
  51.880         42.50	     7.141
  51.900         37.50	     6.708
  51.920         31.67	     6.164
  51.940         37.50	     6.708
  51.960         37.50	     6.708
  51.980         26.67	     5.657
  52.000         46.67	     7.483
  52.020         59.17	     8.426
  52.040         50.00	     7.746
  52.060         49.17	     7.681
  52.080         40.00	     6.928
  52.100         36.67	     6.633
  52.120         53.33	     8.000
  52.140         46.67	     7.483
  52.160         48.33	     7.616
  52.180         67.50	     9.000
  52.200         46.67	     7.483
  52.220         50.83	     7.810
  52.240         62.50	     8.660
  52.260         45.00	     7.348
  52.280         55.00	     8.124
  52.300         49.17	     7.681
  52.320         42.50	     7.141
  52.340         40.00	     6.928
  52.360         50.83	     7.810
  52.380         50.00	     7.746
  52.400         40.83	     7.000
  52.420         59.17	     8.426
  52.440         45.83	     7.416
  52.460         47.50	     7.550
  52.480         44.17	     7.280
  52.500         38.33	     6.782
  52.520         46.67	     7.483
  52.540         46.67	     7.483
  52.560         55.00	     8.124
  52.580         36.67	     6.633
  52.600         47.50	     7.550
  52.620         46.67	     7.483
  52.640         41.67	     7.071
  52.660         57.50	     8.307
  52.680         57.50	     8.307
  52.700         54.17	     8.062
  52.720         47.50	     7.550
  52.740         44.17	     7.280
  52.760         47.50	     7.550
  52.780         43.33	     7.211
  52.800         55.00	     8.124
  52.820         46.67	     7.483
  52.840         50.00	     7.746
  52.860         34.17	     6.403
  52.880         48.33	     7.616
  52.900         46.67	     7.483
  52.920         45.00	     7.348
  52.940         49.17	     7.681
  52.960         41.67	     7.071
  52.980         50.83	     7.810
  53.000         37.50	     6.708
  53.020         50.00	     7.746
  53.040         43.33	     7.211
  53.060         43.33	     7.211
  53.080         45.83	     7.416
  53.100         55.83	     8.185
  53.120         50.83	     7.810
  53.140         45.00	     7.348
  53.160         48.33	     7.616
  53.180         53.33	     8.000
  53.200         67.50	     9.000
  53.220         54.17	     8.062
  53.240         50.00	     7.746
  53.260         51.67	     7.874
  53.280         53.33	     8.000
  53.300         58.33	     8.367
  53.320         44.17	     7.280
  53.340         53.33	     8.000
  53.360         58.33	     8.367
  53.380         51.67	     7.874
  53.400         42.50	     7.141
  53.420         46.67	     7.483
  53.440         47.50	     7.550
  53.460         39.17	     6.856
  53.480         44.17	     7.280
  53.500         35.00	     6.481
  53.520         51.67	     7.874
  53.540         44.17	     7.280
  53.560         36.67	     6.633
  53.580         49.17	     7.681
  53.600         44.17	     7.280
  53.620         45.00	     7.348
  53.640         40.83	     7.000
  53.660         33.33	     6.325
  53.680         40.00	     6.928
  53.700         35.00	     6.481
  53.720         33.33	     6.325
  53.740         37.50	     6.708
  53.760         33.33	     6.325
  53.780         41.67	     7.071
  53.800         43.33	     7.211
  53.820         47.50	     7.550
  53.840         36.67	     6.633
  53.860         46.67	     7.483
  53.880         40.00	     6.928
  53.900         38.33	     6.782
  53.920         40.00	     6.928
  53.940         28.33	     5.831
  53.960         30.00	     6.000
  53.980         31.67	     6.164
  54.000         39.17	     6.856
  54.020         42.50	     7.141
  54.040         42.50	     7.141
  54.060         38.33	     6.782
  54.080         47.50	     7.550
  54.100         43.33	     7.211
  54.120         44.17	     7.280
  54.140         48.33	     7.616
  54.160         50.83	     7.810
  54.180         37.50	     6.708
  54.200         56.67	     8.246
  54.220         45.00	     7.348
  54.240         57.50	     8.307
  54.260         51.67	     7.874
  54.280         53.33	     8.000
  54.300         45.83	     7.416
  54.320         55.00	     8.124
  54.340         55.83	     8.185
  54.360         45.00	     7.348
  54.380         39.17	     6.856
  54.400         59.17	     8.426
  54.420         50.00	     7.746
  54.440         50.00	     7.746
  54.460         47.50	     7.550
  54.480         38.33	     6.782
  54.500         49.17	     7.681
  54.520         43.33	     7.211
  54.540         55.00	     8.124
  54.560         60.83	     8.544
  54.580         50.83	     7.810
  54.600         47.50	     7.550
  54.620         60.00	     8.485
  54.640         49.17	     7.681
  54.660         48.33	     7.616
  54.680         60.83	     8.544
  54.700         70.83	     9.220
  54.720         89.17	    10.344
  54.740        105.00	    11.225
  54.760         93.33	    10.583
  54.780        108.33	    11.402
  54.800         67.50	     9.000
  54.820         64.17	     8.775
  54.840         65.83	     8.888
  54.860         67.50	     9.000
  54.880         64.17	     8.775
  54.900         88.33	    10.296
  54.920         74.17	     9.434
  54.940         79.17	     9.747
  54.960         66.67	     8.944
  54.980         50.00	     7.746
  55.000         53.33	     8.000
  55.020         47.50	     7.550
  55.040         56.67	     8.246
  55.060         57.50	     8.307
  55.080         49.17	     7.681
  55.100         65.00	     8.832
  55.120         60.00	     8.485
  55.140         71.67	     9.274
  55.160         70.00	     9.165
  55.180         71.67	     9.274
  55.200         96.67	    10.770
  55.220         80.00	     9.798
  55.240         65.83	     8.888
  55.260         62.50	     8.660
  55.280         65.00	     8.832
  55.300         58.33	     8.367
  55.320         77.50	     9.644
  55.340         57.50	     8.307
  55.360         70.83	     9.220
  55.380         61.67	     8.602
  55.400         55.83	     8.185
  55.420         62.50	     8.660
  55.440         52.50	     7.937
  55.460         45.00	     7.348
  55.480         59.17	     8.426
  55.500         52.50	     7.937
  55.520         50.83	     7.810
  55.540         68.33	     9.055
  55.560         70.83	     9.220
  55.580         59.17	     8.426
  55.600         63.33	     8.718
  55.620         70.00	     9.165
  55.640         71.67	     9.274
  55.660         62.50	     8.660
  55.680         80.00	     9.798
  55.700         70.83	     9.220
  55.720         74.17	     9.434
  55.740         71.67	     9.274
  55.760         75.83	     9.539
  55.780         75.83	     9.539
  55.800         55.83	     8.185
  55.820         60.00	     8.485
  55.840         65.00	     8.832
  55.860         61.67	     8.602
  55.880         60.00	     8.485
  55.900         48.33	     7.616
  55.920         61.67	     8.602
  55.940         45.00	     7.348
  55.960         45.00	     7.348
  55.980         54.17	     8.062
  56.000         55.00	     8.124
  56.020         37.50	     6.708
  56.040         51.67	     7.874
  56.060         45.00	     7.348
  56.080         50.83	     7.810
  56.100         40.00	     6.928
  56.120         41.67	     7.071
  56.140         45.83	     7.416
  56.160         52.50	     7.937
  56.180         44.17	     7.280
  56.200         47.50	     7.550
  56.220         44.17	     7.280
  56.240         47.50	     7.550
  56.260         53.33	     8.000
  56.280         40.83	     7.000
  56.300         43.33	     7.211
  56.320         41.67	     7.071
  56.340         43.33	     7.211
  56.360         34.17	     6.403
  56.380         45.00	     7.348
  56.400         41.67	     7.071
  56.420         40.00	     6.928
  56.440         45.83	     7.416
  56.460         41.67	     7.071
  56.480         55.00	     8.124
  56.500         48.33	     7.616
  56.520         44.17	     7.280
  56.540         45.00	     7.348
  56.560         53.33	     8.000
  56.580         39.17	     6.856
  56.600         41.67	     7.071
  56.620         42.50	     7.141
  56.640         52.50	     7.937
  56.660         38.33	     6.782
  56.680         45.00	     7.348
  56.700         39.17	     6.856
  56.720         32.50	     6.245
  56.740         49.17	     7.681
  56.760         50.83	     7.810
  56.780         57.50	     8.307
  56.800         61.67	     8.602
  56.820         57.50	     8.307
  56.840         72.50	     9.327
  56.860         63.33	     8.718
  56.880         50.00	     7.746
  56.900         46.67	     7.483
  56.920         50.83	     7.810
  56.940         55.00	     8.124
  56.960         46.67	     7.483
  56.980         60.00	     8.485
  57.000         55.83	     8.185
  57.020         46.67	     7.483
  57.040         44.17	     7.280
  57.060         40.00	     6.928
  57.080         48.33	     7.616
  57.100         47.50	     7.550
  57.120         44.17	     7.280
  57.140         46.67	     7.483
  57.160         38.33	     6.782
  57.180         40.83	     7.000
  57.200         38.33	     6.782
  57.220         34.17	     6.403
  57.240         40.00	     6.928
  57.260         42.50	     7.141
  57.280         38.33	     6.782
  57.300         41.67	     7.071
  57.320         41.67	     7.071
  57.340         50.83	     7.810
  57.360         41.67	     7.071
  57.380         45.83	     7.416
  57.400         43.33	     7.211
  57.420         53.33	     8.000
  57.440         35.83	     6.557
  57.460         48.33	     7.616
  57.480         32.50	     6.245
  57.500         47.50	     7.550
  57.520         50.83	     7.810
  57.540         31.67	     6.164
  57.560         34.17	     6.403
  57.580         37.50	     6.708
  57.600         40.83	     7.000
  57.620         49.17	     7.681
  57.640         36.67	     6.633
  57.660         44.17	     7.280
  57.680         42.50	     7.141
  57.700         56.67	     8.246
  57.720         36.67	     6.633
  57.740         35.00	     6.481
  57.760         46.67	     7.483
  57.780         32.50	     6.245
  57.800         39.17	     6.856
  57.820         41.67	     7.071
  57.840         28.33	     5.831
  57.860         36.67	     6.633
  57.880         40.00	     6.928
  57.900         50.83	     7.810
  57.920         40.83	     7.000
  57.940         50.83	     7.810
  57.960         60.83	     8.544
  57.980         44.17	     7.280
  58.000         58.33	     8.367
  58.020         43.33	     7.211
  58.040         44.17	     7.280
  58.060         48.33	     7.616
  58.080         46.67	     7.483
  58.100         50.00	     7.746
  58.120         58.33	     8.367
  58.140         50.83	     7.810
  58.160         45.00	     7.348
  58.180         57.50	     8.307
  58.200         45.00	     7.348
  58.220         58.33	     8.367
  58.240         47.50	     7.550
  58.260         40.00	     6.928
  58.280         46.67	     7.483
  58.300         55.00	     8.124
  58.320         38.33	     6.782
  58.340         46.67	     7.483
  58.360         45.00	     7.348
  58.380         46.67	     7.483
  58.400         47.50	     7.550
  58.420         46.67	     7.483
  58.440         50.00	     7.746
  58.460         41.67	     7.071
  58.480         42.50	     7.141
  58.500         55.83	     8.185
  58.520         49.17	     7.681
  58.540         50.00	     7.746
  58.560         38.33	     6.782
  58.580         58.33	     8.367
  58.600         51.67	     7.874
  58.620         54.17	     8.062
  58.640         61.67	     8.602
  58.660         39.17	     6.856
  58.680         53.33	     8.000
  58.700         48.33	     7.616
  58.720         46.67	     7.483
  58.740         50.00	     7.746
  58.760         50.83	     7.810
  58.780         44.17	     7.280
  58.800         43.33	     7.211
  58.820         55.83	     8.185
  58.840         58.33	     8.367
  58.860         65.00	     8.832
  58.880         74.17	     9.434
  58.900         80.00	     9.798
  58.920         60.83	     8.544
  58.940         69.17	     9.110
  58.960         66.67	     8.944
  58.980         71.67	     9.274
  59.000         55.00	     8.124
  59.020         71.67	     9.274
  59.040         83.33	    10.000
  59.060         90.83	    10.440
  59.080         78.33	     9.695
  59.100         63.33	     8.718
  59.120         74.17	     9.434
  59.140         61.67	     8.602
  59.160         65.83	     8.888
  59.180         59.17	     8.426
  59.200         69.17	     9.110
  59.220         60.00	     8.485
  59.240         66.67	     8.944
  59.260         51.67	     7.874
  59.280         45.83	     7.416
  59.300         52.50	     7.937
  59.320         56.67	     8.246
  59.340         54.17	     8.062
  59.360         50.00	     7.746
  59.380         46.67	     7.483
  59.400         55.83	     8.185
  59.420         36.67	     6.633
  59.440         50.00	     7.746
  59.460         55.00	     8.124
  59.480         44.17	     7.280
  59.500         49.17	     7.681
  59.520         52.50	     7.937
  59.540         42.50	     7.141
  59.560         48.33	     7.616
  59.580         51.67	     7.874
  59.600         60.00	     8.485
  59.620         51.67	     7.874
  59.640         61.67	     8.602
  59.660         62.50	     8.660
  59.680         78.33	     9.695
  59.700         85.00	    10.100
  59.720         68.33	     9.055
  59.740         95.83	    10.724
  59.760        114.17	    11.705
  59.780        119.17	    11.958
  59.800        181.67	    14.765
  59.820        195.83	    15.330
  59.840        255.83	    17.521
  59.860        200.83	    15.524
  59.880        185.83	    14.933
  59.900        154.17	    13.601
  59.920        135.83	    12.767
  59.940        125.83	    12.288
  59.960        123.33	    12.166
  59.980        150.00	    13.416
  60.000        135.00	    12.728
  60.020        138.33	    12.884
  60.040        118.33	    11.916
  60.060         99.17	    10.909
  60.080         77.50	     9.644
  60.100         74.17	     9.434
  60.120         65.83	     8.888
  60.140         77.50	     9.644
  60.160         70.00	     9.165
  60.180         68.33	     9.055
  60.200         75.00	     9.487
  60.220         87.50	    10.247
  60.240         58.33	     8.367
  60.260         49.17	     7.681
  60.280         69.17	     9.110
  60.300         53.33	     8.000
  60.320         51.67	     7.874
  60.340         55.83	     8.185
  60.360         63.33	     8.718
  60.380         62.50	     8.660
  60.400         53.33	     8.000
  60.420         59.17	     8.426
  60.440         57.50	     8.307
  60.460         70.83	     9.220
  60.480         53.33	     8.000
  60.500         45.83	     7.416
  60.520         59.17	     8.426
  60.540         55.83	     8.185
  60.560         61.67	     8.602
  60.580         69.17	     9.110
  60.600         56.67	     8.246
  60.620         64.17	     8.775
  60.640         61.67	     8.602
  60.660         73.33	     9.381
  60.680         65.00	     8.832
  60.700         66.67	     8.944
  60.720         59.17	     8.426
  60.740         63.33	     8.718
  60.760         62.50	     8.660
  60.780         66.67	     8.944
  60.800         79.17	     9.747
  60.820         82.50	     9.950
  60.840         65.83	     8.888
  60.860         80.00	     9.798
  60.880         65.83	     8.888
  60.900         61.67	     8.602
  60.920         63.33	     8.718
  60.940         70.00	     9.165
  60.960         65.00	     8.832
  60.980         79.17	     9.747
  61.000         51.67	     7.874
  61.020         47.50	     7.550
  61.040         48.33	     7.616
  61.060         51.67	     7.874
  61.080         68.33	     9.055
  61.100         45.00	     7.348
  61.120         51.67	     7.874
  61.140         44.17	     7.280
  61.160         60.83	     8.544
  61.180         54.17	     8.062
  61.200         55.83	     8.185
  61.220         57.50	     8.307
  61.240         47.50	     7.550
  61.260         67.50	     9.000
  61.280         62.50	     8.660
  61.300         75.00	     9.487
  61.320         70.83	     9.220
  61.340         69.17	     9.110
  61.360         83.33	    10.000
  61.380         85.00	    10.100
  61.400         85.83	    10.149
  61.420         74.17	     9.434
  61.440         71.67	     9.274
  61.460         70.83	     9.220
  61.480         80.83	     9.849
  61.500         78.33	     9.695
  61.520         65.83	     8.888
  61.540         85.00	    10.100
  61.560         94.17	    10.630
  61.580         62.50	     8.660
  61.600         65.00	     8.832
  61.620         79.17	     9.747
  61.640         60.00	     8.485
  61.660         69.17	     9.110
  61.680         80.00	     9.798
  61.700         55.00	     8.124
  61.720         63.33	     8.718
  61.740         70.83	     9.220
  61.760         55.00	     8.124
  61.780         66.67	     8.944
  61.800         69.17	     9.110
  61.820         55.83	     8.185
  61.840         68.33	     9.055
  61.860         55.00	     8.124
  61.880         59.17	     8.426
  61.900         64.17	     8.775
  61.920         50.83	     7.810
  61.940         60.00	     8.485
  61.960         36.67	     6.633
  61.980         53.33	     8.000
  62.000         54.17	     8.062
  62.020         44.17	     7.280
  62.040         53.33	     8.000
  62.060         43.33	     7.211
  62.080         47.50	     7.550
  62.100         47.50	     7.550
  62.120         58.33	     8.367
  62.140         49.17	     7.681
  62.160         45.00	     7.348
  62.180         36.67	     6.633
  62.200         45.83	     7.416
  62.220         44.17	     7.280
  62.240         41.67	     7.071
  62.260         44.17	     7.280
  62.280         42.50	     7.141
  62.300         30.83	     6.083
  62.320         35.83	     6.557
  62.340         40.00	     6.928
  62.360         42.50	     7.141
  62.380         40.00	     6.928
  62.400         40.83	     7.000
  62.420         50.83	     7.810
  62.440         40.00	     6.928
  62.460         55.00	     8.124
  62.480         44.17	     7.280
  62.500         54.17	     8.062
  62.520         56.67	     8.246
  62.540         58.33	     8.367
  62.560         75.83	     9.539
  62.580         61.67	     8.602
  62.600         46.67	     7.483
  62.620         38.33	     6.782
  62.640         50.83	     7.810
  62.660         59.17	     8.426
  62.680         40.00	     6.928
  62.700         47.50	     7.550
  62.720         51.67	     7.874
  62.740         65.83	     8.888
  62.760         46.67	     7.483
  62.780         40.00	     6.928
  62.800         57.50	     8.307
  62.820         38.33	     6.782
  62.840         51.67	     7.874
  62.860         36.67	     6.633
  62.880         45.83	     7.416
  62.900         51.67	     7.874
  62.920         45.83	     7.416
  62.940         39.17	     6.856
  62.960         56.67	     8.246
  62.980         35.83	     6.557
  63.000         37.50	     6.708
  63.020         48.33	     7.616
  63.040         46.67	     7.483
  63.060         36.67	     6.633
  63.080         42.50	     7.141
  63.100         52.50	     7.937
  63.120         49.17	     7.681
  63.140         47.50	     7.550
  63.160         55.00	     8.124
  63.180         47.50	     7.550
  63.200         38.33	     6.782
  63.220         51.67	     7.874
  63.240         50.00	     7.746
  63.260         55.83	     8.185
  63.280         31.67	     6.164
  63.300         45.83	     7.416
  63.320         45.00	     7.348
  63.340         44.17	     7.280
  63.360         53.33	     8.000
  63.380         61.67	     8.602
  63.400         61.67	     8.602
  63.420         48.33	     7.616
  63.440         60.83	     8.544
  63.460         46.67	     7.483
  63.480         55.83	     8.185
  63.500         47.50	     7.550
  63.520         54.17	     8.062
  63.540         47.50	     7.550
  63.560         60.00	     8.485
  63.580         51.67	     7.874
  63.600         55.83	     8.185
  63.620         59.17	     8.426
  63.640         53.33	     8.000
  63.660         48.33	     7.616
  63.680         57.50	     8.307
  63.700         56.67	     8.246
  63.720         55.00	     8.124
  63.740         51.67	     7.874
  63.760         61.67	     8.602
  63.780         57.50	     8.307
  63.800         45.83	     7.416
  63.820         68.33	     9.055
  63.840         52.50	     7.937
  63.860         69.17	     9.110
  63.880         85.83	    10.149
  63.900         80.00	     9.798
  63.920         85.00	    10.100
  63.940         95.00	    10.677
  63.960         84.17	    10.050
  63.980         81.67	     9.899
  64.000         75.00	     9.487
  64.020         75.00	     9.487
  64.040         60.83	     8.544
  64.060         77.50	     9.644
  64.080         70.00	     9.165
  64.100         70.83	     9.220
  64.120         71.67	     9.274
  64.140         75.83	     9.539
  64.160         78.33	     9.695
  64.180         63.33	     8.718
  64.200         50.83	     7.810
  64.220         57.50	     8.307
  64.240         45.00	     7.348
  64.260         53.33	     8.000
  64.280         47.50	     7.550
  64.300         54.17	     8.062
  64.320         52.50	     7.937
  64.340         40.83	     7.000
  64.360         46.67	     7.483
  64.380         49.17	     7.681
  64.400         35.00	     6.481
  64.420         49.17	     7.681
  64.440         45.83	     7.416
  64.460         47.50	     7.550
  64.480         52.50	     7.937
  64.500         54.17	     8.062
  64.520         51.67	     7.874
  64.540         50.00	     7.746
  64.560         54.17	     8.062
  64.580         61.67	     8.602
  64.600         50.00	     7.746
  64.620         45.00	     7.348
  64.640         53.33	     8.000
  64.660         73.33	     9.381
  64.680         59.17	     8.426
  64.700         37.50	     6.708
  64.720         62.50	     8.660
  64.740         53.33	     8.000
  64.760         57.50	     8.307
  64.780         66.67	     8.944
  64.800         51.67	     7.874
  64.820         52.50	     7.937
  64.840         44.17	     7.280
  64.860         49.17	     7.681
  64.880         57.50	     8.307
  64.900         55.83	     8.185
  64.920         61.67	     8.602
  64.940         50.00	     7.746
  64.960         69.17	     9.110
  64.980         58.33	     8.367
  65.000         55.00	     8.124
