
Filename:
	C:\Program Files\Thermo Electron\WinXRD\Datafiles\F_HERMAN\FIEN\G16_FT.raw

File Created:
	October 04, 2019 - 01:25 PM

Specimen Id:
	G16 FT RT

Specimen Name:
	

Specimen Description:
	

Comment:
Scan Type: 2Theta Scan
Start Angle: 2 deg.
Stop Angle: 65 deg.
Num Points: 3151
Step Size: 0.02 deg.
Scan Rate: 1.000000
Scan Mode: Continuous
Wavelength: 1.540562
\Kalpha1: 1.540562	\Kalpha2: 1.544390	\Kbeta: 1.392218

Optics:
		Detector:
			 Type: Fixed Slits
		Tube: 
			 Type: Fixed Slits


Datas:
 Pos [deg]       Rate [CPS]      ESD [-]

Range 1 ---> Iteration 1
   2.000        988.33	    34.438
   2.020        965.83	    34.044
   2.040        922.50	    33.272
   2.060        898.33	    32.833
   2.080        891.67	    32.711
   2.100        873.33	    32.373
   2.120        864.17	    32.202
   2.140        825.83	    31.480
   2.160        857.50	    32.078
   2.180        839.17	    31.733
   2.200        803.33	    31.048
   2.220        806.67	    31.113
   2.240        825.00	    31.464
   2.260        797.50	    30.935
   2.280        763.33	    30.265
   2.300        745.83	    29.917
   2.320        754.17	    30.083
   2.340        758.33	    30.166
   2.360        771.67	    30.430
   2.380        674.17	    28.443
   2.400        694.17	    28.862
   2.420        720.83	    29.411
   2.440        715.83	    29.309
   2.460        691.67	    28.810
   2.480        715.83	    29.309
   2.500        696.67	    28.914
   2.520        702.50	    29.034
   2.540        692.50	    28.827
   2.560        698.33	    28.948
   2.580        675.83	    28.478
   2.600        626.67	    27.423
   2.620        654.17	    28.018
   2.640        645.00	    27.821
   2.660        652.50	    27.982
   2.680        577.50	    26.325
   2.700        625.83	    27.404
   2.720        600.00	    26.833
   2.740        626.67	    27.423
   2.760        605.00	    26.944
   2.780        580.83	    26.401
   2.800        579.17	    26.363
   2.820        569.17	    26.134
   2.840        558.33	    25.884
   2.860        538.33	    25.417
   2.880        560.00	    25.923
   2.900        559.17	    25.904
   2.920        591.67	    26.646
   2.940        520.83	    25.000
   2.960        567.50	    26.096
   2.980        520.00	    24.980
   3.000        570.00	    26.153
   3.020        557.50	    25.865
   3.040        539.17	    25.436
   3.060        547.50	    25.632
   3.080        565.83	    26.058
   3.100        545.00	    25.573
   3.120        513.33	    24.819
   3.140        501.67	    24.536
   3.160        514.17	    24.839
   3.180        540.83	    25.475
   3.200        515.83	    24.880
   3.220        495.83	    24.393
   3.240        455.83	    23.388
   3.260        537.50	    25.397
   3.280        455.00	    23.367
   3.300        465.83	    23.643
   3.320        485.83	    24.145
   3.340        482.50	    24.062
   3.360        478.33	    23.958
   3.380        476.67	    23.917
   3.400        467.50	    23.685
   3.420        500.00	    24.495
   3.440        466.67	    23.664
   3.460        408.33	    22.136
   3.480        446.67	    23.152
   3.500        452.50	    23.302
   3.520        430.00	    22.716
   3.540        443.33	    23.065
   3.560        414.17	    22.293
   3.580        415.00	    22.316
   3.600        420.83	    22.472
   3.620        414.17	    22.293
   3.640        385.83	    21.517
   3.660        406.67	    22.091
   3.680        410.00	    22.181
   3.700        375.83	    21.237
   3.720        411.67	    22.226
   3.740        414.17	    22.293
   3.760        405.83	    22.068
   3.780        439.17	    22.956
   3.800        385.83	    21.517
   3.820        397.50	    21.840
   3.840        394.17	    21.749
   3.860        407.50	    22.113
   3.880        381.67	    21.401
   3.900        404.17	    22.023
   3.920        397.50	    21.840
   3.940        406.67	    22.091
   3.960        379.17	    21.331
   3.980        344.17	    20.322
   4.000        366.67	    20.976
   4.020        416.67	    22.361
   4.040        390.00	    21.633
   4.060        390.83	    21.656
   4.080        403.33	    22.000
   4.100        371.67	    21.119
   4.120        354.17	    20.616
   4.140        372.50	    21.142
   4.160        370.00	    21.071
   4.180        355.00	    20.640
   4.200        335.83	    20.075
   4.220        380.83	    21.378
   4.240        344.17	    20.322
   4.260        335.00	    20.050
   4.280        350.00	    20.494
   4.300        331.67	    19.950
   4.320        322.50	    19.672
   4.340        361.67	    20.833
   4.360        339.17	    20.174
   4.380        341.67	    20.248
   4.400        298.33	    18.921
   4.420        341.67	    20.248
   4.440        353.33	    20.591
   4.460        342.50	    20.273
   4.480        318.33	    19.545
   4.500        308.33	    19.235
   4.520        343.33	    20.298
   4.540        330.83	    19.925
   4.560        330.00	    19.900
   4.580        297.50	    18.894
   4.600        298.33	    18.921
   4.620        294.17	    18.788
   4.640        302.50	    19.053
   4.660        339.17	    20.174
   4.680        355.83	    20.664
   4.700        282.50	    18.412
   4.720        300.00	    18.974
   4.740        315.83	    19.468
   4.760        320.00	    19.596
   4.780        311.67	    19.339
   4.800        295.00	    18.815
   4.820        314.17	    19.416
   4.840        311.67	    19.339
   4.860        278.33	    18.276
   4.880        295.83	    18.841
   4.900        293.33	    18.762
   4.920        272.50	    18.083
   4.940        320.83	    19.621
   4.960        265.83	    17.861
   4.980        289.17	    18.628
   5.000        318.33	    19.545
   5.020        284.17	    18.466
   5.040        307.50	    19.209
   5.060        284.17	    18.466
   5.080        289.17	    18.628
   5.100        308.33	    19.235
   5.120        296.67	    18.868
   5.140        282.50	    18.412
   5.160        268.33	    17.944
   5.180        305.83	    19.157
   5.200        311.67	    19.339
   5.220        274.17	    18.138
   5.240        277.50	    18.248
   5.260        299.17	    18.947
   5.280        304.17	    19.105
   5.300        295.00	    18.815
   5.320        280.83	    18.358
   5.340        291.67	    18.708
   5.360        310.83	    19.313
   5.380        308.33	    19.235
   5.400        286.67	    18.547
   5.420        290.00	    18.655
   5.440        267.50	    17.916
   5.460        285.00	    18.493
   5.480        277.50	    18.248
   5.500        344.17	    20.322
   5.520        302.50	    19.053
   5.540        308.33	    19.235
   5.560        321.67	    19.647
   5.580        314.17	    19.416
   5.600        303.33	    19.079
   5.620        348.33	    20.445
   5.640        342.50	    20.273
   5.660        336.67	    20.100
   5.680        377.50	    21.284
   5.700        409.17	    22.159
   5.720        430.00	    22.716
   5.740        489.17	    24.228
   5.760        524.17	    25.080
   5.780        584.17	    26.476
   5.800        681.67	    28.601
   5.820        733.33	    29.665
   5.840        888.33	    32.650
   5.860        750.83	    30.017
   5.880        637.50	    27.659
   5.900        582.50	    26.439
   5.920        504.17	    24.597
   5.940        480.83	    24.021
   5.960        499.17	    24.474
   5.980        541.67	    25.495
   6.000        583.33	    26.458
   6.020        631.67	    27.532
   6.040        634.17	    27.586
   6.060        685.00	    28.671
   6.080        715.83	    29.309
   6.100        726.67	    29.530
   6.120        655.83	    28.054
   6.140        486.67	    24.166
   6.160        369.17	    21.048
   6.180        339.17	    20.174
   6.200        311.67	    19.339
   6.220        285.83	    18.520
   6.240        258.33	    17.607
   6.260        268.33	    17.944
   6.280        266.67	    17.889
   6.300        266.67	    17.889
   6.320        264.17	    17.804
   6.340        274.17	    18.138
   6.360        234.17	    16.763
   6.380        227.50	    16.523
   6.400        246.67	    17.205
   6.420        251.67	    17.378
   6.440        284.17	    18.466
   6.460        264.17	    17.804
   6.480        242.50	    17.059
   6.500        254.17	    17.464
   6.520        233.33	    16.733
   6.540        235.00	    16.793
   6.560        254.17	    17.464
   6.580        210.00	    15.875
   6.600        237.50	    16.882
   6.620        235.00	    16.793
   6.640        225.83	    16.462
   6.660        268.33	    17.944
   6.680        220.00	    16.248
   6.700        232.50	    16.703
   6.720        231.67	    16.673
   6.740        230.83	    16.643
   6.760        223.33	    16.371
   6.780        241.67	    17.029
   6.800        222.50	    16.340
   6.820        229.17	    16.583
   6.840        210.83	    15.906
   6.860        219.17	    16.217
   6.880        208.33	    15.811
   6.900        205.83	    15.716
   6.920        213.33	    16.000
   6.940        200.00	    15.492
   6.960        216.67	    16.125
   6.980        221.67	    16.310
   7.000        176.67	    14.560
   7.020        215.00	    16.062
   7.040        219.17	    16.217
   7.060        225.83	    16.462
   7.080        211.67	    15.937
   7.100        194.17	    15.264
   7.120        216.67	    16.125
   7.140        217.50	    16.155
   7.160        198.33	    15.427
   7.180        208.33	    15.811
   7.200        215.83	    16.093
   7.220        185.83	    14.933
   7.240        213.33	    16.000
   7.260        220.00	    16.248
   7.280        215.00	    16.062
   7.300        221.67	    16.310
   7.320        195.83	    15.330
   7.340        200.83	    15.524
   7.360        205.00	    15.684
   7.380        228.33	    16.553
   7.400        204.17	    15.652
   7.420        192.50	    15.199
   7.440        198.33	    15.427
   7.460        194.17	    15.264
   7.480        176.67	    14.560
   7.500        186.67	    14.967
   7.520        185.83	    14.933
   7.540        191.67	    15.166
   7.560        204.17	    15.652
   7.580        192.50	    15.199
   7.600        175.00	    14.491
   7.620        196.67	    15.362
   7.640        200.00	    15.492
   7.660        195.83	    15.330
   7.680        175.00	    14.491
   7.700        191.67	    15.166
   7.720        185.83	    14.933
   7.740        185.00	    14.900
   7.760        177.50	    14.595
   7.780        212.50	    15.969
   7.800        195.83	    15.330
   7.820        191.67	    15.166
   7.840        178.33	    14.629
   7.860        180.00	    14.697
   7.880        194.17	    15.264
   7.900        210.83	    15.906
   7.920        196.67	    15.362
   7.940        210.83	    15.906
   7.960        190.83	    15.133
   7.980        180.83	    14.731
   8.000        198.33	    15.427
   8.020        185.00	    14.900
   8.040        175.83	    14.526
   8.060        186.67	    14.967
   8.080        180.00	    14.697
   8.100        190.83	    15.133
   8.120        185.83	    14.933
   8.140        195.00	    15.297
   8.160        206.67	    15.748
   8.180        217.50	    16.155
   8.200        210.83	    15.906
   8.220        187.50	    15.000
   8.240        221.67	    16.310
   8.260        210.00	    15.875
   8.280        243.33	    17.088
   8.300        208.33	    15.811
   8.320        225.00	    16.432
   8.340        205.00	    15.684
   8.360        231.67	    16.673
   8.380        260.83	    17.692
   8.400        231.67	    16.673
   8.420        248.33	    17.263
   8.440        266.67	    17.889
   8.460        280.00	    18.330
   8.480        272.50	    18.083
   8.500        301.67	    19.026
   8.520        348.33	    20.445
   8.540        352.50	    20.567
   8.560        378.33	    21.307
   8.580        425.00	    22.583
   8.600        472.50	    23.812
   8.620        525.83	    25.120
   8.640        564.17	    26.019
   8.660        585.83	    26.514
   8.680        700.00	    28.983
   8.700        913.33	    33.106
   8.720       1298.33	    39.472
   8.740       1790.83	    46.357
   8.760       1786.67	    46.303
   8.780       1574.17	    43.463
   8.800        907.50	    33.000
   8.820        512.50	    24.799
   8.840        320.83	    19.621
   8.860        289.17	    18.628
   8.880        258.33	    17.607
   8.900        225.00	    16.432
   8.920        231.67	    16.673
   8.940        232.50	    16.703
   8.960        210.00	    15.875
   8.980        206.67	    15.748
   9.000        211.67	    15.937
   9.020        229.17	    16.583
   9.040        226.67	    16.492
   9.060        262.50	    17.748
   9.080        233.33	    16.733
   9.100        201.67	    15.556
   9.120        193.33	    15.232
   9.140        187.50	    15.000
   9.160        157.50	    13.748
   9.180        163.33	    14.000
   9.200        185.00	    14.900
   9.220        211.67	    15.937
   9.240        230.83	    16.643
   9.260        255.00	    17.493
   9.280        258.33	    17.607
   9.300        290.83	    18.682
   9.320        358.33	    20.736
   9.340        341.67	    20.248
   9.360        252.50	    17.407
   9.380        173.33	    14.422
   9.400        160.83	    13.892
   9.420        165.00	    14.071
   9.440        155.00	    13.638
   9.460        166.67	    14.142
   9.480        157.50	    13.748
   9.500        135.00	    12.728
   9.520        145.83	    13.229
   9.540        161.67	    13.928
   9.560        143.33	    13.115
   9.580        149.17	    13.379
   9.600        156.67	    13.711
   9.620        140.83	    13.000
   9.640        159.17	    13.820
   9.660        158.33	    13.784
   9.680        120.83	    12.042
   9.700        124.17	    12.207
   9.720        128.33	    12.410
   9.740        124.17	    12.207
   9.760        152.50	    13.528
   9.780        135.83	    12.767
   9.800        129.17	    12.450
   9.820        136.67	    12.806
   9.840        125.83	    12.288
   9.860        110.00	    11.489
   9.880        157.50	    13.748
   9.900        110.83	    11.533
   9.920        127.50	    12.369
   9.940        135.00	    12.728
   9.960        126.67	    12.329
   9.980        136.67	    12.806
  10.000        120.83	    12.042
  10.020        138.33	    12.884
  10.040        136.67	    12.806
  10.060        118.33	    11.916
  10.080        121.67	    12.083
  10.100        118.33	    11.916
  10.120        119.17	    11.958
  10.140        127.50	    12.369
  10.160        135.00	    12.728
  10.180        136.67	    12.806
  10.200        134.17	    12.689
  10.220        145.00	    13.191
  10.240        145.00	    13.191
  10.260        153.33	    13.565
  10.280        136.67	    12.806
  10.300        147.50	    13.304
  10.320        165.83	    14.107
  10.340        185.83	    14.933
  10.360        247.50	    17.234
  10.380        269.17	    17.972
  10.400        306.67	    19.183
  10.420        285.83	    18.520
  10.440        200.83	    15.524
  10.460        168.33	    14.213
  10.480        119.17	    11.958
  10.500        115.00	    11.747
  10.520        135.83	    12.767
  10.540        130.00	    12.490
  10.560        105.00	    11.225
  10.580        136.67	    12.806
  10.600        137.50	    12.845
  10.620        123.33	    12.166
  10.640        132.50	    12.610
  10.660        133.33	    12.649
  10.680        120.00	    12.000
  10.700        128.33	    12.410
  10.720        118.33	    11.916
  10.740        112.50	    11.619
  10.760        106.67	    11.314
  10.780        121.67	    12.083
  10.800        125.00	    12.247
  10.820        131.67	    12.570
  10.840        112.50	    11.619
  10.860        129.17	    12.450
  10.880        128.33	    12.410
  10.900        145.00	    13.191
  10.920        115.00	    11.747
  10.940        129.17	    12.450
  10.960        110.00	    11.489
  10.980        110.83	    11.533
  11.000        116.67	    11.832
  11.020        115.00	    11.747
  11.040        113.33	    11.662
  11.060        117.50	    11.874
  11.080        127.50	    12.369
  11.100        115.83	    11.790
  11.120        120.83	    12.042
  11.140        129.17	    12.450
  11.160        130.00	    12.490
  11.180        130.00	    12.490
  11.200        120.00	    12.000
  11.220        106.67	    11.314
  11.240        105.00	    11.225
  11.260        108.33	    11.402
  11.280        114.17	    11.705
  11.300        105.00	    11.225
  11.320        113.33	    11.662
  11.340        133.33	    12.649
  11.360        124.17	    12.207
  11.380        111.67	    11.576
  11.400        103.33	    11.136
  11.420        120.83	    12.042
  11.440        123.33	    12.166
  11.460        144.17	    13.153
  11.480        146.67	    13.266
  11.500        140.00	    12.961
  11.520        154.17	    13.601
  11.540        152.50	    13.528
  11.560        137.50	    12.845
  11.580        157.50	    13.748
  11.600        124.17	    12.207
  11.620        150.00	    13.416
  11.640        133.33	    12.649
  11.660        136.67	    12.806
  11.680        135.00	    12.728
  11.700        159.17	    13.820
  11.720        163.33	    14.000
  11.740        150.83	    13.454
  11.760        180.83	    14.731
  11.780        193.33	    15.232
  11.800        201.67	    15.556
  11.820        202.50	    15.588
  11.840        225.83	    16.462
  11.860        218.33	    16.186
  11.880        253.33	    17.436
  11.900        284.17	    18.466
  11.920        365.00	    20.928
  11.940        491.67	    24.290
  11.960        574.17	    26.249
  11.980        731.67	    29.631
  12.000       1087.50	    36.125
  12.020       1757.50	    45.924
  12.040       2865.00	    58.634
  12.060       3789.17	    67.431
  12.080       3757.50	    67.149
  12.100       2855.00	    58.532
  12.120       1600.83	    43.829
  12.140        944.17	    33.660
  12.160        726.67	    29.530
  12.180        741.67	    29.833
  12.200        790.83	    30.806
  12.220        890.00	    32.680
  12.240        865.00	    32.218
  12.260        784.17	    30.676
  12.280        709.17	    29.172
  12.300        689.17	    28.758
  12.320        705.83	    29.103
  12.340        865.00	    32.218
  12.360        943.33	    33.645
  12.380        940.83	    33.601
  12.400        738.33	    29.766
  12.420        524.17	    25.080
  12.440        295.00	    18.815
  12.460        222.50	    16.340
  12.480        195.00	    15.297
  12.500        182.50	    14.799
  12.520        177.50	    14.595
  12.540        167.50	    14.177
  12.560        172.50	    14.387
  12.580        142.50	    13.077
  12.600        138.33	    12.884
  12.620        148.33	    13.342
  12.640        143.33	    13.115
  12.660        130.00	    12.490
  12.680        139.17	    12.923
  12.700        128.33	    12.410
  12.720        128.33	    12.410
  12.740        126.67	    12.329
  12.760        129.17	    12.450
  12.780        116.67	    11.832
  12.800        128.33	    12.410
  12.820        109.17	    11.446
  12.840        130.00	    12.490
  12.860        108.33	    11.402
  12.880        117.50	    11.874
  12.900        105.00	    11.225
  12.920        120.00	    12.000
  12.940        115.00	    11.747
  12.960        109.17	    11.446
  12.980         86.67	    10.198
  13.000        107.50	    11.358
  13.020        117.50	    11.874
  13.040        100.00	    10.954
  13.060        120.00	    12.000
  13.080        123.33	    12.166
  13.100        118.33	    11.916
  13.120        105.83	    11.269
  13.140        115.83	    11.790
  13.160        104.17	    11.180
  13.180        128.33	    12.410
  13.200        120.00	    12.000
  13.220        105.83	    11.269
  13.240        134.17	    12.689
  13.260         99.17	    10.909
  13.280        126.67	    12.329
  13.300        115.00	    11.747
  13.320        118.33	    11.916
  13.340        114.17	    11.705
  13.360        116.67	    11.832
  13.380        105.83	    11.269
  13.400        112.50	    11.619
  13.420        117.50	    11.874
  13.440        111.67	    11.576
  13.460        105.00	    11.225
  13.480         95.00	    10.677
  13.500         90.83	    10.440
  13.520        109.17	    11.446
  13.540        100.00	    10.954
  13.560         87.50	    10.247
  13.580        121.67	    12.083
  13.600        106.67	    11.314
  13.620        101.67	    11.045
  13.640         92.50	    10.536
  13.660        102.50	    11.091
  13.680        103.33	    11.136
  13.700        123.33	    12.166
  13.720        125.00	    12.247
  13.740        134.17	    12.689
  13.760        104.17	    11.180
  13.780        108.33	    11.402
  13.800         78.33	     9.695
  13.820        101.67	    11.045
  13.840        103.33	    11.136
  13.860         86.67	    10.198
  13.880         95.00	    10.677
  13.900         83.33	    10.000
  13.920        102.50	    11.091
  13.940         86.67	    10.198
  13.960         81.67	     9.899
  13.980         88.33	    10.296
  14.000         91.67	    10.488
  14.020         88.33	    10.296
  14.040         88.33	    10.296
  14.060         84.17	    10.050
  14.080         90.83	    10.440
  14.100         80.00	     9.798
  14.120         64.17	     8.775
  14.140         85.00	    10.100
  14.160         87.50	    10.247
  14.180         78.33	     9.695
  14.200         80.83	     9.849
  14.220         83.33	    10.000
  14.240         82.50	     9.950
  14.260         71.67	     9.274
  14.280         72.50	     9.327
  14.300         66.67	     8.944
  14.320         80.83	     9.849
  14.340         71.67	     9.274
  14.360         90.83	    10.440
  14.380         90.83	    10.440
  14.400         77.50	     9.644
  14.420         65.00	     8.832
  14.440         73.33	     9.381
  14.460         97.50	    10.817
  14.480         77.50	     9.644
  14.500         67.50	     9.000
  14.520         71.67	     9.274
  14.540         80.83	     9.849
  14.560         74.17	     9.434
  14.580         76.67	     9.592
  14.600         72.50	     9.327
  14.620         80.00	     9.798
  14.640         70.00	     9.165
  14.660         74.17	     9.434
  14.680         82.50	     9.950
  14.700         70.83	     9.220
  14.720         87.50	    10.247
  14.740         91.67	    10.488
  14.760         72.50	     9.327
  14.780         80.00	     9.798
  14.800         77.50	     9.644
  14.820         81.67	     9.899
  14.840         87.50	    10.247
  14.860         58.33	     8.367
  14.880         85.00	    10.100
  14.900         80.83	     9.849
  14.920         89.17	    10.344
  14.940         76.67	     9.592
  14.960         84.17	    10.050
  14.980         79.17	     9.747
  15.000         74.17	     9.434
  15.020         91.67	    10.488
  15.040         85.00	    10.100
  15.060         79.17	     9.747
  15.080         59.17	     8.426
  15.100         78.33	     9.695
  15.120         65.00	     8.832
  15.140         76.67	     9.592
  15.160         75.83	     9.539
  15.180         94.17	    10.630
  15.200         62.50	     8.660
  15.220         75.00	     9.487
  15.240         74.17	     9.434
  15.260         83.33	    10.000
  15.280         79.17	     9.747
  15.300         70.00	     9.165
  15.320         63.33	     8.718
  15.340         86.67	    10.198
  15.360         74.17	     9.434
  15.380         58.33	     8.367
  15.400         69.17	     9.110
  15.420         65.00	     8.832
  15.440         72.50	     9.327
  15.460         80.83	     9.849
  15.480         78.33	     9.695
  15.500         71.67	     9.274
  15.520         65.83	     8.888
  15.540         82.50	     9.950
  15.560         64.17	     8.775
  15.580         83.33	    10.000
  15.600         79.17	     9.747
  15.620         64.17	     8.775
  15.640         72.50	     9.327
  15.660         81.67	     9.899
  15.680         75.83	     9.539
  15.700         76.67	     9.592
  15.720         85.00	    10.100
  15.740         84.17	    10.050
  15.760         83.33	    10.000
  15.780         69.17	     9.110
  15.800         82.50	     9.950
  15.820         70.83	     9.220
  15.840         70.00	     9.165
  15.860         63.33	     8.718
  15.880         55.83	     8.185
  15.900         74.17	     9.434
  15.920         70.00	     9.165
  15.940         74.17	     9.434
  15.960         71.67	     9.274
  15.980         70.00	     9.165
  16.000         94.17	    10.630
  16.020         80.83	     9.849
  16.040         65.00	     8.832
  16.060         82.50	     9.950
  16.080         61.67	     8.602
  16.100         84.17	    10.050
  16.120         78.33	     9.695
  16.140         65.83	     8.888
  16.160         73.33	     9.381
  16.180         85.00	    10.100
  16.200         70.00	     9.165
  16.220         71.67	     9.274
  16.240         76.67	     9.592
  16.260         80.00	     9.798
  16.280         71.67	     9.274
  16.300         75.00	     9.487
  16.320         65.83	     8.888
  16.340         72.50	     9.327
  16.360         68.33	     9.055
  16.380         65.00	     8.832
  16.400         73.33	     9.381
  16.420         61.67	     8.602
  16.440         70.83	     9.220
  16.460         77.50	     9.644
  16.480         80.83	     9.849
  16.500         67.50	     9.000
  16.520         52.50	     7.937
  16.540         62.50	     8.660
  16.560         67.50	     9.000
  16.580         65.00	     8.832
  16.600         72.50	     9.327
  16.620         59.17	     8.426
  16.640         60.83	     8.544
  16.660         72.50	     9.327
  16.680         76.67	     9.592
  16.700         62.50	     8.660
  16.720         83.33	    10.000
  16.740         70.83	     9.220
  16.760         74.17	     9.434
  16.780         57.50	     8.307
  16.800         60.83	     8.544
  16.820         59.17	     8.426
  16.840         59.17	     8.426
  16.860         65.83	     8.888
  16.880         61.67	     8.602
  16.900         69.17	     9.110
  16.920         69.17	     9.110
  16.940         70.00	     9.165
  16.960         66.67	     8.944
  16.980         65.83	     8.888
  17.000         57.50	     8.307
  17.020         70.83	     9.220
  17.040         77.50	     9.644
  17.060         77.50	     9.644
  17.080         67.50	     9.000
  17.100         62.50	     8.660
  17.120         90.00	    10.392
  17.140         73.33	     9.381
  17.160         81.67	     9.899
  17.180         83.33	    10.000
  17.200         75.83	     9.539
  17.220         97.50	    10.817
  17.240        100.00	    10.954
  17.260         82.50	     9.950
  17.280         77.50	     9.644
  17.300         77.50	     9.644
  17.320         88.33	    10.296
  17.340         89.17	    10.344
  17.360         91.67	    10.488
  17.380         85.00	    10.100
  17.400         91.67	    10.488
  17.420         76.67	     9.592
  17.440         65.83	     8.888
  17.460        105.00	    11.225
  17.480        102.50	    11.091
  17.500         91.67	    10.488
  17.520        100.00	    10.954
  17.540         99.17	    10.909
  17.560        107.50	    11.358
  17.580        128.33	    12.410
  17.600        144.17	    13.153
  17.620        225.83	    16.462
  17.640        340.00	    20.199
  17.660        476.67	    23.917
  17.680        575.83	    26.287
  17.700        632.50	    27.550
  17.720        555.00	    25.807
  17.740        452.50	    23.302
  17.760        296.67	    18.868
  17.780        191.67	    15.166
  17.800        149.17	    13.379
  17.820        116.67	    11.832
  17.840        100.83	    11.000
  17.860         85.00	    10.100
  17.880        116.67	    11.832
  17.900         87.50	    10.247
  17.920         71.67	     9.274
  17.940         80.00	     9.798
  17.960         79.17	     9.747
  17.980         92.50	    10.536
  18.000         71.67	     9.274
  18.020         81.67	     9.899
  18.040         87.50	    10.247
  18.060         77.50	     9.644
  18.080         70.83	     9.220
  18.100         80.83	     9.849
  18.120         75.83	     9.539
  18.140         80.83	     9.849
  18.160         81.67	     9.899
  18.180         79.17	     9.747
  18.200         77.50	     9.644
  18.220         85.00	    10.100
  18.240         90.83	    10.440
  18.260        111.67	    11.576
  18.280        117.50	    11.874
  18.300        135.83	    12.767
  18.320        144.17	    13.153
  18.340        136.67	    12.806
  18.360        165.00	    14.071
  18.380        205.00	    15.684
  18.400        222.50	    16.340
  18.420        260.00	    17.664
  18.440        307.50	    19.209
  18.460        277.50	    18.248
  18.480        242.50	    17.059
  18.500        226.67	    16.492
  18.520        200.00	    15.492
  18.540        219.17	    16.217
  18.560        215.00	    16.062
  18.580        238.33	    16.912
  18.600        236.67	    16.852
  18.620        275.00	    18.166
  18.640        355.00	    20.640
  18.660        351.67	    20.543
  18.680        348.33	    20.445
  18.700        266.67	    17.889
  18.720        215.00	    16.062
  18.740        150.00	    13.416
  18.760        125.00	    12.247
  18.780        105.00	    11.225
  18.800        103.33	    11.136
  18.820        103.33	    11.136
  18.840        108.33	    11.402
  18.860        113.33	    11.662
  18.880        112.50	    11.619
  18.900         99.17	    10.909
  18.920         93.33	    10.583
  18.940        102.50	    11.091
  18.960         80.83	     9.849
  18.980         92.50	    10.536
  19.000         94.17	    10.630
  19.020         90.83	    10.440
  19.040        105.00	    11.225
  19.060        103.33	    11.136
  19.080        105.00	    11.225
  19.100        105.00	    11.225
  19.120        104.17	    11.180
  19.140        112.50	    11.619
  19.160        110.00	    11.489
  19.180        100.83	    11.000
  19.200        114.17	    11.705
  19.220        116.67	    11.832
  19.240        110.00	    11.489
  19.260        113.33	    11.662
  19.280         90.83	    10.440
  19.300         98.33	    10.863
  19.320        120.83	    12.042
  19.340         84.17	    10.050
  19.360        110.83	    11.533
  19.380         95.83	    10.724
  19.400         85.83	    10.149
  19.420         90.83	    10.440
  19.440         91.67	    10.488
  19.460         95.00	    10.677
  19.480        105.00	    11.225
  19.500        104.17	    11.180
  19.520        106.67	    11.314
  19.540        103.33	    11.136
  19.560        122.50	    12.124
  19.580         91.67	    10.488
  19.600        115.00	    11.747
  19.620        109.17	    11.446
  19.640        115.00	    11.747
  19.660        125.83	    12.288
  19.680         98.33	    10.863
  19.700        132.50	    12.610
  19.720        144.17	    13.153
  19.740        140.83	    13.000
  19.760        122.50	    12.124
  19.780        121.67	    12.083
  19.800        125.83	    12.288
  19.820        100.00	    10.954
  19.840        107.50	    11.358
  19.860         85.83	    10.149
  19.880         92.50	    10.536
  19.900         87.50	    10.247
  19.920         81.67	     9.899
  19.940         85.83	    10.149
  19.960         98.33	    10.863
  19.980         80.83	     9.849
  20.000         90.83	    10.440
  20.020         80.00	     9.798
  20.040         72.50	     9.327
  20.060         81.67	     9.899
  20.080         87.50	    10.247
  20.100         85.83	    10.149
  20.120         83.33	    10.000
  20.140         79.17	     9.747
  20.160         82.50	     9.950
  20.180         95.00	    10.677
  20.200         81.67	     9.899
  20.220         79.17	     9.747
  20.240         73.33	     9.381
  20.260         72.50	     9.327
  20.280         75.83	     9.539
  20.300         77.50	     9.644
  20.320         78.33	     9.695
  20.340         94.17	    10.630
  20.360         88.33	    10.296
  20.380         78.33	     9.695
  20.400         73.33	     9.381
  20.420         98.33	    10.863
  20.440         85.00	    10.100
  20.460         88.33	    10.296
  20.480        105.00	    11.225
  20.500         97.50	    10.817
  20.520        102.50	    11.091
  20.540         99.17	    10.909
  20.560         82.50	     9.950
  20.580         83.33	    10.000
  20.600         94.17	    10.630
  20.620        107.50	    11.358
  20.640        131.67	    12.570
  20.660        156.67	    13.711
  20.680        195.00	    15.297
  20.700        273.33	    18.111
  20.720        350.00	    20.494
  20.740        360.83	    20.809
  20.760        289.17	    18.628
  20.780        254.17	    17.464
  20.800        191.67	    15.166
  20.820        146.67	    13.266
  20.840        136.67	    12.806
  20.860        137.50	    12.845
  20.880        150.00	    13.416
  20.900        140.00	    12.961
  20.920        130.83	    12.530
  20.940        130.83	    12.530
  20.960        108.33	    11.402
  20.980         85.00	    10.100
  21.000         87.50	    10.247
  21.020         75.00	     9.487
  21.040         91.67	    10.488
  21.060         87.50	    10.247
  21.080         81.67	     9.899
  21.100         83.33	    10.000
  21.120         81.67	     9.899
  21.140         76.67	     9.592
  21.160         68.33	     9.055
  21.180         84.17	    10.050
  21.200         66.67	     8.944
  21.220         73.33	     9.381
  21.240         85.83	    10.149
  21.260         76.67	     9.592
  21.280         80.83	     9.849
  21.300         67.50	     9.000
  21.320         75.83	     9.539
  21.340         76.67	     9.592
  21.360         73.33	     9.381
  21.380         79.17	     9.747
  21.400         72.50	     9.327
  21.420         85.00	    10.100
  21.440         70.83	     9.220
  21.460         95.83	    10.724
  21.480         88.33	    10.296
  21.500         77.50	     9.644
  21.520         73.33	     9.381
  21.540         67.50	     9.000
  21.560         95.00	    10.677
  21.580         75.00	     9.487
  21.600         80.83	     9.849
  21.620         62.50	     8.660
  21.640         70.00	     9.165
  21.660         85.00	    10.100
  21.680         70.00	     9.165
  21.700         75.00	     9.487
  21.720         68.33	     9.055
  21.740         70.00	     9.165
  21.760         93.33	    10.583
  21.780         66.67	     8.944
  21.800         87.50	    10.247
  21.820         95.00	    10.677
  21.840        131.67	    12.570
  21.860        131.67	    12.570
  21.880        172.50	    14.387
  21.900        204.17	    15.652
  21.920        261.67	    17.720
  21.940        266.67	    17.889
  21.960        210.83	    15.906
  21.980        171.67	    14.353
  22.000        150.00	    13.416
  22.020        110.83	    11.533
  22.040         96.67	    10.770
  22.060         85.83	    10.149
  22.080         85.00	    10.100
  22.100         89.17	    10.344
  22.120         86.67	    10.198
  22.140         86.67	    10.198
  22.160         66.67	     8.944
  22.180         78.33	     9.695
  22.200         76.67	     9.592
  22.220         95.83	    10.724
  22.240         76.67	     9.592
  22.260         80.00	     9.798
  22.280         80.00	     9.798
  22.300         61.67	     8.602
  22.320         88.33	    10.296
  22.340         77.50	     9.644
  22.360         80.00	     9.798
  22.380         84.17	    10.050
  22.400         75.83	     9.539
  22.420         85.83	    10.149
  22.440         80.00	     9.798
  22.460         98.33	    10.863
  22.480         74.17	     9.434
  22.500         85.00	    10.100
  22.520         84.17	    10.050
  22.540         74.17	     9.434
  22.560         75.00	     9.487
  22.580         70.00	     9.165
  22.600         75.00	     9.487
  22.620         70.00	     9.165
  22.640         85.83	    10.149
  22.660         84.17	    10.050
  22.680         92.50	    10.536
  22.700        106.67	    11.314
  22.720        115.00	    11.747
  22.740        127.50	    12.369
  22.760        153.33	    13.565
  22.780        146.67	    13.266
  22.800        131.67	    12.570
  22.820        137.50	    12.845
  22.840        133.33	    12.649
  22.860        106.67	    11.314
  22.880        105.83	    11.269
  22.900        105.83	    11.269
  22.920        114.17	    11.705
  22.940        108.33	    11.402
  22.960        103.33	    11.136
  22.980        103.33	    11.136
  23.000         98.33	    10.863
  23.020         99.17	    10.909
  23.040         86.67	    10.198
  23.060         76.67	     9.592
  23.080         71.67	     9.274
  23.100         67.50	     9.000
  23.120         91.67	    10.488
  23.140         68.33	     9.055
  23.160         82.50	     9.950
  23.180         86.67	    10.198
  23.200         65.00	     8.832
  23.220         75.83	     9.539
  23.240         70.83	     9.220
  23.260         77.50	     9.644
  23.280         93.33	    10.583
  23.300         92.50	    10.536
  23.320        106.67	    11.314
  23.340        101.67	    11.045
  23.360        118.33	    11.916
  23.380        138.33	    12.884
  23.400        179.17	    14.663
  23.420        192.50	    15.199
  23.440        176.67	    14.560
  23.460        176.67	    14.560
  23.480        143.33	    13.115
  23.500        128.33	    12.410
  23.520        143.33	    13.115
  23.540        110.83	    11.533
  23.560        106.67	    11.314
  23.580        106.67	    11.314
  23.600        106.67	    11.314
  23.620        114.17	    11.705
  23.640        101.67	    11.045
  23.660        112.50	    11.619
  23.680        110.83	    11.533
  23.700        127.50	    12.369
  23.720        116.67	    11.832
  23.740        142.50	    13.077
  23.760        127.50	    12.369
  23.780        115.00	    11.747
  23.800        123.33	    12.166
  23.820        142.50	    13.077
  23.840        145.83	    13.229
  23.860        128.33	    12.410
  23.880        128.33	    12.410
  23.900        119.17	    11.958
  23.920        126.67	    12.329
  23.940        138.33	    12.884
  23.960        138.33	    12.884
  23.980        144.17	    13.153
  24.000        134.17	    12.689
  24.020        136.67	    12.806
  24.040        146.67	    13.266
  24.060        137.50	    12.845
  24.080        170.00	    14.283
  24.100        194.17	    15.264
  24.120        190.00	    15.100
  24.140        189.17	    15.067
  24.160        197.50	    15.395
  24.180        221.67	    16.310
  24.200        190.83	    15.133
  24.220        176.67	    14.560
  24.240        202.50	    15.588
  24.260        192.50	    15.199
  24.280        194.17	    15.264
  24.300        202.50	    15.588
  24.320        227.50	    16.523
  24.340        270.83	    18.028
  24.360        342.50	    20.273
  24.380        494.17	    24.352
  24.400        842.50	    31.796
  24.420       1218.33	    38.236
  24.440       1461.67	    41.881
  24.460       1396.67	    40.939
  24.480       1504.17	    42.485
  24.500       1649.17	    44.486
  24.520       1460.00	    41.857
  24.540       1161.67	    37.336
  24.560        885.00	    32.588
  24.580        766.67	    30.332
  24.600        574.17	    26.249
  24.620        520.83	    25.000
  24.640        396.67	    21.817
  24.660        360.00	    20.785
  24.680        400.00	    21.909
  24.700        443.33	    23.065
  24.720        400.00	    21.909
  24.740        395.00	    21.772
  24.760        365.00	    20.928
  24.780        330.83	    19.925
  24.800        300.00	    18.974
  24.820        324.17	    19.723
  24.840        277.50	    18.248
  24.860        300.83	    19.000
  24.880        288.33	    18.601
  24.900        279.17	    18.303
  24.920        326.67	    19.799
  24.940        330.83	    19.925
  24.960        370.83	    21.095
  24.980        455.83	    23.388
  25.000        560.83	    25.942
  25.020        570.83	    26.173
  25.040        566.67	    26.077
  25.060        487.50	    24.187
  25.080        422.50	    22.517
  25.100        350.00	    20.494
  25.120        298.33	    18.921
  25.140        250.00	    17.321
  25.160        201.67	    15.556
  25.180        184.17	    14.866
  25.200        182.50	    14.799
  25.220        177.50	    14.595
  25.240        179.17	    14.663
  25.260        250.83	    17.349
  25.280        265.00	    17.833
  25.300        261.67	    17.720
  25.320        245.00	    17.146
  25.340        239.17	    16.941
  25.360        221.67	    16.310
  25.380        230.83	    16.643
  25.400        209.17	    15.843
  25.420        160.00	    13.856
  25.440        151.67	    13.491
  25.460        150.83	    13.454
  25.480        155.83	    13.675
  25.500        151.67	    13.491
  25.520        150.00	    13.416
  25.540        135.83	    12.767
  25.560        125.00	    12.247
  25.580        126.67	    12.329
  25.600        114.17	    11.705
  25.620        129.17	    12.450
  25.640        120.00	    12.000
  25.660        110.83	    11.533
  25.680         87.50	    10.247
  25.700        113.33	    11.662
  25.720        105.83	    11.269
  25.740         88.33	    10.296
  25.760        106.67	    11.314
  25.780         86.67	    10.198
  25.800         97.50	    10.817
  25.820        113.33	    11.662
  25.840        102.50	    11.091
  25.860        100.00	    10.954
  25.880         73.33	     9.381
  25.900        102.50	    11.091
  25.920         95.00	    10.677
  25.940        115.83	    11.790
  25.960        107.50	    11.358
  25.980        106.67	    11.314
  26.000        119.17	    11.958
  26.020        117.50	    11.874
  26.040         95.83	    10.724
  26.060        111.67	    11.576
  26.080        115.83	    11.790
  26.100        112.50	    11.619
  26.120        135.83	    12.767
  26.140        110.00	    11.489
  26.160        120.83	    12.042
  26.180        143.33	    13.115
  26.200        173.33	    14.422
  26.220        169.17	    14.248
  26.240        197.50	    15.395
  26.260        195.83	    15.330
  26.280        222.50	    16.340
  26.300        273.33	    18.111
  26.320        256.67	    17.550
  26.340        289.17	    18.628
  26.360        317.50	    19.519
  26.380        332.50	    19.975
  26.400        377.50	    21.284
  26.420        420.00	    22.450
  26.440        657.50	    28.089
  26.460       1141.67	    37.014
  26.480       1848.33	    47.096
  26.500       2258.33	    52.058
  26.520       2310.00	    52.650
  26.540       1976.67	    48.703
  26.560       1515.00	    42.638
  26.580       1325.83	    39.887
  26.600       1052.50	    35.539
  26.620        724.17	    29.479
  26.640        565.00	    26.038
  26.660        723.33	    29.462
  26.680        919.17	    33.211
  26.700       1028.33	    35.128
  26.720       1156.67	    37.256
  26.740       1289.17	    39.332
  26.760       1419.17	    41.267
  26.780       1318.33	    39.774
  26.800       1044.17	    35.398
  26.820        783.33	    30.659
  26.840        660.00	    28.142
  26.860        450.00	    23.238
  26.880        309.17	    19.261
  26.900        220.83	    16.279
  26.920        199.17	    15.460
  26.940        171.67	    14.353
  26.960        150.00	    13.416
  26.980        124.17	    12.207
  27.000        132.50	    12.610
  27.020        134.17	    12.689
  27.040        118.33	    11.916
  27.060        110.00	    11.489
  27.080        129.17	    12.450
  27.100        120.83	    12.042
  27.120        130.00	    12.490
  27.140        150.00	    13.416
  27.160        110.00	    11.489
  27.180        137.50	    12.845
  27.200        106.67	    11.314
  27.220        114.17	    11.705
  27.240        110.83	    11.533
  27.260        118.33	    11.916
  27.280        114.17	    11.705
  27.300        142.50	    13.077
  27.320        145.83	    13.229
  27.340        161.67	    13.928
  27.360        194.17	    15.264
  27.380        218.33	    16.186
  27.400        226.67	    16.492
  27.420        205.00	    15.684
  27.440        191.67	    15.166
  27.460        169.17	    14.248
  27.480        151.67	    13.491
  27.500        138.33	    12.884
  27.520        136.67	    12.806
  27.540        160.83	    13.892
  27.560        181.67	    14.765
  27.580        216.67	    16.125
  27.600        286.67	    18.547
  27.620        271.67	    18.055
  27.640        317.50	    19.519
  27.660        370.00	    21.071
  27.680        348.33	    20.445
  27.700        353.33	    20.591
  27.720        345.83	    20.372
  27.740        393.33	    21.726
  27.760        411.67	    22.226
  27.780        395.83	    21.794
  27.800        429.17	    22.694
  27.820        396.67	    21.817
  27.840        414.17	    22.293
  27.860        375.83	    21.237
  27.880        330.83	    19.925
  27.900        282.50	    18.412
  27.920        233.33	    16.733
  27.940        179.17	    14.663
  27.960        195.83	    15.330
  27.980        230.00	    16.613
  28.000        259.17	    17.635
  28.020        197.50	    15.395
  28.040        172.50	    14.387
  28.060        190.83	    15.133
  28.080        196.67	    15.362
  28.100        158.33	    13.784
  28.120        156.67	    13.711
  28.140        170.83	    14.318
  28.160        156.67	    13.711
  28.180        137.50	    12.845
  28.200        138.33	    12.884
  28.220        115.83	    11.790
  28.240        132.50	    12.610
  28.260        116.67	    11.832
  28.280         99.17	    10.909
  28.300         99.17	    10.909
  28.320        101.67	    11.045
  28.340         93.33	    10.583
  28.360        110.00	    11.489
  28.380        129.17	    12.450
  28.400        130.83	    12.530
  28.420        164.17	    14.036
  28.440        166.67	    14.142
  28.460        253.33	    17.436
  28.480        293.33	    18.762
  28.500        277.50	    18.248
  28.520        269.17	    17.972
  28.540        260.00	    17.664
  28.560        252.50	    17.407
  28.580        233.33	    16.733
  28.600        159.17	    13.820
  28.620        145.00	    13.191
  28.640        115.00	    11.747
  28.660        112.50	    11.619
  28.680        103.33	    11.136
  28.700        104.17	    11.180
  28.720        103.33	    11.136
  28.740         79.17	     9.747
  28.760         86.67	    10.198
  28.780         75.00	     9.487
  28.800         90.83	    10.440
  28.820         60.00	     8.485
  28.840         72.50	     9.327
  28.860         70.83	     9.220
  28.880         62.50	     8.660
  28.900         60.83	     8.544
  28.920         63.33	     8.718
  28.940         69.17	     9.110
  28.960         68.33	     9.055
  28.980         74.17	     9.434
  29.000         46.67	     7.483
  29.020         61.67	     8.602
  29.040         62.50	     8.660
  29.060         65.00	     8.832
  29.080         69.17	     9.110
  29.100         61.67	     8.602
  29.120         63.33	     8.718
  29.140         61.67	     8.602
  29.160         60.83	     8.544
  29.180         55.83	     8.185
  29.200         69.17	     9.110
  29.220         72.50	     9.327
  29.240         65.00	     8.832
  29.260         64.17	     8.775
  29.280         69.17	     9.110
  29.300         78.33	     9.695
  29.320         75.83	     9.539
  29.340         85.83	    10.149
  29.360         90.00	    10.392
  29.380         96.67	    10.770
  29.400         92.50	    10.536
  29.420         85.00	    10.100
  29.440         75.83	     9.539
  29.460         82.50	     9.950
  29.480         82.50	     9.950
  29.500         77.50	     9.644
  29.520         73.33	     9.381
  29.540         76.67	     9.592
  29.560         79.17	     9.747
  29.580        102.50	    11.091
  29.600        100.83	    11.000
  29.620        111.67	    11.576
  29.640        125.00	    12.247
  29.660        160.00	    13.856
  29.680        166.67	    14.142
  29.700        211.67	    15.937
  29.720        241.67	    17.029
  29.740        270.83	    18.028
  29.760        195.00	    15.297
  29.780        185.00	    14.900
  29.800        185.83	    14.933
  29.820        169.17	    14.248
  29.840        129.17	    12.450
  29.860        111.67	    11.576
  29.880        120.00	    12.000
  29.900        115.00	    11.747
  29.920        116.67	    11.832
  29.940        136.67	    12.806
  29.960        125.83	    12.288
  29.980        124.17	    12.207
  30.000        131.67	    12.570
  30.020        123.33	    12.166
  30.040        102.50	    11.091
  30.060        129.17	    12.450
  30.080        130.83	    12.530
  30.100        138.33	    12.884
  30.120        149.17	    13.379
  30.140        138.33	    12.884
  30.160        147.50	    13.304
  30.180        131.67	    12.570
  30.200        115.83	    11.790
  30.220        112.50	    11.619
  30.240        125.00	    12.247
  30.260        145.83	    13.229
  30.280        103.33	    11.136
  30.300        116.67	    11.832
  30.320        135.00	    12.728
  30.340        113.33	    11.662
  30.360        127.50	    12.369
  30.380        110.83	    11.533
  30.400        100.00	    10.954
  30.420         93.33	    10.583
  30.440         90.00	    10.392
  30.460         80.83	     9.849
  30.480         92.50	    10.536
  30.500         85.83	    10.149
  30.520         74.17	     9.434
  30.540         60.00	     8.485
  30.560         74.17	     9.434
  30.580         60.00	     8.485
  30.600         59.17	     8.426
  30.620         74.17	     9.434
  30.640         90.83	    10.440
  30.660         85.83	    10.149
  30.680         85.83	    10.149
  30.700         78.33	     9.695
  30.720        105.00	    11.225
  30.740        103.33	    11.136
  30.760        164.17	    14.036
  30.780        120.83	    12.042
  30.800        106.67	    11.314
  30.820        122.50	    12.124
  30.840        125.00	    12.247
  30.860        116.67	    11.832
  30.880        114.17	    11.705
  30.900        110.83	    11.533
  30.920         91.67	    10.488
  30.940         81.67	     9.899
  30.960        104.17	    11.180
  30.980        100.00	    10.954
  31.000        125.00	    12.247
  31.020        170.00	    14.283
  31.040        203.33	    15.620
  31.060        185.00	    14.900
  31.080        194.17	    15.264
  31.100        173.33	    14.422
  31.120        179.17	    14.663
  31.140        175.83	    14.526
  31.160        164.17	    14.036
  31.180        145.83	    13.229
  31.200        138.33	    12.884
  31.220        137.50	    12.845
  31.240        137.50	    12.845
  31.260        122.50	    12.124
  31.280        106.67	    11.314
  31.300         94.17	    10.630
  31.320         85.00	    10.100
  31.340         91.67	    10.488
  31.360         87.50	    10.247
  31.380        100.00	    10.954
  31.400        109.17	    11.446
  31.420        124.17	    12.207
  31.440        149.17	    13.379
  31.460        131.67	    12.570
  31.480        122.50	    12.124
  31.500         97.50	    10.817
  31.520        110.83	    11.533
  31.540         93.33	    10.583
  31.560        103.33	    11.136
  31.580         94.17	    10.630
  31.600         76.67	     9.592
  31.620         65.83	     8.888
  31.640         68.33	     9.055
  31.660         67.50	     9.000
  31.680         60.83	     8.544
  31.700         60.83	     8.544
  31.720         60.83	     8.544
  31.740         65.83	     8.888
  31.760         81.67	     9.899
  31.780         95.00	    10.677
  31.800         69.17	     9.110
  31.820         76.67	     9.592
  31.840         82.50	     9.950
  31.860         70.00	     9.165
  31.880         80.83	     9.849
  31.900        105.00	    11.225
  31.920         95.83	    10.724
  31.940        116.67	    11.832
  31.960        119.17	    11.958
  31.980        115.83	    11.790
  32.000        130.83	    12.530
  32.020         83.33	    10.000
  32.040         90.83	    10.440
  32.060         95.00	    10.677
  32.080         81.67	     9.899
  32.100         85.00	    10.100
  32.120         96.67	    10.770
  32.140        111.67	    11.576
  32.160        119.17	    11.958
  32.180        161.67	    13.928
  32.200        123.33	    12.166
  32.220        105.00	    11.225
  32.240         90.00	    10.392
  32.260        103.33	    11.136
  32.280         80.00	     9.798
  32.300         64.17	     8.775
  32.320         61.67	     8.602
  32.340         60.00	     8.485
  32.360         45.00	     7.348
  32.380         52.50	     7.937
  32.400         49.17	     7.681
  32.420         56.67	     8.246
  32.440         63.33	     8.718
  32.460         49.17	     7.681
  32.480         51.67	     7.874
  32.500         54.17	     8.062
  32.520         39.17	     6.856
  32.540         49.17	     7.681
  32.560         49.17	     7.681
  32.580         47.50	     7.550
  32.600         38.33	     6.782
  32.620         52.50	     7.937
  32.640         54.17	     8.062
  32.660         57.50	     8.307
  32.680         58.33	     8.367
  32.700         49.17	     7.681
  32.720         64.17	     8.775
  32.740         59.17	     8.426
  32.760         62.50	     8.660
  32.780         53.33	     8.000
  32.800         55.83	     8.185
  32.820         65.83	     8.888
  32.840         60.00	     8.485
  32.860         83.33	    10.000
  32.880         93.33	    10.583
  32.900        105.00	    11.225
  32.920        117.50	    11.874
  32.940        119.17	    11.958
  32.960        137.50	    12.845
  32.980        111.67	    11.576
  33.000        110.83	    11.533
  33.020        100.00	    10.954
  33.040         83.33	    10.000
  33.060         63.33	     8.718
  33.080         81.67	     9.899
  33.100         58.33	     8.367
  33.120         55.83	     8.185
  33.140         55.83	     8.185
  33.160         60.83	     8.544
  33.180         52.50	     7.937
  33.200         50.00	     7.746
  33.220         71.67	     9.274
  33.240         59.17	     8.426
  33.260         64.17	     8.775
  33.280         63.33	     8.718
  33.300         61.67	     8.602
  33.320         56.67	     8.246
  33.340         56.67	     8.246
  33.360         76.67	     9.592
  33.380         68.33	     9.055
  33.400         66.67	     8.944
  33.420         76.67	     9.592
  33.440         70.00	     9.165
  33.460         69.17	     9.110
  33.480         71.67	     9.274
  33.500         59.17	     8.426
  33.520         69.17	     9.110
  33.540         73.33	     9.381
  33.560         67.50	     9.000
  33.580         62.50	     8.660
  33.600         59.17	     8.426
  33.620         78.33	     9.695
  33.640         70.00	     9.165
  33.660         53.33	     8.000
  33.680         65.83	     8.888
  33.700         65.83	     8.888
  33.720         65.83	     8.888
  33.740         69.17	     9.110
  33.760         80.00	     9.798
  33.780         70.83	     9.220
  33.800         74.17	     9.434
  33.820         81.67	     9.899
  33.840         96.67	    10.770
  33.860        100.00	    10.954
  33.880         91.67	    10.488
  33.900         93.33	    10.583
  33.920        110.00	    11.489
  33.940        100.00	    10.954
  33.960        107.50	    11.358
  33.980         95.00	    10.677
  34.000        106.67	    11.314
  34.020         98.33	    10.863
  34.040         75.00	     9.487
  34.060         91.67	    10.488
  34.080         68.33	     9.055
  34.100         71.67	     9.274
  34.120         92.50	    10.536
  34.140         87.50	    10.247
  34.160         70.83	     9.220
  34.180         78.33	     9.695
  34.200         84.17	    10.050
  34.220         96.67	    10.770
  34.240        100.00	    10.954
  34.260         91.67	    10.488
  34.280        111.67	    11.576
  34.300        124.17	    12.207
  34.320        128.33	    12.410
  34.340        114.17	    11.705
  34.360        112.50	    11.619
  34.380        139.17	    12.923
  34.400        150.00	    13.416
  34.420        177.50	    14.595
  34.440        153.33	    13.565
  34.460        170.83	    14.318
  34.480        164.17	    14.036
  34.500        175.00	    14.491
  34.520        165.00	    14.071
  34.540        127.50	    12.369
  34.560        120.00	    12.000
  34.580        121.67	    12.083
  34.600        130.00	    12.490
  34.620        117.50	    11.874
  34.640        115.83	    11.790
  34.660        113.33	    11.662
  34.680        136.67	    12.806
  34.700        123.33	    12.166
  34.720        121.67	    12.083
  34.740        140.83	    13.000
  34.760        159.17	    13.820
  34.780        195.83	    15.330
  34.800        186.67	    14.967
  34.820        202.50	    15.588
  34.840        190.00	    15.100
  34.860        172.50	    14.387
  34.880        187.50	    15.000
  34.900        210.00	    15.875
  34.920        196.67	    15.362
  34.940        185.83	    14.933
  34.960        178.33	    14.629
  34.980        174.17	    14.457
  35.000        174.17	    14.457
  35.020        154.17	    13.601
  35.040        148.33	    13.342
  35.060        143.33	    13.115
  35.080        160.00	    13.856
  35.100        140.83	    13.000
  35.120        150.00	    13.416
  35.140        144.17	    13.153
  35.160        155.00	    13.638
  35.180        154.17	    13.601
  35.200        151.67	    13.491
  35.220        150.83	    13.454
  35.240        167.50	    14.177
  35.260        155.00	    13.638
  35.280        197.50	    15.395
  35.300        219.17	    16.217
  35.320        244.17	    17.117
  35.340        248.33	    17.263
  35.360        341.67	    20.248
  35.380        423.33	    22.539
  35.400        466.67	    23.664
  35.420        540.83	    25.475
  35.440        545.00	    25.573
  35.460        508.33	    24.698
  35.480        425.00	    22.583
  35.500        493.33	    24.331
  35.520        474.17	    23.854
  35.540        366.67	    20.976
  35.560        307.50	    19.209
  35.580        222.50	    16.340
  35.600        208.33	    15.811
  35.620        175.83	    14.526
  35.640        171.67	    14.353
  35.660        165.83	    14.107
  35.680        142.50	    13.077
  35.700        122.50	    12.124
  35.720        118.33	    11.916
  35.740        115.00	    11.747
  35.760        115.00	    11.747
  35.780        103.33	    11.136
  35.800        121.67	    12.083
  35.820        108.33	    11.402
  35.840        101.67	    11.045
  35.860        126.67	    12.329
  35.880        108.33	    11.402
  35.900        124.17	    12.207
  35.920        145.83	    13.229
  35.940        125.00	    12.247
  35.960        145.83	    13.229
  35.980        155.00	    13.638
  36.000        137.50	    12.845
  36.020        145.00	    13.191
  36.040        144.17	    13.153
  36.060        115.83	    11.790
  36.080        105.00	    11.225
  36.100         95.83	    10.724
  36.120         96.67	    10.770
  36.140         82.50	     9.950
  36.160         93.33	    10.583
  36.180         65.83	     8.888
  36.200         80.00	     9.798
  36.220         80.00	     9.798
  36.240         96.67	    10.770
  36.260        103.33	    11.136
  36.280         96.67	    10.770
  36.300        110.00	    11.489
  36.320        150.00	    13.416
  36.340        174.17	    14.457
  36.360        224.17	    16.401
  36.380        285.00	    18.493
  36.400        378.33	    21.307
  36.420        349.17	    20.469
  36.440        287.50	    18.574
  36.460        251.67	    17.378
  36.480        228.33	    16.553
  36.500        259.17	    17.635
  36.520        218.33	    16.186
  36.540        220.00	    16.248
  36.560        170.83	    14.318
  36.580        145.00	    13.191
  36.600        164.17	    14.036
  36.620        127.50	    12.369
  36.640        150.83	    13.454
  36.660        141.67	    13.038
  36.680        127.50	    12.369
  36.700        150.83	    13.454
  36.720        107.50	    11.358
  36.740        104.17	    11.180
  36.760         93.33	    10.583
  36.780         83.33	    10.000
  36.800        102.50	    11.091
  36.820         85.00	    10.100
  36.840         85.83	    10.149
  36.860         85.83	    10.149
  36.880         81.67	     9.899
  36.900         83.33	    10.000
  36.920        101.67	    11.045
  36.940         97.50	    10.817
  36.960        108.33	    11.402
  36.980        136.67	    12.806
  37.000        153.33	    13.565
  37.020        160.83	    13.892
  37.040        167.50	    14.177
  37.060        163.33	    14.000
  37.080        172.50	    14.387
  37.100        135.00	    12.728
  37.120        134.17	    12.689
  37.140        122.50	    12.124
  37.160        119.17	    11.958
  37.180        114.17	    11.705
  37.200        120.83	    12.042
  37.220        124.17	    12.207
  37.240        125.00	    12.247
  37.260        132.50	    12.610
  37.280        138.33	    12.884
  37.300        129.17	    12.450
  37.320        124.17	    12.207
  37.340        114.17	    11.705
  37.360        120.00	    12.000
  37.380        124.17	    12.207
  37.400        113.33	    11.662
  37.420        130.83	    12.530
  37.440        120.83	    12.042
  37.460        120.00	    12.000
  37.480        130.00	    12.490
  37.500        125.83	    12.288
  37.520        130.83	    12.530
  37.540        133.33	    12.649
  37.560        111.67	    11.576
  37.580        139.17	    12.923
  37.600        110.00	    11.489
  37.620        123.33	    12.166
  37.640        117.50	    11.874
  37.660         95.00	    10.677
  37.680         95.00	    10.677
  37.700         88.33	    10.296
  37.720         70.00	     9.165
  37.740         71.67	     9.274
  37.760         65.83	     8.888
  37.780         60.83	     8.544
  37.800         68.33	     9.055
  37.820         51.67	     7.874
  37.840         58.33	     8.367
  37.860         40.83	     7.000
  37.880         60.00	     8.485
  37.900         49.17	     7.681
  37.920         42.50	     7.141
  37.940         48.33	     7.616
  37.960         43.33	     7.211
  37.980         50.83	     7.810
  38.000         45.00	     7.348
  38.020         52.50	     7.937
  38.040         58.33	     8.367
  38.060         44.17	     7.280
  38.080         51.67	     7.874
  38.100         54.17	     8.062
  38.120         37.50	     6.708
  38.140         45.00	     7.348
  38.160         53.33	     8.000
  38.180         47.50	     7.550
  38.200         56.67	     8.246
  38.220         57.50	     8.307
  38.240         55.00	     8.124
  38.260         48.33	     7.616
  38.280         54.17	     8.062
  38.300         51.67	     7.874
  38.320         60.83	     8.544
  38.340         64.17	     8.775
  38.360         52.50	     7.937
  38.380         51.67	     7.874
  38.400         52.50	     7.937
  38.420         63.33	     8.718
  38.440         68.33	     9.055
  38.460         60.83	     8.544
  38.480         75.83	     9.539
  38.500         53.33	     8.000
  38.520         58.33	     8.367
  38.540         60.00	     8.485
  38.560         65.83	     8.888
  38.580         60.00	     8.485
  38.600         70.83	     9.220
  38.620         69.17	     9.110
  38.640         70.83	     9.220
  38.660         87.50	    10.247
  38.680        102.50	    11.091
  38.700        111.67	    11.576
  38.720        113.33	    11.662
  38.740         98.33	    10.863
  38.760         93.33	    10.583
  38.780         99.17	    10.909
  38.800         96.67	    10.770
  38.820         72.50	     9.327
  38.840         69.17	     9.110
  38.860         70.00	     9.165
  38.880         64.17	     8.775
  38.900         60.83	     8.544
  38.920         72.50	     9.327
  38.940         52.50	     7.937
  38.960         65.83	     8.888
  38.980         68.33	     9.055
  39.000         50.83	     7.810
  39.020         56.67	     8.246
  39.040         58.33	     8.367
  39.060         54.17	     8.062
  39.080         51.67	     7.874
  39.100         50.00	     7.746
  39.120         47.50	     7.550
  39.140         53.33	     8.000
  39.160         50.83	     7.810
  39.180         45.83	     7.416
  39.200         55.83	     8.185
  39.220         61.67	     8.602
  39.240         56.67	     8.246
  39.260         90.83	    10.440
  39.280         82.50	     9.950
  39.300        102.50	    11.091
  39.320        141.67	    13.038
  39.340        162.50	    13.964
  39.360        145.00	    13.191
  39.380        124.17	    12.207
  39.400        111.67	    11.576
  39.420        118.33	    11.916
  39.440        134.17	    12.689
  39.460        139.17	    12.923
  39.480        116.67	    11.832
  39.500        100.00	    10.954
  39.520        109.17	    11.446
  39.540         92.50	    10.536
  39.560         72.50	     9.327
  39.580         82.50	     9.950
  39.600         87.50	    10.247
  39.620         85.00	    10.100
  39.640         80.00	     9.798
  39.660         75.83	     9.539
  39.680         82.50	     9.950
  39.700         57.50	     8.307
  39.720         74.17	     9.434
  39.740         87.50	    10.247
  39.760         72.50	     9.327
  39.780         65.83	     8.888
  39.800         73.33	     9.381
  39.820         67.50	     9.000
  39.840         58.33	     8.367
  39.860         76.67	     9.592
  39.880         85.83	    10.149
  39.900         63.33	     8.718
  39.920         81.67	     9.899
  39.940         73.33	     9.381
  39.960         69.17	     9.110
  39.980         73.33	     9.381
  40.000         60.00	     8.485
  40.020         60.83	     8.544
  40.040         75.83	     9.539
  40.060         66.67	     8.944
  40.080         80.00	     9.798
  40.100         81.67	     9.899
  40.120         80.00	     9.798
  40.140         97.50	    10.817
  40.160         95.83	    10.724
  40.180        101.67	    11.045
  40.200         93.33	    10.583
  40.220         90.83	    10.440
  40.240         85.00	    10.100
  40.260        104.17	    11.180
  40.280         86.67	    10.198
  40.300         80.00	     9.798
  40.320         70.83	     9.220
  40.340         75.83	     9.539
  40.360         73.33	     9.381
  40.380         73.33	     9.381
  40.400         67.50	     9.000
  40.420         50.83	     7.810
  40.440         63.33	     8.718
  40.460         54.17	     8.062
  40.480         55.83	     8.185
  40.500         55.00	     8.124
  40.520         65.00	     8.832
  40.540         55.00	     8.124
  40.560         50.83	     7.810
  40.580         62.50	     8.660
  40.600         57.50	     8.307
  40.620         69.17	     9.110
  40.640         63.33	     8.718
  40.660         61.67	     8.602
  40.680         78.33	     9.695
  40.700         68.33	     9.055
  40.720         68.33	     9.055
  40.740         56.67	     8.246
  40.760         65.00	     8.832
  40.780         85.00	    10.100
  40.800         80.00	     9.798
  40.820         73.33	     9.381
  40.840         77.50	     9.644
  40.860         96.67	    10.770
  40.880         66.67	     8.944
  40.900         86.67	    10.198
  40.920         74.17	     9.434
  40.940         80.00	     9.798
  40.960         78.33	     9.695
  40.980         77.50	     9.644
  41.000         79.17	     9.747
  41.020         69.17	     9.110
  41.040         69.17	     9.110
  41.060         80.83	     9.849
  41.080         71.67	     9.274
  41.100         65.83	     8.888
  41.120         82.50	     9.950
  41.140         73.33	     9.381
  41.160         82.50	     9.950
  41.180         65.00	     8.832
  41.200         68.33	     9.055
  41.220         77.50	     9.644
  41.240         70.83	     9.220
  41.260         62.50	     8.660
  41.280         73.33	     9.381
  41.300         69.17	     9.110
  41.320         77.50	     9.644
  41.340         78.33	     9.695
  41.360         81.67	     9.899
  41.380         87.50	    10.247
  41.400         76.67	     9.592
  41.420         95.83	    10.724
  41.440         97.50	    10.817
  41.460        122.50	    12.124
  41.480        130.83	    12.530
  41.500        145.00	    13.191
  41.520        135.83	    12.767
  41.540        178.33	    14.629
  41.560        164.17	    14.036
  41.580        187.50	    15.000
  41.600        173.33	    14.422
  41.620        195.00	    15.297
  41.640        140.00	    12.961
  41.660        135.00	    12.728
  41.680        140.83	    13.000
  41.700        162.50	    13.964
  41.720        155.00	    13.638
  41.740        135.00	    12.728
  41.760        120.83	    12.042
  41.780        119.17	    11.958
  41.800        140.83	    13.000
  41.820        143.33	    13.115
  41.840        153.33	    13.565
  41.860        158.33	    13.784
  41.880        146.67	    13.266
  41.900        135.83	    12.767
  41.920        110.83	    11.533
  41.940        115.83	    11.790
  41.960        120.83	    12.042
  41.980        137.50	    12.845
  42.000        102.50	    11.091
  42.020         77.50	     9.644
  42.040         76.67	     9.592
  42.060         73.33	     9.381
  42.080         80.00	     9.798
  42.100         81.67	     9.899
  42.120         65.83	     8.888
  42.140         79.17	     9.747
  42.160         73.33	     9.381
  42.180         80.83	     9.849
  42.200         80.83	     9.849
  42.220         95.83	    10.724
  42.240        102.50	    11.091
  42.260        114.17	    11.705
  42.280        135.83	    12.767
  42.300        153.33	    13.565
  42.320        160.83	    13.892
  42.340        162.50	    13.964
  42.360        152.50	    13.528
  42.380        120.83	    12.042
  42.400        118.33	    11.916
  42.420        110.83	    11.533
  42.440        122.50	    12.124
  42.460        112.50	    11.619
  42.480         88.33	    10.296
  42.500         81.67	     9.899
  42.520         71.67	     9.274
  42.540         66.67	     8.944
  42.560         76.67	     9.592
  42.580         69.17	     9.110
  42.600         68.33	     9.055
  42.620         60.00	     8.485
  42.640         54.17	     8.062
  42.660         71.67	     9.274
  42.680         64.17	     8.775
  42.700         56.67	     8.246
  42.720         50.83	     7.810
  42.740         62.50	     8.660
  42.760         56.67	     8.246
  42.780         65.00	     8.832
  42.800         62.50	     8.660
  42.820         66.67	     8.944
  42.840         58.33	     8.367
  42.860         65.83	     8.888
  42.880         72.50	     9.327
  42.900         66.67	     8.944
  42.920         65.00	     8.832
  42.940         80.00	     9.798
  42.960         54.17	     8.062
  42.980         57.50	     8.307
  43.000         55.00	     8.124
  43.020         47.50	     7.550
  43.040         52.50	     7.937
  43.060         50.00	     7.746
  43.080         41.67	     7.071
  43.100         56.67	     8.246
  43.120         52.50	     7.937
  43.140         48.33	     7.616
  43.160         41.67	     7.071
  43.180         47.50	     7.550
  43.200         44.17	     7.280
  43.220         48.33	     7.616
  43.240         32.50	     6.245
  43.260         35.83	     6.557
  43.280         42.50	     7.141
  43.300         37.50	     6.708
  43.320         50.83	     7.810
  43.340         48.33	     7.616
  43.360         54.17	     8.062
  43.380         50.83	     7.810
  43.400         70.83	     9.220
  43.420         87.50	    10.247
  43.440         59.17	     8.426
  43.460         51.67	     7.874
  43.480         46.67	     7.483
  43.500         48.33	     7.616
  43.520         61.67	     8.602
  43.540         65.00	     8.832
  43.560         59.17	     8.426
  43.580         45.00	     7.348
  43.600         54.17	     8.062
  43.620         45.83	     7.416
  43.640         49.17	     7.681
  43.660         49.17	     7.681
  43.680         57.50	     8.307
  43.700         68.33	     9.055
  43.720         60.00	     8.485
  43.740         63.33	     8.718
  43.760         50.83	     7.810
  43.780         49.17	     7.681
  43.800         45.83	     7.416
  43.820         50.83	     7.810
  43.840         62.50	     8.660
  43.860         43.33	     7.211
  43.880         47.50	     7.550
  43.900         40.83	     7.000
  43.920         40.00	     6.928
  43.940         50.00	     7.746
  43.960         54.17	     8.062
  43.980         67.50	     9.000
  44.000         54.17	     8.062
  44.020         69.17	     9.110
  44.040         69.17	     9.110
  44.060         57.50	     8.307
  44.080         50.00	     7.746
  44.100         60.83	     8.544
  44.120         58.33	     8.367
  44.140         61.67	     8.602
  44.160         65.00	     8.832
  44.180         83.33	    10.000
  44.200         62.50	     8.660
  44.220         66.67	     8.944
  44.240         58.33	     8.367
  44.260         65.83	     8.888
  44.280         60.00	     8.485
  44.300         57.50	     8.307
  44.320         73.33	     9.381
  44.340         71.67	     9.274
  44.360         59.17	     8.426
  44.380         40.83	     7.000
  44.400         59.17	     8.426
  44.420         67.50	     9.000
  44.440         45.83	     7.416
  44.460         60.00	     8.485
  44.480         64.17	     8.775
  44.500         62.50	     8.660
  44.520         55.00	     8.124
  44.540         60.00	     8.485
  44.560         51.67	     7.874
  44.580         75.00	     9.487
  44.600         52.50	     7.937
  44.620         76.67	     9.592
  44.640         79.17	     9.747
  44.660         82.50	     9.950
  44.680         62.50	     8.660
  44.700         80.00	     9.798
  44.720         80.00	     9.798
  44.740         75.83	     9.539
  44.760         96.67	    10.770
  44.780         92.50	    10.536
  44.800        100.83	    11.000
  44.820        105.00	    11.225
  44.840        107.50	    11.358
  44.860        130.00	    12.490
  44.880        119.17	    11.958
  44.900        101.67	    11.045
  44.920         89.17	    10.344
  44.940        109.17	    11.446
  44.960         95.83	    10.724
  44.980         80.00	     9.798
  45.000         90.83	    10.440
  45.020         90.00	    10.392
  45.040         94.17	    10.630
  45.060        100.00	    10.954
  45.080         85.00	    10.100
  45.100         85.00	    10.100
  45.120         90.83	    10.440
  45.140         91.67	    10.488
  45.160        103.33	    11.136
  45.180         97.50	    10.817
  45.200         92.50	    10.536
  45.220         96.67	    10.770
  45.240        103.33	    11.136
  45.260        110.83	    11.533
  45.280        147.50	    13.304
  45.300        135.83	    12.767
  45.320        173.33	    14.422
  45.340        211.67	    15.937
  45.360        237.50	    16.882
  45.380        245.83	    17.176
  45.400        278.33	    18.276
  45.420        275.83	    18.193
  45.440        286.67	    18.547
  45.460        318.33	    19.545
  45.480        365.00	    20.928
  45.500        316.67	    19.494
  45.520        316.67	    19.494
  45.540        235.00	    16.793
  45.560        215.00	    16.062
  45.580        221.67	    16.310
  45.600        173.33	    14.422
  45.620        179.17	    14.663
  45.640        165.83	    14.107
  45.660        155.00	    13.638
  45.680        130.83	    12.530
  45.700        111.67	    11.576
  45.720         90.83	    10.440
  45.740         75.83	     9.539
  45.760         77.50	     9.644
  45.780         71.67	     9.274
  45.800         94.17	    10.630
  45.820         75.00	     9.487
  45.840         69.17	     9.110
  45.860         70.00	     9.165
  45.880         78.33	     9.695
  45.900         77.50	     9.644
  45.920         76.67	     9.592
  45.940         60.00	     8.485
  45.960         73.33	     9.381
  45.980         72.50	     9.327
  46.000         56.67	     8.246
  46.020         52.50	     7.937
  46.040         55.00	     8.124
  46.060         53.33	     8.000
  46.080         53.33	     8.000
  46.100         60.00	     8.485
  46.120         49.17	     7.681
  46.140         45.83	     7.416
  46.160         40.00	     6.928
  46.180         51.67	     7.874
  46.200         55.00	     8.124
  46.220         39.17	     6.856
  46.240         37.50	     6.708
  46.260         54.17	     8.062
  46.280         50.00	     7.746
  46.300         48.33	     7.616
  46.320         34.17	     6.403
  46.340         36.67	     6.633
  46.360         53.33	     8.000
  46.380         56.67	     8.246
  46.400         50.00	     7.746
  46.420         51.67	     7.874
  46.440         48.33	     7.616
  46.460         46.67	     7.483
  46.480         46.67	     7.483
  46.500         42.50	     7.141
  46.520         54.17	     8.062
  46.540         51.67	     7.874
  46.560         45.83	     7.416
  46.580         40.83	     7.000
  46.600         35.83	     6.557
  46.620         42.50	     7.141
  46.640         50.83	     7.810
  46.660         29.17	     5.916
  46.680         33.33	     6.325
  46.700         52.50	     7.937
  46.720         47.50	     7.550
  46.740         47.50	     7.550
  46.760         40.00	     6.928
  46.780         45.83	     7.416
  46.800         33.33	     6.325
  46.820         37.50	     6.708
  46.840         44.17	     7.280
  46.860         45.00	     7.348
  46.880         54.17	     8.062
  46.900         54.17	     8.062
  46.920         56.67	     8.246
  46.940         48.33	     7.616
  46.960         55.00	     8.124
  46.980         61.67	     8.602
  47.000         62.50	     8.660
  47.020         53.33	     8.000
  47.040         51.67	     7.874
  47.060         58.33	     8.367
  47.080         56.67	     8.246
  47.100         74.17	     9.434
  47.120         64.17	     8.775
  47.140         55.83	     8.185
  47.160         67.50	     9.000
  47.180         39.17	     6.856
  47.200         61.67	     8.602
  47.220         49.17	     7.681
  47.240         61.67	     8.602
  47.260         33.33	     6.325
  47.280         49.17	     7.681
  47.300         50.83	     7.810
  47.320         44.17	     7.280
  47.340         37.50	     6.708
  47.360         35.83	     6.557
  47.380         40.00	     6.928
  47.400         37.50	     6.708
  47.420         43.33	     7.211
  47.440         42.50	     7.141
  47.460         42.50	     7.141
  47.480         35.00	     6.481
  47.500         40.00	     6.928
  47.520         32.50	     6.245
  47.540         30.83	     6.083
  47.560         25.83	     5.568
  47.580         35.00	     6.481
  47.600         30.83	     6.083
  47.620         37.50	     6.708
  47.640         34.17	     6.403
  47.660         35.83	     6.557
  47.680         44.17	     7.280
  47.700         38.33	     6.782
  47.720         34.17	     6.403
  47.740         32.50	     6.245
  47.760         40.83	     7.000
  47.780         52.50	     7.937
  47.800         45.00	     7.348
  47.820         55.00	     8.124
  47.840         55.83	     8.185
  47.860         57.50	     8.307
  47.880         48.33	     7.616
  47.900         67.50	     9.000
  47.920         60.00	     8.485
  47.940         66.67	     8.944
  47.960         65.83	     8.888
  47.980         75.83	     9.539
  48.000         71.67	     9.274
  48.020         79.17	     9.747
  48.040         83.33	    10.000
  48.060         70.00	     9.165
  48.080         64.17	     8.775
  48.100         67.50	     9.000
  48.120         65.00	     8.832
  48.140         64.17	     8.775
  48.160         64.17	     8.775
  48.180         71.67	     9.274
  48.200         74.17	     9.434
  48.220         58.33	     8.367
  48.240         56.67	     8.246
  48.260         59.17	     8.426
  48.280         45.00	     7.348
  48.300         58.33	     8.367
  48.320         56.67	     8.246
  48.340         59.17	     8.426
  48.360         65.00	     8.832
  48.380         45.83	     7.416
  48.400         59.17	     8.426
  48.420         55.00	     8.124
  48.440         55.83	     8.185
  48.460         57.50	     8.307
  48.480         71.67	     9.274
  48.500         52.50	     7.937
  48.520         65.00	     8.832
  48.540         49.17	     7.681
  48.560         54.17	     8.062
  48.580         53.33	     8.000
  48.600         47.50	     7.550
  48.620         43.33	     7.211
  48.640         70.83	     9.220
  48.660         60.83	     8.544
  48.680         65.00	     8.832
  48.700         61.67	     8.602
  48.720         56.67	     8.246
  48.740         50.83	     7.810
  48.760         53.33	     8.000
  48.780         68.33	     9.055
  48.800         68.33	     9.055
  48.820         66.67	     8.944
  48.840         53.33	     8.000
  48.860         50.83	     7.810
  48.880         44.17	     7.280
  48.900         55.00	     8.124
  48.920         61.67	     8.602
  48.940         51.67	     7.874
  48.960         47.50	     7.550
  48.980         49.17	     7.681
  49.000         50.83	     7.810
  49.020         50.00	     7.746
  49.040         63.33	     8.718
  49.060         66.67	     8.944
  49.080         55.83	     8.185
  49.100         45.83	     7.416
  49.120         67.50	     9.000
  49.140         56.67	     8.246
  49.160         64.17	     8.775
  49.180         53.33	     8.000
  49.200         61.67	     8.602
  49.220         64.17	     8.775
  49.240         57.50	     8.307
  49.260         53.33	     8.000
  49.280         62.50	     8.660
  49.300         59.17	     8.426
  49.320         65.83	     8.888
  49.340         60.00	     8.485
  49.360         55.00	     8.124
  49.380         60.00	     8.485
  49.400         60.83	     8.544
  49.420         63.33	     8.718
  49.440         69.17	     9.110
  49.460         60.00	     8.485
  49.480         73.33	     9.381
  49.500         60.00	     8.485
  49.520         90.83	    10.440
  49.540         73.33	     9.381
  49.560         66.67	     8.944
  49.580         79.17	     9.747
  49.600         95.00	    10.677
  49.620        108.33	    11.402
  49.640         88.33	    10.296
  49.660         96.67	    10.770
  49.680        105.00	    11.225
  49.700        110.83	    11.533
  49.720        108.33	    11.402
  49.740        110.83	    11.533
  49.760        113.33	    11.662
  49.780        135.00	    12.728
  49.800        118.33	    11.916
  49.820        125.00	    12.247
  49.840        114.17	    11.705
  49.860         98.33	    10.863
  49.880        107.50	    11.358
  49.900        117.50	    11.874
  49.920        114.17	    11.705
  49.940        123.33	    12.166
  49.960        148.33	    13.342
  49.980        270.00	    18.000
  50.000        358.33	    20.736
  50.020        382.50	    21.424
  50.040        364.17	    20.905
  50.060        307.50	    19.209
  50.080        191.67	    15.166
  50.100        184.17	    14.866
  50.120        218.33	    16.186
  50.140        235.83	    16.823
  50.160        261.67	    17.720
  50.180        210.00	    15.875
  50.200        160.83	    13.892
  50.220        125.00	    12.247
  50.240         93.33	    10.583
  50.260         82.50	     9.950
  50.280         75.83	     9.539
  50.300         84.17	    10.050
  50.320         78.33	     9.695
  50.340         77.50	     9.644
  50.360         70.00	     9.165
  50.380         64.17	     8.775
  50.400         60.00	     8.485
  50.420         66.67	     8.944
  50.440         80.00	     9.798
  50.460         71.67	     9.274
  50.480         83.33	    10.000
  50.500        100.83	    11.000
  50.520         85.00	    10.100
  50.540         70.00	     9.165
  50.560         57.50	     8.307
  50.580         78.33	     9.695
  50.600         75.00	     9.487
  50.620         65.00	     8.832
  50.640         65.00	     8.832
  50.660         65.00	     8.832
  50.680         56.67	     8.246
  50.700         60.83	     8.544
  50.720         44.17	     7.280
  50.740         55.00	     8.124
  50.760         46.67	     7.483
  50.780         67.50	     9.000
  50.800         58.33	     8.367
  50.820         48.33	     7.616
  50.840         47.50	     7.550
  50.860         51.67	     7.874
  50.880         45.00	     7.348
  50.900         64.17	     8.775
  50.920         56.67	     8.246
  50.940         67.50	     9.000
  50.960         77.50	     9.644
  50.980         92.50	    10.536
  51.000        117.50	    11.874
  51.020        127.50	    12.369
  51.040        142.50	    13.077
  51.060        150.83	    13.454
  51.080        140.83	    13.000
  51.100        181.67	    14.765
  51.120        142.50	    13.077
  51.140        150.83	    13.454
  51.160        150.00	    13.416
  51.180        172.50	    14.387
  51.200        165.83	    14.107
  51.220        143.33	    13.115
  51.240        140.83	    13.000
  51.260        141.67	    13.038
  51.280        130.83	    12.530
  51.300         98.33	    10.863
  51.320         94.17	    10.630
  51.340         80.00	     9.798
  51.360         95.83	    10.724
  51.380         69.17	     9.110
  51.400         60.00	     8.485
  51.420         56.67	     8.246
  51.440         40.83	     7.000
  51.460         49.17	     7.681
  51.480         47.50	     7.550
  51.500         45.83	     7.416
  51.520         55.00	     8.124
  51.540         40.83	     7.000
  51.560         41.67	     7.071
  51.580         35.83	     6.557
  51.600         38.33	     6.782
  51.620         45.00	     7.348
  51.640         42.50	     7.141
  51.660         50.83	     7.810
  51.680         32.50	     6.245
  51.700         35.00	     6.481
  51.720         37.50	     6.708
  51.740         47.50	     7.550
  51.760         38.33	     6.782
  51.780         56.67	     8.246
  51.800         59.17	     8.426
  51.820         68.33	     9.055
  51.840         70.83	     9.220
  51.860         65.00	     8.832
  51.880         77.50	     9.644
  51.900         53.33	     8.000
  51.920         68.33	     9.055
  51.940         59.17	     8.426
  51.960         57.50	     8.307
  51.980         82.50	     9.950
  52.000         57.50	     8.307
  52.020         78.33	     9.695
  52.040         90.83	    10.440
  52.060        104.17	    11.180
  52.080        114.17	    11.705
  52.100        116.67	    11.832
  52.120        104.17	    11.180
  52.140         80.83	     9.849
  52.160         68.33	     9.055
  52.180         88.33	    10.296
  52.200        106.67	    11.314
  52.220        112.50	    11.619
  52.240        100.83	    11.000
  52.260         86.67	    10.198
  52.280         73.33	     9.381
  52.300         68.33	     9.055
  52.320         79.17	     9.747
  52.340         80.00	     9.798
  52.360         81.67	     9.899
  52.380        100.83	    11.000
  52.400        108.33	    11.402
  52.420         92.50	    10.536
  52.440         95.83	    10.724
  52.460         88.33	    10.296
  52.480         57.50	     8.307
  52.500         70.83	     9.220
  52.520         78.33	     9.695
  52.540         83.33	    10.000
  52.560         80.00	     9.798
  52.580         73.33	     9.381
  52.600         65.00	     8.832
  52.620         62.50	     8.660
  52.640         74.17	     9.434
  52.660         66.67	     8.944
  52.680         62.50	     8.660
  52.700         60.00	     8.485
  52.720         56.67	     8.246
  52.740         65.83	     8.888
  52.760         55.83	     8.185
  52.780         61.67	     8.602
  52.800         55.83	     8.185
  52.820         56.67	     8.246
  52.840         53.33	     8.000
  52.860         60.83	     8.544
  52.880         56.67	     8.246
  52.900         58.33	     8.367
  52.920         57.50	     8.307
  52.940         64.17	     8.775
  52.960         59.17	     8.426
  52.980         55.83	     8.185
  53.000         66.67	     8.944
  53.020         70.83	     9.220
  53.040         64.17	     8.775
  53.060         67.50	     9.000
  53.080         62.50	     8.660
  53.100         64.17	     8.775
  53.120         74.17	     9.434
  53.140         67.50	     9.000
  53.160         75.83	     9.539
  53.180         59.17	     8.426
  53.200         68.33	     9.055
  53.220         55.00	     8.124
  53.240         44.17	     7.280
  53.260         65.00	     8.832
  53.280         68.33	     9.055
  53.300         61.67	     8.602
  53.320         55.83	     8.185
  53.340         45.83	     7.416
  53.360         45.83	     7.416
  53.380         45.83	     7.416
  53.400         45.83	     7.416
  53.420         45.00	     7.348
  53.440         53.33	     8.000
  53.460         42.50	     7.141
  53.480         46.67	     7.483
  53.500         41.67	     7.071
  53.520         51.67	     7.874
  53.540         53.33	     8.000
  53.560         45.00	     7.348
  53.580         54.17	     8.062
  53.600         60.00	     8.485
  53.620         56.67	     8.246
  53.640         60.00	     8.485
  53.660         49.17	     7.681
  53.680         55.83	     8.185
  53.700         62.50	     8.660
  53.720         74.17	     9.434
  53.740         68.33	     9.055
  53.760         45.00	     7.348
  53.780         51.67	     7.874
  53.800         57.50	     8.307
  53.820         40.00	     6.928
  53.840         52.50	     7.937
  53.860         52.50	     7.937
  53.880         59.17	     8.426
  53.900         55.83	     8.185
  53.920         35.83	     6.557
  53.940         47.50	     7.550
  53.960         55.83	     8.185
  53.980         56.67	     8.246
  54.000         42.50	     7.141
  54.020         51.67	     7.874
  54.040         36.67	     6.633
  54.060         50.00	     7.746
  54.080         55.00	     8.124
  54.100         46.67	     7.483
  54.120         52.50	     7.937
  54.140         60.83	     8.544
  54.160         69.17	     9.110
  54.180         53.33	     8.000
  54.200         57.50	     8.307
  54.220         61.67	     8.602
  54.240         73.33	     9.381
  54.260         65.00	     8.832
  54.280         65.83	     8.888
  54.300         72.50	     9.327
  54.320         56.67	     8.246
  54.340         57.50	     8.307
  54.360         55.00	     8.124
  54.380         56.67	     8.246
  54.400         63.33	     8.718
  54.420         70.00	     9.165
  54.440         63.33	     8.718
  54.460         64.17	     8.775
  54.480         57.50	     8.307
  54.500         67.50	     9.000
  54.520         65.83	     8.888
  54.540         63.33	     8.718
  54.560         67.50	     9.000
  54.580         60.00	     8.485
  54.600         55.83	     8.185
  54.620         75.83	     9.539
  54.640         77.50	     9.644
  54.660         73.33	     9.381
  54.680         89.17	    10.344
  54.700        110.00	    11.489
  54.720        112.50	    11.619
  54.740        131.67	    12.570
  54.760        120.83	    12.042
  54.780        105.83	    11.269
  54.800        119.17	    11.958
  54.820         73.33	     9.381
  54.840         75.83	     9.539
  54.860        101.67	    11.045
  54.880         96.67	    10.770
  54.900        105.00	    11.225
  54.920        115.83	    11.790
  54.940         95.83	    10.724
  54.960         84.17	    10.050
  54.980         55.00	     8.124
  55.000         65.00	     8.832
  55.020         70.83	     9.220
  55.040         76.67	     9.592
  55.060         85.83	    10.149
  55.080         72.50	     9.327
  55.100         70.00	     9.165
  55.120         71.67	     9.274
  55.140         75.00	     9.487
  55.160         73.33	     9.381
  55.180         71.67	     9.274
  55.200         90.00	    10.392
  55.220         85.83	    10.149
  55.240         90.83	    10.440
  55.260         70.00	     9.165
  55.280         70.00	     9.165
  55.300         71.67	     9.274
  55.320         63.33	     8.718
  55.340         69.17	     9.110
  55.360         79.17	     9.747
  55.380         65.83	     8.888
  55.400         71.67	     9.274
  55.420         64.17	     8.775
  55.440         68.33	     9.055
  55.460         68.33	     9.055
  55.480         69.17	     9.110
  55.500         75.00	     9.487
  55.520         75.83	     9.539
  55.540         68.33	     9.055
  55.560         86.67	    10.198
  55.580         86.67	    10.198
  55.600         81.67	     9.899
  55.620         85.83	    10.149
  55.640        103.33	    11.136
  55.660         88.33	    10.296
  55.680         95.00	    10.677
  55.700        106.67	    11.314
  55.720        108.33	    11.402
  55.740        117.50	    11.874
  55.760        108.33	    11.402
  55.780        107.50	    11.358
  55.800         85.00	    10.100
  55.820         86.67	    10.198
  55.840         82.50	     9.950
  55.860         81.67	     9.899
  55.880         81.67	     9.899
  55.900         96.67	    10.770
  55.920         80.00	     9.798
  55.940         80.00	     9.798
  55.960         92.50	    10.536
  55.980         90.00	    10.392
  56.000         63.33	     8.718
  56.020         58.33	     8.367
  56.040         66.67	     8.944
  56.060         62.50	     8.660
  56.080         64.17	     8.775
  56.100         70.00	     9.165
  56.120         58.33	     8.367
  56.140         61.67	     8.602
  56.160         51.67	     7.874
  56.180         45.83	     7.416
  56.200         44.17	     7.280
  56.220         51.67	     7.874
  56.240         56.67	     8.246
  56.260         56.67	     8.246
  56.280         50.83	     7.810
  56.300         54.17	     8.062
  56.320         45.00	     7.348
  56.340         43.33	     7.211
  56.360         53.33	     8.000
  56.380         57.50	     8.307
  56.400         61.67	     8.602
  56.420         50.00	     7.746
  56.440         48.33	     7.616
  56.460         45.83	     7.416
  56.480         70.83	     9.220
  56.500         54.17	     8.062
  56.520         55.00	     8.124
  56.540         61.67	     8.602
  56.560         47.50	     7.550
  56.580         55.00	     8.124
  56.600         60.00	     8.485
  56.620         60.00	     8.485
  56.640         57.50	     8.307
  56.660         66.67	     8.944
  56.680         75.83	     9.539
  56.700         74.17	     9.434
  56.720         86.67	    10.198
  56.740         52.50	     7.937
  56.760         68.33	     9.055
  56.780         65.00	     8.832
  56.800         65.83	     8.888
  56.820         70.83	     9.220
  56.840         49.17	     7.681
  56.860         63.33	     8.718
  56.880         50.83	     7.810
  56.900         50.00	     7.746
  56.920         57.50	     8.307
  56.940         49.17	     7.681
  56.960         41.67	     7.071
  56.980         47.50	     7.550
  57.000         54.17	     8.062
  57.020         47.50	     7.550
  57.040         42.50	     7.141
  57.060         57.50	     8.307
  57.080         55.83	     8.185
  57.100         52.50	     7.937
  57.120         43.33	     7.211
  57.140         44.17	     7.280
  57.160         50.00	     7.746
  57.180         39.17	     6.856
  57.200         42.50	     7.141
  57.220         47.50	     7.550
  57.240         44.17	     7.280
  57.260         48.33	     7.616
  57.280         40.00	     6.928
  57.300         60.83	     8.544
  57.320         51.67	     7.874
  57.340         52.50	     7.937
  57.360         47.50	     7.550
  57.380         41.67	     7.071
  57.400         48.33	     7.616
  57.420         48.33	     7.616
  57.440         54.17	     8.062
  57.460         44.17	     7.280
  57.480         47.50	     7.550
  57.500         45.00	     7.348
  57.520         35.00	     6.481
  57.540         51.67	     7.874
  57.560         40.00	     6.928
  57.580         45.83	     7.416
  57.600         55.00	     8.124
  57.620         41.67	     7.071
  57.640         48.33	     7.616
  57.660         50.83	     7.810
  57.680         54.17	     8.062
  57.700         48.33	     7.616
  57.720         50.00	     7.746
  57.740         42.50	     7.141
  57.760         58.33	     8.367
  57.780         44.17	     7.280
  57.800         32.50	     6.245
  57.820         49.17	     7.681
  57.840         43.33	     7.211
  57.860         50.83	     7.810
  57.880         51.67	     7.874
  57.900         67.50	     9.000
  57.920         50.00	     7.746
  57.940         45.83	     7.416
  57.960         67.50	     9.000
  57.980         45.00	     7.348
  58.000         38.33	     6.782
  58.020         41.67	     7.071
  58.040         53.33	     8.000
  58.060         52.50	     7.937
  58.080         67.50	     9.000
  58.100         49.17	     7.681
  58.120         60.83	     8.544
  58.140         65.83	     8.888
  58.160         40.83	     7.000
  58.180         40.00	     6.928
  58.200         54.17	     8.062
  58.220         57.50	     8.307
  58.240         45.00	     7.348
  58.260         46.67	     7.483
  58.280         51.67	     7.874
  58.300         54.17	     8.062
  58.320         68.33	     9.055
  58.340         55.83	     8.185
  58.360         66.67	     8.944
  58.380         69.17	     9.110
  58.400         74.17	     9.434
  58.420         62.50	     8.660
  58.440         76.67	     9.592
  58.460         60.83	     8.544
  58.480         60.83	     8.544
  58.500         65.00	     8.832
  58.520         70.83	     9.220
  58.540         73.33	     9.381
  58.560         65.83	     8.888
  58.580         78.33	     9.695
  58.600         70.83	     9.220
  58.620         80.00	     9.798
  58.640         79.17	     9.747
  58.660         70.83	     9.220
  58.680         74.17	     9.434
  58.700         89.17	    10.344
  58.720         64.17	     8.775
  58.740         75.83	     9.539
  58.760         76.67	     9.592
  58.780         80.83	     9.849
  58.800         83.33	    10.000
  58.820         73.33	     9.381
  58.840         93.33	    10.583
  58.860         80.00	     9.798
  58.880         80.83	     9.849
  58.900         63.33	     8.718
  58.920         80.00	     9.798
  58.940         93.33	    10.583
  58.960         81.67	     9.899
  58.980         83.33	    10.000
  59.000        105.83	    11.269
  59.020         95.00	    10.677
  59.040        100.83	    11.000
  59.060        130.83	    12.530
  59.080        128.33	    12.410
  59.100        135.83	    12.767
  59.120        114.17	    11.705
  59.140        125.00	    12.247
  59.160        109.17	    11.446
  59.180         99.17	    10.909
  59.200         88.33	    10.296
  59.220         96.67	    10.770
  59.240         90.83	    10.440
  59.260        100.83	    11.000
  59.280         82.50	     9.950
  59.300         67.50	     9.000
  59.320         65.00	     8.832
  59.340         65.00	     8.832
  59.360         66.67	     8.944
  59.380         54.17	     8.062
  59.400         78.33	     9.695
  59.420         78.33	     9.695
  59.440         75.00	     9.487
  59.460         70.83	     9.220
  59.480         70.83	     9.220
  59.500         57.50	     8.307
  59.520         54.17	     8.062
  59.540         60.00	     8.485
  59.560         75.00	     9.487
  59.580         61.67	     8.602
  59.600         67.50	     9.000
  59.620         86.67	    10.198
  59.640         62.50	     8.660
  59.660         80.00	     9.798
  59.680         94.17	    10.630
  59.700         96.67	    10.770
  59.720        118.33	    11.916
  59.740        109.17	    11.446
  59.760        134.17	    12.689
  59.780        150.83	    13.454
  59.800        182.50	    14.799
  59.820        208.33	    15.811
  59.840        282.50	    18.412
  59.860        262.50	    17.748
  59.880        247.50	    17.234
  59.900        181.67	    14.765
  59.920        158.33	    13.784
  59.940        145.00	    13.191
  59.960        147.50	    13.304
  59.980        172.50	    14.387
  60.000        170.83	    14.318
  60.020        188.33	    15.033
  60.040        164.17	    14.036
  60.060        129.17	    12.450
  60.080        120.00	    12.000
  60.100        108.33	    11.402
  60.120        115.83	    11.790
  60.140        106.67	    11.314
  60.160         96.67	    10.770
  60.180        111.67	    11.576
  60.200        109.17	    11.446
  60.220         94.17	    10.630
  60.240         97.50	    10.817
  60.260        115.83	    11.790
  60.280        113.33	    11.662
  60.300        104.17	    11.180
  60.320        103.33	    11.136
  60.340         91.67	    10.488
  60.360        104.17	    11.180
  60.380        101.67	    11.045
  60.400         90.83	    10.440
  60.420         89.17	    10.344
  60.440         99.17	    10.909
  60.460        100.83	    11.000
  60.480        100.83	    11.000
  60.500         95.00	    10.677
  60.520        100.83	    11.000
  60.540         95.83	    10.724
  60.560         90.00	    10.392
  60.580         90.83	    10.440
  60.600         91.67	    10.488
  60.620         88.33	    10.296
  60.640         97.50	    10.817
  60.660        125.00	    12.247
  60.680         95.00	    10.677
  60.700        116.67	    11.832
  60.720        105.00	    11.225
  60.740        105.83	    11.269
  60.760        116.67	    11.832
  60.780        109.17	    11.446
  60.800        102.50	    11.091
  60.820        116.67	    11.832
  60.840         85.83	    10.149
  60.860        106.67	    11.314
  60.880        110.83	    11.533
  60.900        100.00	    10.954
  60.920         91.67	    10.488
  60.940         95.00	    10.677
  60.960         92.50	    10.536
  60.980         70.83	     9.220
  61.000         83.33	    10.000
  61.020         60.83	     8.544
  61.040         81.67	     9.899
  61.060         96.67	    10.770
  61.080         80.83	     9.849
  61.100         96.67	    10.770
  61.120         76.67	     9.592
  61.140         79.17	     9.747
  61.160         76.67	     9.592
  61.180         71.67	     9.274
  61.200         74.17	     9.434
  61.220         95.83	    10.724
  61.240         76.67	     9.592
  61.260        101.67	    11.045
  61.280        115.00	    11.747
  61.300        143.33	    13.115
  61.320        145.83	    13.229
  61.340        120.83	    12.042
  61.360        112.50	    11.619
  61.380        119.17	    11.958
  61.400        110.00	    11.489
  61.420        123.33	    12.166
  61.440        122.50	    12.124
  61.460        120.83	    12.042
  61.480        127.50	    12.369
  61.500        102.50	    11.091
  61.520        124.17	    12.207
  61.540        110.00	    11.489
  61.560         93.33	    10.583
  61.580         97.50	    10.817
  61.600         87.50	    10.247
  61.620         88.33	    10.296
  61.640         78.33	     9.695
  61.660         89.17	    10.344
  61.680         79.17	     9.747
  61.700         69.17	     9.110
  61.720         70.83	     9.220
  61.740         56.67	     8.246
  61.760         92.50	    10.536
  61.780         66.67	     8.944
  61.800         77.50	     9.644
  61.820         82.50	     9.950
  61.840         75.83	     9.539
  61.860         86.67	    10.198
  61.880        103.33	    11.136
  61.900         98.33	    10.863
  61.920         98.33	    10.863
  61.940         93.33	    10.583
  61.960         61.67	     8.602
  61.980         71.67	     9.274
  62.000         80.83	     9.849
  62.020         95.83	    10.724
  62.040         70.83	     9.220
  62.060         66.67	     8.944
  62.080         80.83	     9.849
  62.100         66.67	     8.944
  62.120         49.17	     7.681
  62.140         63.33	     8.718
  62.160         63.33	     8.718
  62.180         44.17	     7.280
  62.200         56.67	     8.246
  62.220         56.67	     8.246
  62.240         58.33	     8.367
  62.260         53.33	     8.000
  62.280         53.33	     8.000
  62.300         40.83	     7.000
  62.320         45.83	     7.416
  62.340         55.00	     8.124
  62.360         58.33	     8.367
  62.380         60.00	     8.485
  62.400         67.50	     9.000
  62.420         75.83	     9.539
  62.440         58.33	     8.367
  62.460         60.83	     8.544
  62.480         60.00	     8.485
  62.500         66.67	     8.944
  62.520         70.83	     9.220
  62.540         75.83	     9.539
  62.560         80.83	     9.849
  62.580         77.50	     9.644
  62.600         82.50	     9.950
  62.620         69.17	     9.110
  62.640         76.67	     9.592
  62.660         70.00	     9.165
  62.680         54.17	     8.062
  62.700         70.00	     9.165
  62.720         63.33	     8.718
  62.740         73.33	     9.381
  62.760         75.00	     9.487
  62.780         59.17	     8.426
  62.800         49.17	     7.681
  62.820         53.33	     8.000
  62.840         54.17	     8.062
  62.860         52.50	     7.937
  62.880         56.67	     8.246
  62.900         47.50	     7.550
  62.920         65.00	     8.832
  62.940         58.33	     8.367
  62.960         48.33	     7.616
  62.980         53.33	     8.000
  63.000         55.83	     8.185
  63.020         43.33	     7.211
  63.040         46.67	     7.483
  63.060         41.67	     7.071
  63.080         49.17	     7.681
  63.100         52.50	     7.937
  63.120         50.83	     7.810
  63.140         53.33	     8.000
  63.160         52.50	     7.937
  63.180         45.83	     7.416
  63.200         60.83	     8.544
  63.220         73.33	     9.381
  63.240         65.00	     8.832
  63.260         55.83	     8.185
  63.280         70.00	     9.165
  63.300         56.67	     8.246
  63.320         69.17	     9.110
  63.340         97.50	    10.817
  63.360         74.17	     9.434
  63.380         78.33	     9.695
  63.400         83.33	    10.000
  63.420         59.17	     8.426
  63.440         59.17	     8.426
  63.460         64.17	     8.775
  63.480         53.33	     8.000
  63.500         60.00	     8.485
  63.520         57.50	     8.307
  63.540         65.83	     8.888
  63.560         70.83	     9.220
  63.580         56.67	     8.246
  63.600         53.33	     8.000
  63.620         69.17	     9.110
  63.640         60.83	     8.544
  63.660         60.83	     8.544
  63.680         54.17	     8.062
  63.700         49.17	     7.681
  63.720         64.17	     8.775
  63.740         45.83	     7.416
  63.760         58.33	     8.367
  63.780         66.67	     8.944
  63.800         71.67	     9.274
  63.820         48.33	     7.616
  63.840         61.67	     8.602
  63.860         77.50	     9.644
  63.880         87.50	    10.247
  63.900         95.00	    10.677
  63.920         91.67	    10.488
  63.940         76.67	     9.592
  63.960         56.67	     8.246
  63.980         67.50	     9.000
  64.000         70.00	     9.165
  64.020         55.00	     8.124
  64.040         61.67	     8.602
  64.060         85.00	    10.100
  64.080         70.83	     9.220
  64.100         68.33	     9.055
  64.120         70.00	     9.165
  64.140         74.17	     9.434
  64.160         74.17	     9.434
  64.180         68.33	     9.055
  64.200         70.00	     9.165
  64.220         69.17	     9.110
  64.240         53.33	     8.000
  64.260         65.83	     8.888
  64.280         50.83	     7.810
  64.300         65.83	     8.888
  64.320         59.17	     8.426
  64.340         46.67	     7.483
  64.360         47.50	     7.550
  64.380         55.00	     8.124
  64.400         57.50	     8.307
  64.420         60.00	     8.485
  64.440         55.83	     8.185
  64.460         57.50	     8.307
  64.480         60.83	     8.544
  64.500         49.17	     7.681
  64.520         45.00	     7.348
  64.540         40.83	     7.000
  64.560         52.50	     7.937
  64.580         38.33	     6.782
  64.600         47.50	     7.550
  64.620         48.33	     7.616
  64.640         43.33	     7.211
  64.660         51.67	     7.874
  64.680         58.33	     8.367
  64.700         62.50	     8.660
  64.720         64.17	     8.775
  64.740         55.83	     8.185
  64.760         50.83	     7.810
  64.780         65.00	     8.832
  64.800         51.67	     7.874
  64.820         50.00	     7.746
  64.840         54.17	     8.062
  64.860         49.17	     7.681
  64.880         52.50	     7.937
  64.900         51.67	     7.874
  64.920         57.50	     8.307
  64.940         38.33	     6.782
  64.960         56.67	     8.246
  64.980         55.00	     8.124
  65.000         55.83	     8.185
