
Filename:
	C:\Program Files\Thermo Electron\WinXRD\Datafiles\F_HERMAN\GEO\G18_RT.raw

File Created:
	February 21, 2020 - 05:29 PM

Specimen Id:
	G18_RT

Specimen Name:
	

Specimen Description:
	

Comment:
Scan Type: 2Theta Scan
Start Angle: 3 deg.
Stop Angle: 65 deg.
Num Points: 3101
Step Size: 0.02 deg.
Scan Rate: 1.000000
Scan Mode: Continuous
Wavelength: 1.540562
\Kalpha1: 1.540562	\Kalpha2: 1.544390	\Kbeta: 1.392218

Optics:
		Detector:
			 Type: Fixed Slits
		Tube: 
			 Type: Fixed Slits


Datas:
 Pos [deg]       Rate [CPS]      ESD [-]

Range 1 ---> Iteration 1
   3.000        426.67	    22.627
   3.020        474.17	    23.854
   3.040        434.17	    22.825
   3.060        420.00	    22.450
   3.080        377.50	    21.284
   3.100        459.17	    23.473
   3.120        414.17	    22.293
   3.140        400.83	    21.932
   3.160        415.00	    22.316
   3.180        431.67	    22.760
   3.200        385.00	    21.494
   3.220        401.67	    21.954
   3.240        401.67	    21.954
   3.260        400.00	    21.909
   3.280        387.50	    21.564
   3.300        359.17	    20.761
   3.320        369.17	    21.048
   3.340        361.67	    20.833
   3.360        405.00	    22.045
   3.380        391.67	    21.679
   3.400        374.17	    21.190
   3.420        390.00	    21.633
   3.440        385.00	    21.494
   3.460        381.67	    21.401
   3.480        356.67	    20.688
   3.500        386.67	    21.541
   3.520        357.50	    20.712
   3.540        356.67	    20.688
   3.560        359.17	    20.761
   3.580        337.50	    20.125
   3.600        370.83	    21.095
   3.620        360.83	    20.809
   3.640        359.17	    20.761
   3.660        315.00	    19.442
   3.680        323.33	    19.698
   3.700        351.67	    20.543
   3.720        355.00	    20.640
   3.740        349.17	    20.469
   3.760        347.50	    20.421
   3.780        335.00	    20.050
   3.800        325.83	    19.774
   3.820        306.67	    19.183
   3.840        355.83	    20.664
   3.860        320.00	    19.596
   3.880        330.00	    19.900
   3.900        330.83	    19.925
   3.920        335.83	    20.075
   3.940        320.00	    19.596
   3.960        304.17	    19.105
   3.980        330.00	    19.900
   4.000        324.17	    19.723
   4.020        295.00	    18.815
   4.040        301.67	    19.026
   4.060        293.33	    18.762
   4.080        310.83	    19.313
   4.100        310.83	    19.313
   4.120        294.17	    18.788
   4.140        278.33	    18.276
   4.160        274.17	    18.138
   4.180        314.17	    19.416
   4.200        295.00	    18.815
   4.220        284.17	    18.466
   4.240        291.67	    18.708
   4.260        287.50	    18.574
   4.280        285.00	    18.493
   4.300        257.50	    17.578
   4.320        277.50	    18.248
   4.340        283.33	    18.439
   4.360        258.33	    17.607
   4.380        278.33	    18.276
   4.400        284.17	    18.466
   4.420        294.17	    18.788
   4.440        256.67	    17.550
   4.460        247.50	    17.234
   4.480        285.83	    18.520
   4.500        279.17	    18.303
   4.520        260.83	    17.692
   4.540        254.17	    17.464
   4.560        263.33	    17.776
   4.580        260.00	    17.664
   4.600        253.33	    17.436
   4.620        246.67	    17.205
   4.640        250.00	    17.321
   4.660        242.50	    17.059
   4.680        270.00	    18.000
   4.700        257.50	    17.578
   4.720        232.50	    16.703
   4.740        277.50	    18.248
   4.760        251.67	    17.378
   4.780        257.50	    17.578
   4.800        257.50	    17.578
   4.820        277.50	    18.248
   4.840        247.50	    17.234
   4.860        258.33	    17.607
   4.880        237.50	    16.882
   4.900        227.50	    16.523
   4.920        246.67	    17.205
   4.940        248.33	    17.263
   4.960        248.33	    17.263
   4.980        227.50	    16.523
   5.000        249.17	    17.292
   5.020        236.67	    16.852
   5.040        227.50	    16.523
   5.060        256.67	    17.550
   5.080        226.67	    16.492
   5.100        234.17	    16.763
   5.120        217.50	    16.155
   5.140        237.50	    16.882
   5.160        242.50	    17.059
   5.180        250.83	    17.349
   5.200        220.00	    16.248
   5.220        255.83	    17.521
   5.240        201.67	    15.556
   5.260        244.17	    17.117
   5.280        225.00	    16.432
   5.300        209.17	    15.843
   5.320        235.83	    16.823
   5.340        207.50	    15.780
   5.360        225.00	    16.432
   5.380        215.83	    16.093
   5.400        207.50	    15.780
   5.420        203.33	    15.620
   5.440        217.50	    16.155
   5.460        220.00	    16.248
   5.480        206.67	    15.748
   5.500        215.83	    16.093
   5.520        228.33	    16.553
   5.540        207.50	    15.780
   5.560        193.33	    15.232
   5.580        210.83	    15.906
   5.600        229.17	    16.583
   5.620        210.83	    15.906
   5.640        212.50	    15.969
   5.660        233.33	    16.733
   5.680        243.33	    17.088
   5.700        220.83	    16.279
   5.720        237.50	    16.882
   5.740        241.67	    17.029
   5.760        243.33	    17.088
   5.780        238.33	    16.912
   5.800        240.00	    16.971
   5.820        239.17	    16.941
   5.840        216.67	    16.125
   5.860        218.33	    16.186
   5.880        292.50	    18.735
   5.900        287.50	    18.574
   5.920        311.67	    19.339
   5.940        316.67	    19.494
   5.960        305.83	    19.157
   5.980        305.00	    19.131
   6.000        301.67	    19.026
   6.020        305.00	    19.131
   6.040        316.67	    19.494
   6.060        335.00	    20.050
   6.080        300.00	    18.974
   6.100        336.67	    20.100
   6.120        318.33	    19.545
   6.140        375.00	    21.213
   6.160        340.00	    20.199
   6.180        280.00	    18.330
   6.200        245.83	    17.176
   6.220        225.00	    16.432
   6.240        190.83	    15.133
   6.260        208.33	    15.811
   6.280        220.83	    16.279
   6.300        178.33	    14.629
   6.320        212.50	    15.969
   6.340        215.00	    16.062
   6.360        185.83	    14.933
   6.380        173.33	    14.422
   6.400        190.83	    15.133
   6.420        215.00	    16.062
   6.440        190.00	    15.100
   6.460        214.17	    16.031
   6.480        197.50	    15.395
   6.500        187.50	    15.000
   6.520        206.67	    15.748
   6.540        190.83	    15.133
   6.560        173.33	    14.422
   6.580        201.67	    15.556
   6.600        175.00	    14.491
   6.620        160.00	    13.856
   6.640        178.33	    14.629
   6.660        173.33	    14.422
   6.680        182.50	    14.799
   6.700        171.67	    14.353
   6.720        167.50	    14.177
   6.740        178.33	    14.629
   6.760        169.17	    14.248
   6.780        183.33	    14.832
   6.800        197.50	    15.395
   6.820        176.67	    14.560
   6.840        175.00	    14.491
   6.860        177.50	    14.595
   6.880        174.17	    14.457
   6.900        173.33	    14.422
   6.920        176.67	    14.560
   6.940        168.33	    14.213
   6.960        157.50	    13.748
   6.980        178.33	    14.629
   7.000        169.17	    14.248
   7.020        175.83	    14.526
   7.040        157.50	    13.748
   7.060        164.17	    14.036
   7.080        172.50	    14.387
   7.100        157.50	    13.748
   7.120        171.67	    14.353
   7.140        167.50	    14.177
   7.160        176.67	    14.560
   7.180        156.67	    13.711
   7.200        176.67	    14.560
   7.220        167.50	    14.177
   7.240        182.50	    14.799
   7.260        166.67	    14.142
   7.280        165.00	    14.071
   7.300        156.67	    13.711
   7.320        172.50	    14.387
   7.340        161.67	    13.928
   7.360        139.17	    12.923
   7.380        158.33	    13.784
   7.400        140.83	    13.000
   7.420        149.17	    13.379
   7.440        161.67	    13.928
   7.460        140.00	    12.961
   7.480        169.17	    14.248
   7.500        170.83	    14.318
   7.520        159.17	    13.820
   7.540        154.17	    13.601
   7.560        146.67	    13.266
   7.580        154.17	    13.601
   7.600        166.67	    14.142
   7.620        151.67	    13.491
   7.640        149.17	    13.379
   7.660        148.33	    13.342
   7.680        135.83	    12.767
   7.700        151.67	    13.491
   7.720        171.67	    14.353
   7.740        152.50	    13.528
   7.760        157.50	    13.748
   7.780        150.83	    13.454
   7.800        145.00	    13.191
   7.820        162.50	    13.964
   7.840        145.00	    13.191
   7.860        140.00	    12.961
   7.880        153.33	    13.565
   7.900        137.50	    12.845
   7.920        147.50	    13.304
   7.940        133.33	    12.649
   7.960        145.00	    13.191
   7.980        155.00	    13.638
   8.000        140.83	    13.000
   8.020        163.33	    14.000
   8.040        155.83	    13.675
   8.060        146.67	    13.266
   8.080        175.00	    14.491
   8.100        174.17	    14.457
   8.120        143.33	    13.115
   8.140        170.00	    14.283
   8.160        154.17	    13.601
   8.180        159.17	    13.820
   8.200        150.00	    13.416
   8.220        155.83	    13.675
   8.240        157.50	    13.748
   8.260        140.00	    12.961
   8.280        154.17	    13.601
   8.300        139.17	    12.923
   8.320        166.67	    14.142
   8.340        161.67	    13.928
   8.360        168.33	    14.213
   8.380        180.83	    14.731
   8.400        169.17	    14.248
   8.420        165.83	    14.107
   8.440        177.50	    14.595
   8.460        180.83	    14.731
   8.480        201.67	    15.556
   8.500        175.00	    14.491
   8.520        205.83	    15.716
   8.540        221.67	    16.310
   8.560        254.17	    17.464
   8.580        250.83	    17.349
   8.600        264.17	    17.804
   8.620        281.67	    18.385
   8.640        280.00	    18.330
   8.660        331.67	    19.950
   8.680        405.83	    22.068
   8.700        497.50	    24.434
   8.720        514.17	    24.839
   8.740        571.67	    26.192
   8.760        784.17	    30.676
   8.780       1103.33	    36.387
   8.800       1066.67	    35.777
   8.820        874.17	    32.388
   8.840        520.00	    24.980
   8.860        272.50	    18.083
   8.880        211.67	    15.937
   8.900        190.00	    15.100
   8.920        180.83	    14.731
   8.940        158.33	    13.784
   8.960        159.17	    13.820
   8.980        166.67	    14.142
   9.000        180.83	    14.731
   9.020        145.00	    13.191
   9.040        157.50	    13.748
   9.060        186.67	    14.967
   9.080        158.33	    13.784
   9.100        175.00	    14.491
   9.120        137.50	    12.845
   9.140        135.00	    12.728
   9.160        143.33	    13.115
   9.180        145.00	    13.191
   9.200        118.33	    11.916
   9.220        134.17	    12.689
   9.240        140.83	    13.000
   9.260        122.50	    12.124
   9.280        142.50	    13.077
   9.300        138.33	    12.884
   9.320        150.83	    13.454
   9.340        173.33	    14.422
   9.360        178.33	    14.629
   9.380        151.67	    13.491
   9.400        129.17	    12.450
   9.420        137.50	    12.845
   9.440        113.33	    11.662
   9.460        117.50	    11.874
   9.480        138.33	    12.884
   9.500         98.33	    10.863
   9.520        127.50	    12.369
   9.540        140.83	    13.000
   9.560        109.17	    11.446
   9.580        110.00	    11.489
   9.600        124.17	    12.207
   9.620        141.67	    13.038
   9.640        124.17	    12.207
   9.660        111.67	    11.576
   9.680        115.00	    11.747
   9.700        116.67	    11.832
   9.720        119.17	    11.958
   9.740        122.50	    12.124
   9.760        116.67	    11.832
   9.780        110.83	    11.533
   9.800        120.83	    12.042
   9.820         99.17	    10.909
   9.840        124.17	    12.207
   9.860        110.00	    11.489
   9.880        100.83	    11.000
   9.900        108.33	    11.402
   9.920        105.83	    11.269
   9.940        110.00	    11.489
   9.960        102.50	    11.091
   9.980        105.00	    11.225
  10.000        101.67	    11.045
  10.020         95.00	    10.677
  10.040        116.67	    11.832
  10.060        112.50	    11.619
  10.080        112.50	    11.619
  10.100        105.00	    11.225
  10.120        105.83	    11.269
  10.140         91.67	    10.488
  10.160         95.83	    10.724
  10.180         99.17	    10.909
  10.200        125.00	    12.247
  10.220        115.00	    11.747
  10.240        105.83	    11.269
  10.260        115.83	    11.790
  10.280        125.00	    12.247
  10.300        115.00	    11.747
  10.320        121.67	    12.083
  10.340        107.50	    11.358
  10.360        145.00	    13.191
  10.380        156.67	    13.711
  10.400        165.00	    14.071
  10.420        176.67	    14.560
  10.440        157.50	    13.748
  10.460        127.50	    12.369
  10.480        132.50	    12.610
  10.500        137.50	    12.845
  10.520         99.17	    10.909
  10.540        115.83	    11.790
  10.560         98.33	    10.863
  10.580         78.33	     9.695
  10.600        108.33	    11.402
  10.620        105.83	    11.269
  10.640         99.17	    10.909
  10.660         99.17	    10.909
  10.680        117.50	    11.874
  10.700         94.17	    10.630
  10.720        113.33	    11.662
  10.740        106.67	    11.314
  10.760        124.17	    12.207
  10.780        105.00	    11.225
  10.800        102.50	    11.091
  10.820         98.33	    10.863
  10.840        115.83	    11.790
  10.860         96.67	    10.770
  10.880        105.00	    11.225
  10.900        110.83	    11.533
  10.920        108.33	    11.402
  10.940        104.17	    11.180
  10.960        104.17	    11.180
  10.980         98.33	    10.863
  11.000         88.33	    10.296
  11.020         99.17	    10.909
  11.040        106.67	    11.314
  11.060        100.83	    11.000
  11.080        100.83	    11.000
  11.100         97.50	    10.817
  11.120         83.33	    10.000
  11.140         90.83	    10.440
  11.160         90.00	    10.392
  11.180        101.67	    11.045
  11.200         97.50	    10.817
  11.220         85.83	    10.149
  11.240        101.67	    11.045
  11.260         93.33	    10.583
  11.280        105.83	    11.269
  11.300         92.50	    10.536
  11.320         91.67	    10.488
  11.340        102.50	    11.091
  11.360        100.83	    11.000
  11.380        110.00	    11.489
  11.400        101.67	    11.045
  11.420         98.33	    10.863
  11.440         81.67	     9.899
  11.460        100.83	    11.000
  11.480         86.67	    10.198
  11.500         98.33	    10.863
  11.520         95.00	    10.677
  11.540         94.17	    10.630
  11.560        100.83	    11.000
  11.580         94.17	    10.630
  11.600        100.00	    10.954
  11.620         95.00	    10.677
  11.640        109.17	    11.446
  11.660         83.33	    10.000
  11.680         77.50	     9.644
  11.700         83.33	    10.000
  11.720        112.50	    11.619
  11.740        105.00	    11.225
  11.760         96.67	    10.770
  11.780         80.83	     9.849
  11.800         89.17	    10.344
  11.820         92.50	    10.536
  11.840        100.83	    11.000
  11.860         89.17	    10.344
  11.880        112.50	    11.619
  11.900        100.00	    10.954
  11.920        111.67	    11.576
  11.940        122.50	    12.124
  11.960        113.33	    11.662
  11.980        128.33	    12.410
  12.000        154.17	    13.601
  12.020        211.67	    15.937
  12.040        234.17	    16.763
  12.060        288.33	    18.601
  12.080        361.67	    20.833
  12.100        431.67	    22.760
  12.120        433.33	    22.804
  12.140        340.83	    20.224
  12.160        228.33	    16.553
  12.180        175.00	    14.491
  12.200        166.67	    14.142
  12.220        171.67	    14.353
  12.240        177.50	    14.595
  12.260        192.50	    15.199
  12.280        179.17	    14.663
  12.300        202.50	    15.588
  12.320        178.33	    14.629
  12.340        232.50	    16.703
  12.360        255.00	    17.493
  12.380        330.00	    19.900
  12.400        415.00	    22.316
  12.420        460.83	    23.516
  12.440        345.83	    20.372
  12.460        287.50	    18.574
  12.480        195.00	    15.297
  12.500        117.50	    11.874
  12.520        115.00	    11.747
  12.540        107.50	    11.358
  12.560        121.67	    12.083
  12.580        100.00	    10.954
  12.600         94.17	    10.630
  12.620        102.50	    11.091
  12.640        102.50	    11.091
  12.660        112.50	    11.619
  12.680         80.83	     9.849
  12.700         86.67	    10.198
  12.720         91.67	    10.488
  12.740         88.33	    10.296
  12.760        100.83	    11.000
  12.780         75.00	     9.487
  12.800         85.83	    10.149
  12.820         67.50	     9.000
  12.840         85.83	    10.149
  12.860         84.17	    10.050
  12.880         72.50	     9.327
  12.900         86.67	    10.198
  12.920         85.00	    10.100
  12.940         70.83	     9.220
  12.960         83.33	    10.000
  12.980         78.33	     9.695
  13.000         96.67	    10.770
  13.020         90.83	    10.440
  13.040         75.83	     9.539
  13.060         81.67	     9.899
  13.080        103.33	    11.136
  13.100         98.33	    10.863
  13.120         84.17	    10.050
  13.140         81.67	     9.899
  13.160         80.00	     9.798
  13.180         93.33	    10.583
  13.200         82.50	     9.950
  13.220         74.17	     9.434
  13.240         83.33	    10.000
  13.260         76.67	     9.592
  13.280         82.50	     9.950
  13.300         60.00	     8.485
  13.320         80.00	     9.798
  13.340         84.17	    10.050
  13.360         74.17	     9.434
  13.380         94.17	    10.630
  13.400         74.17	     9.434
  13.420         85.83	    10.149
  13.440         80.83	     9.849
  13.460         78.33	     9.695
  13.480         75.83	     9.539
  13.500        100.00	    10.954
  13.520         76.67	     9.592
  13.540         96.67	    10.770
  13.560        105.00	    11.225
  13.580        115.83	    11.790
  13.600         75.83	     9.539
  13.620         90.83	    10.440
  13.640         85.00	    10.100
  13.660         78.33	     9.695
  13.680         82.50	     9.950
  13.700         92.50	    10.536
  13.720         99.17	    10.909
  13.740         90.83	    10.440
  13.760        110.00	    11.489
  13.780        127.50	    12.369
  13.800        198.33	    15.427
  13.820        325.83	    19.774
  13.840        355.00	    20.640
  13.860        230.83	    16.643
  13.880        175.83	    14.526
  13.900        108.33	    11.402
  13.920         85.00	    10.100
  13.940         56.67	     8.246
  13.960         66.67	     8.944
  13.980         75.83	     9.539
  14.000         87.50	    10.247
  14.020         73.33	     9.381
  14.040         76.67	     9.592
  14.060         81.67	     9.899
  14.080         75.00	     9.487
  14.100         74.17	     9.434
  14.120         67.50	     9.000
  14.140         76.67	     9.592
  14.160         58.33	     8.367
  14.180         82.50	     9.950
  14.200         59.17	     8.426
  14.220         63.33	     8.718
  14.240         69.17	     9.110
  14.260         69.17	     9.110
  14.280         66.67	     8.944
  14.300         85.00	    10.100
  14.320         66.67	     8.944
  14.340         75.83	     9.539
  14.360         68.33	     9.055
  14.380         70.83	     9.220
  14.400         66.67	     8.944
  14.420         81.67	     9.899
  14.440         77.50	     9.644
  14.460         62.50	     8.660
  14.480         69.17	     9.110
  14.500         80.00	     9.798
  14.520         65.00	     8.832
  14.540         65.83	     8.888
  14.560         57.50	     8.307
  14.580         77.50	     9.644
  14.600         61.67	     8.602
  14.620         69.17	     9.110
  14.640         58.33	     8.367
  14.660         68.33	     9.055
  14.680         55.00	     8.124
  14.700         80.83	     9.849
  14.720         73.33	     9.381
  14.740         63.33	     8.718
  14.760         78.33	     9.695
  14.780         58.33	     8.367
  14.800         71.67	     9.274
  14.820         66.67	     8.944
  14.840         73.33	     9.381
  14.860         80.83	     9.849
  14.880         82.50	     9.950
  14.900         89.17	    10.344
  14.920         68.33	     9.055
  14.940         60.00	     8.485
  14.960         67.50	     9.000
  14.980         70.00	     9.165
  15.000         80.00	     9.798
  15.020         66.67	     8.944
  15.040         81.67	     9.899
  15.060         72.50	     9.327
  15.080         54.17	     8.062
  15.100         82.50	     9.950
  15.120         69.17	     9.110
  15.140         60.00	     8.485
  15.160         68.33	     9.055
  15.180         53.33	     8.000
  15.200         65.00	     8.832
  15.220         71.67	     9.274
  15.240         48.33	     7.616
  15.260         72.50	     9.327
  15.280         61.67	     8.602
  15.300         65.83	     8.888
  15.320         71.67	     9.274
  15.340         71.67	     9.274
  15.360         75.00	     9.487
  15.380         70.83	     9.220
  15.400         71.67	     9.274
  15.420         61.67	     8.602
  15.440         55.00	     8.124
  15.460         54.17	     8.062
  15.480         65.83	     8.888
  15.500         73.33	     9.381
  15.520         69.17	     9.110
  15.540         74.17	     9.434
  15.560         70.00	     9.165
  15.580         65.00	     8.832
  15.600         63.33	     8.718
  15.620         67.50	     9.000
  15.640         75.00	     9.487
  15.660         63.33	     8.718
  15.680         64.17	     8.775
  15.700         59.17	     8.426
  15.720         68.33	     9.055
  15.740         67.50	     9.000
  15.760         79.17	     9.747
  15.780         62.50	     8.660
  15.800         61.67	     8.602
  15.820         71.67	     9.274
  15.840         70.83	     9.220
  15.860         70.83	     9.220
  15.880         73.33	     9.381
  15.900         64.17	     8.775
  15.920         65.83	     8.888
  15.940         63.33	     8.718
  15.960         61.67	     8.602
  15.980         77.50	     9.644
  16.000         47.50	     7.550
  16.020         66.67	     8.944
  16.040         59.17	     8.426
  16.060         74.17	     9.434
  16.080         54.17	     8.062
  16.100         55.00	     8.124
  16.120         71.67	     9.274
  16.140         39.17	     6.856
  16.160         70.83	     9.220
  16.180         66.67	     8.944
  16.200         64.17	     8.775
  16.220         61.67	     8.602
  16.240         60.83	     8.544
  16.260         63.33	     8.718
  16.280         66.67	     8.944
  16.300         48.33	     7.616
  16.320         66.67	     8.944
  16.340         52.50	     7.937
  16.360         58.33	     8.367
  16.380         69.17	     9.110
  16.400         65.83	     8.888
  16.420         56.67	     8.246
  16.440         67.50	     9.000
  16.460         55.00	     8.124
  16.480         58.33	     8.367
  16.500         56.67	     8.246
  16.520         74.17	     9.434
  16.540         58.33	     8.367
  16.560         70.00	     9.165
  16.580         75.83	     9.539
  16.600         56.67	     8.246
  16.620         49.17	     7.681
  16.640         63.33	     8.718
  16.660         55.00	     8.124
  16.680         57.50	     8.307
  16.700         50.00	     7.746
  16.720         70.00	     9.165
  16.740         65.00	     8.832
  16.760         61.67	     8.602
  16.780         58.33	     8.367
  16.800         57.50	     8.307
  16.820         56.67	     8.246
  16.840         55.83	     8.185
  16.860         55.00	     8.124
  16.880         65.83	     8.888
  16.900         55.00	     8.124
  16.920         55.00	     8.124
  16.940         63.33	     8.718
  16.960         60.83	     8.544
  16.980         65.00	     8.832
  17.000         63.33	     8.718
  17.020         59.17	     8.426
  17.040         64.17	     8.775
  17.060         55.00	     8.124
  17.080         68.33	     9.055
  17.100         72.50	     9.327
  17.120         71.67	     9.274
  17.140         69.17	     9.110
  17.160         64.17	     8.775
  17.180         60.83	     8.544
  17.200         50.83	     7.810
  17.220         52.50	     7.937
  17.240         56.67	     8.246
  17.260         52.50	     7.937
  17.280         64.17	     8.775
  17.300         70.00	     9.165
  17.320         58.33	     8.367
  17.340         61.67	     8.602
  17.360         64.17	     8.775
  17.380         50.00	     7.746
  17.400         68.33	     9.055
  17.420         60.00	     8.485
  17.440         63.33	     8.718
  17.460         73.33	     9.381
  17.480         63.33	     8.718
  17.500         65.00	     8.832
  17.520         78.33	     9.695
  17.540         79.17	     9.747
  17.560         82.50	     9.950
  17.580         70.83	     9.220
  17.600         83.33	    10.000
  17.620        100.00	    10.954
  17.640        103.33	    11.136
  17.660        145.00	    13.191
  17.680        221.67	    16.310
  17.700        272.50	    18.083
  17.720        358.33	    20.736
  17.740        370.83	    21.095
  17.760        310.00	    19.287
  17.780        254.17	    17.464
  17.800        188.33	    15.033
  17.820        127.50	    12.369
  17.840        104.17	    11.180
  17.860        104.17	    11.180
  17.880         65.83	     8.888
  17.900         75.83	     9.539
  17.920         90.00	    10.392
  17.940         80.00	     9.798
  17.960         60.00	     8.485
  17.980         78.33	     9.695
  18.000         66.67	     8.944
  18.020         58.33	     8.367
  18.040         73.33	     9.381
  18.060         67.50	     9.000
  18.080         69.17	     9.110
  18.100         69.17	     9.110
  18.120         60.00	     8.485
  18.140         59.17	     8.426
  18.160         71.67	     9.274
  18.180         65.00	     8.832
  18.200         70.00	     9.165
  18.220         64.17	     8.775
  18.240         60.83	     8.544
  18.260         54.17	     8.062
  18.280         73.33	     9.381
  18.300         65.83	     8.888
  18.320         71.67	     9.274
  18.340         70.83	     9.220
  18.360         70.00	     9.165
  18.380         86.67	    10.198
  18.400         76.67	     9.592
  18.420         92.50	    10.536
  18.440         66.67	     8.944
  18.460         88.33	    10.296
  18.480         95.83	    10.724
  18.500         91.67	    10.488
  18.520         95.00	    10.677
  18.540        100.83	    11.000
  18.560         80.83	     9.849
  18.580         82.50	     9.950
  18.600         95.00	    10.677
  18.620        105.83	    11.269
  18.640        110.83	    11.533
  18.660        135.00	    12.728
  18.680        155.00	    13.638
  18.700        173.33	    14.422
  18.720        178.33	    14.629
  18.740        165.00	    14.071
  18.760        125.00	    12.247
  18.780        113.33	    11.662
  18.800         82.50	     9.950
  18.820         82.50	     9.950
  18.840         73.33	     9.381
  18.860         65.00	     8.832
  18.880         65.83	     8.888
  18.900         60.83	     8.544
  18.920         58.33	     8.367
  18.940         62.50	     8.660
  18.960         68.33	     9.055
  18.980         50.83	     7.810
  19.000         60.00	     8.485
  19.020         58.33	     8.367
  19.040         64.17	     8.775
  19.060         59.17	     8.426
  19.080         62.50	     8.660
  19.100         83.33	    10.000
  19.120         65.83	     8.888
  19.140         69.17	     9.110
  19.160         71.67	     9.274
  19.180         61.67	     8.602
  19.200         59.17	     8.426
  19.220         75.83	     9.539
  19.240         79.17	     9.747
  19.260         57.50	     8.307
  19.280         71.67	     9.274
  19.300         56.67	     8.246
  19.320         73.33	     9.381
  19.340         62.50	     8.660
  19.360         60.83	     8.544
  19.380         62.50	     8.660
  19.400         60.00	     8.485
  19.420         69.17	     9.110
  19.440         65.83	     8.888
  19.460         74.17	     9.434
  19.480         69.17	     9.110
  19.500         85.83	    10.149
  19.520         94.17	    10.630
  19.540         60.83	     8.544
  19.560         87.50	    10.247
  19.580         80.83	     9.849
  19.600         70.83	     9.220
  19.620         82.50	     9.950
  19.640         67.50	     9.000
  19.660         71.67	     9.274
  19.680         83.33	    10.000
  19.700        101.67	    11.045
  19.720         95.83	    10.724
  19.740         91.67	    10.488
  19.760        102.50	    11.091
  19.780         85.83	    10.149
  19.800         92.50	    10.536
  19.820         76.67	     9.592
  19.840         79.17	     9.747
  19.860         68.33	     9.055
  19.880         70.83	     9.220
  19.900         84.17	    10.050
  19.920         73.33	     9.381
  19.940         65.83	     8.888
  19.960         59.17	     8.426
  19.980         55.83	     8.185
  20.000         63.33	     8.718
  20.020         62.50	     8.660
  20.040         66.67	     8.944
  20.060         65.00	     8.832
  20.080         55.83	     8.185
  20.100         58.33	     8.367
  20.120         56.67	     8.246
  20.140         60.00	     8.485
  20.160         66.67	     8.944
  20.180         55.83	     8.185
  20.200         65.83	     8.888
  20.220         57.50	     8.307
  20.240         59.17	     8.426
  20.260         60.83	     8.544
  20.280         66.67	     8.944
  20.300         49.17	     7.681
  20.320         60.00	     8.485
  20.340         61.67	     8.602
  20.360         65.83	     8.888
  20.380         69.17	     9.110
  20.400         60.83	     8.544
  20.420         66.67	     8.944
  20.440         73.33	     9.381
  20.460         60.83	     8.544
  20.480         60.83	     8.544
  20.500         61.67	     8.602
  20.520         56.67	     8.246
  20.540         64.17	     8.775
  20.560         76.67	     9.592
  20.580         72.50	     9.327
  20.600         71.67	     9.274
  20.620         83.33	    10.000
  20.640         78.33	     9.695
  20.660         74.17	     9.434
  20.680         90.83	    10.440
  20.700        120.00	    12.000
  20.720        181.67	    14.765
  20.740        340.83	    20.224
  20.760        419.17	    22.428
  20.780        390.00	    21.633
  20.800        286.67	    18.547
  20.820        265.00	    17.833
  20.840        205.00	    15.684
  20.860        135.00	    12.728
  20.880        107.50	    11.358
  20.900         90.83	    10.440
  20.920         99.17	    10.909
  20.940         82.50	     9.950
  20.960         75.00	     9.487
  20.980         78.33	     9.695
  21.000         70.00	     9.165
  21.020         65.00	     8.832
  21.040         67.50	     9.000
  21.060         70.83	     9.220
  21.080         73.33	     9.381
  21.100         58.33	     8.367
  21.120         59.17	     8.426
  21.140         53.33	     8.000
  21.160         52.50	     7.937
  21.180         66.67	     8.944
  21.200         56.67	     8.246
  21.220         63.33	     8.718
  21.240         60.83	     8.544
  21.260         47.50	     7.550
  21.280         50.00	     7.746
  21.300         46.67	     7.483
  21.320         55.83	     8.185
  21.340         56.67	     8.246
  21.360         56.67	     8.246
  21.380         53.33	     8.000
  21.400         60.83	     8.544
  21.420         60.83	     8.544
  21.440         58.33	     8.367
  21.460         53.33	     8.000
  21.480         62.50	     8.660
  21.500         54.17	     8.062
  21.520         60.00	     8.485
  21.540         67.50	     9.000
  21.560         53.33	     8.000
  21.580         70.00	     9.165
  21.600         55.00	     8.124
  21.620         48.33	     7.616
  21.640         57.50	     8.307
  21.660         60.83	     8.544
  21.680         57.50	     8.307
  21.700         52.50	     7.937
  21.720         57.50	     8.307
  21.740         47.50	     7.550
  21.760         55.00	     8.124
  21.780         52.50	     7.937
  21.800         66.67	     8.944
  21.820         67.50	     9.000
  21.840         84.17	    10.050
  21.860         77.50	     9.644
  21.880        106.67	    11.314
  21.900        110.83	    11.533
  21.920        135.00	    12.728
  21.940        216.67	    16.125
  21.960        238.33	    16.912
  21.980        198.33	    15.427
  22.000        148.33	    13.342
  22.020        135.00	    12.728
  22.040        106.67	    11.314
  22.060         90.00	    10.392
  22.080         93.33	    10.583
  22.100         50.00	     7.746
  22.120         76.67	     9.592
  22.140         57.50	     8.307
  22.160         50.00	     7.746
  22.180         70.00	     9.165
  22.200         63.33	     8.718
  22.220         65.00	     8.832
  22.240         70.83	     9.220
  22.260         66.67	     8.944
  22.280         74.17	     9.434
  22.300         63.33	     8.718
  22.320         54.17	     8.062
  22.340         63.33	     8.718
  22.360         73.33	     9.381
  22.380         64.17	     8.775
  22.400         72.50	     9.327
  22.420         72.50	     9.327
  22.440         89.17	    10.344
  22.460         65.83	     8.888
  22.480         50.00	     7.746
  22.500         65.83	     8.888
  22.520         63.33	     8.718
  22.540         89.17	    10.344
  22.560         84.17	    10.050
  22.580         67.50	     9.000
  22.600         60.00	     8.485
  22.620         77.50	     9.644
  22.640         58.33	     8.367
  22.660         46.67	     7.483
  22.680         67.50	     9.000
  22.700         54.17	     8.062
  22.720         76.67	     9.592
  22.740         84.17	    10.050
  22.760         79.17	     9.747
  22.780        105.83	    11.269
  22.800        100.83	    11.000
  22.820        102.50	    11.091
  22.840         94.17	    10.630
  22.860         87.50	    10.247
  22.880         84.17	    10.050
  22.900         73.33	     9.381
  22.920        108.33	    11.402
  22.940         77.50	     9.644
  22.960         84.17	    10.050
  22.980         64.17	     8.775
  23.000         80.83	     9.849
  23.020         77.50	     9.644
  23.040         65.00	     8.832
  23.060         69.17	     9.110
  23.080         58.33	     8.367
  23.100         56.67	     8.246
  23.120         55.00	     8.124
  23.140         45.83	     7.416
  23.160         57.50	     8.307
  23.180         63.33	     8.718
  23.200         52.50	     7.937
  23.220         60.00	     8.485
  23.240         45.83	     7.416
  23.260         65.83	     8.888
  23.280         70.00	     9.165
  23.300         53.33	     8.000
  23.320         59.17	     8.426
  23.340         60.83	     8.544
  23.360         90.00	    10.392
  23.380         68.33	     9.055
  23.400        101.67	    11.045
  23.420        108.33	    11.402
  23.440        120.83	    12.042
  23.460        125.83	    12.288
  23.480        126.67	    12.329
  23.500        139.17	    12.923
  23.520        121.67	    12.083
  23.540        117.50	    11.874
  23.560        106.67	    11.314
  23.580         99.17	    10.909
  23.600         96.67	    10.770
  23.620         70.83	     9.220
  23.640         78.33	     9.695
  23.660         97.50	    10.817
  23.680         90.83	    10.440
  23.700        100.83	    11.000
  23.720         96.67	    10.770
  23.740         90.83	    10.440
  23.760         78.33	     9.695
  23.780         75.83	     9.539
  23.800         85.00	    10.100
  23.820         89.17	    10.344
  23.840         71.67	     9.274
  23.860         85.00	    10.100
  23.880         82.50	     9.950
  23.900         87.50	    10.247
  23.920         82.50	     9.950
  23.940         87.50	    10.247
  23.960         81.67	     9.899
  23.980         67.50	     9.000
  24.000         86.67	    10.198
  24.020         85.83	    10.149
  24.040         85.00	    10.100
  24.060         80.83	     9.849
  24.080         88.33	    10.296
  24.100         82.50	     9.950
  24.120         97.50	    10.817
  24.140        101.67	    11.045
  24.160        129.17	    12.450
  24.180        130.83	    12.530
  24.200        113.33	    11.662
  24.220        115.00	    11.747
  24.240        102.50	    11.091
  24.260         93.33	    10.583
  24.280         92.50	    10.536
  24.300         95.00	    10.677
  24.320         89.17	    10.344
  24.340         99.17	    10.909
  24.360         95.83	    10.724
  24.380        102.50	    11.091
  24.400        113.33	    11.662
  24.420        124.17	    12.207
  24.440        157.50	    13.748
  24.460        214.17	    16.031
  24.480        217.50	    16.155
  24.500        249.17	    17.292
  24.520        270.83	    18.028
  24.540        250.83	    17.349
  24.560        229.17	    16.583
  24.580        200.83	    15.524
  24.600        185.00	    14.900
  24.620        205.83	    15.716
  24.640        172.50	    14.387
  24.660        139.17	    12.923
  24.680        110.83	    11.533
  24.700        116.67	    11.832
  24.720         98.33	    10.863
  24.740         98.33	    10.863
  24.760        112.50	    11.619
  24.780         94.17	    10.630
  24.800         88.33	    10.296
  24.820        108.33	    11.402
  24.840        108.33	    11.402
  24.860        104.17	    11.180
  24.880         88.33	    10.296
  24.900        100.83	    11.000
  24.920        100.00	    10.954
  24.940        110.00	    11.489
  24.960        143.33	    13.115
  24.980        159.17	    13.820
  25.000        179.17	    14.663
  25.020        199.17	    15.460
  25.040        241.67	    17.029
  25.060        279.17	    18.303
  25.080        305.83	    19.157
  25.100        264.17	    17.804
  25.120        201.67	    15.556
  25.140        204.17	    15.652
  25.160        194.17	    15.264
  25.180        226.67	    16.492
  25.200        197.50	    15.395
  25.220        122.50	    12.124
  25.240        125.83	    12.288
  25.260         92.50	    10.536
  25.280        115.00	    11.747
  25.300         96.67	    10.770
  25.320        109.17	    11.446
  25.340        124.17	    12.207
  25.360        132.50	    12.610
  25.380        128.33	    12.410
  25.400        147.50	    13.304
  25.420        132.50	    12.610
  25.440        155.83	    13.675
  25.460        164.17	    14.036
  25.480        149.17	    13.379
  25.500        135.83	    12.767
  25.520        140.00	    12.961
  25.540        175.83	    14.526
  25.560        202.50	    15.588
  25.580        190.83	    15.133
  25.600        130.00	    12.490
  25.620        128.33	    12.410
  25.640        139.17	    12.923
  25.660         95.83	    10.724
  25.680         88.33	    10.296
  25.700         82.50	     9.950
  25.720         70.00	     9.165
  25.740         89.17	    10.344
  25.760         92.50	    10.536
  25.780         73.33	     9.381
  25.800         73.33	     9.381
  25.820         70.83	     9.220
  25.840         71.67	     9.274
  25.860         66.67	     8.944
  25.880         70.00	     9.165
  25.900         97.50	    10.817
  25.920         83.33	    10.000
  25.940         67.50	     9.000
  25.960         69.17	     9.110
  25.980         73.33	     9.381
  26.000         73.33	     9.381
  26.020        107.50	    11.358
  26.040         82.50	     9.950
  26.060         84.17	    10.050
  26.080         85.00	    10.100
  26.100        109.17	    11.446
  26.120        110.83	    11.533
  26.140        103.33	    11.136
  26.160        108.33	    11.402
  26.180        125.83	    12.288
  26.200        119.17	    11.958
  26.220        104.17	    11.180
  26.240        149.17	    13.379
  26.260        213.33	    16.000
  26.280        493.33	    24.331
  26.300        806.67	    31.113
  26.320        791.67	    30.822
  26.340        508.33	    24.698
  26.360        522.50	    25.040
  26.380        549.17	    25.671
  26.400        407.50	    22.113
  26.420        296.67	    18.868
  26.440        293.33	    18.762
  26.460        294.17	    18.788
  26.480        464.17	    23.601
  26.500        743.33	    29.866
  26.520       1345.83	    40.187
  26.540       2033.33	    49.396
  26.560       1987.50	    48.836
  26.580       1483.33	    42.190
  26.600       1246.67	    38.678
  26.620       1207.50	    38.066
  26.640        861.67	    32.156
  26.660        566.67	    26.077
  26.680        436.67	    22.891
  26.700        565.00	    26.038
  26.720        739.17	    29.783
  26.740        903.33	    32.924
  26.760        950.00	    33.764
  26.780        876.67	    32.435
  26.800        850.83	    31.953
  26.820        754.17	    30.083
  26.840        607.50	    27.000
  26.860        463.33	    23.580
  26.880        392.50	    21.703
  26.900        328.33	    19.849
  26.920        265.83	    17.861
  26.940        172.50	    14.387
  26.960        188.33	    15.033
  26.980        160.00	    13.856
  27.000        126.67	    12.329
  27.020        118.33	    11.916
  27.040        110.00	    11.489
  27.060         90.00	    10.392
  27.080         95.83	    10.724
  27.100         96.67	    10.770
  27.120        110.00	    11.489
  27.140        104.17	    11.180
  27.160        115.00	    11.747
  27.180        125.83	    12.288
  27.200        112.50	    11.619
  27.220        105.83	    11.269
  27.240         97.50	    10.817
  27.260        106.67	    11.314
  27.280        101.67	    11.045
  27.300        134.17	    12.689
  27.320        123.33	    12.166
  27.340        135.83	    12.767
  27.360        135.00	    12.728
  27.380        170.83	    14.318
  27.400        191.67	    15.166
  27.420        230.83	    16.643
  27.440        254.17	    17.464
  27.460        176.67	    14.560
  27.480        175.83	    14.526
  27.500        160.00	    13.856
  27.520        149.17	    13.379
  27.540        130.00	    12.490
  27.560        140.83	    13.000
  27.580        125.83	    12.288
  27.600        161.67	    13.928
  27.620        201.67	    15.556
  27.640        226.67	    16.492
  27.660        245.00	    17.146
  27.680        235.83	    16.823
  27.700        270.83	    18.028
  27.720        294.17	    18.788
  27.740        315.00	    19.442
  27.760        410.00	    22.181
  27.780        536.67	    25.377
  27.800        637.50	    27.659
  27.820        684.17	    28.653
  27.840        745.00	    29.900
  27.860        725.83	    29.513
  27.880       1046.67	    35.440
  27.900       3316.67	    63.087
  27.920      12249.17	   121.239
  27.940      15148.33	   134.826
  27.960       7755.83	    96.473
  27.980       4805.83	    75.941
  28.000       8055.00	    98.316
  28.020       6349.17	    87.287
  28.040       1973.33	    48.662
  28.060        625.00	    27.386
  28.080        405.00	    22.045
  28.100        318.33	    19.545
  28.120        254.17	    17.464
  28.140        199.17	    15.460
  28.160        205.83	    15.716
  28.180        184.17	    14.866
  28.200        141.67	    13.038
  28.220        154.17	    13.601
  28.240        151.67	    13.491
  28.260        110.83	    11.533
  28.280        116.67	    11.832
  28.300        125.00	    12.247
  28.320        133.33	    12.649
  28.340        115.00	    11.747
  28.360        127.50	    12.369
  28.380        120.83	    12.042
  28.400        124.17	    12.207
  28.420        140.00	    12.961
  28.440        228.33	    16.553
  28.460        311.67	    19.339
  28.480        336.67	    20.100
  28.500        317.50	    19.519
  28.520        325.83	    19.774
  28.540        355.00	    20.640
  28.560        365.83	    20.952
  28.580        341.67	    20.248
  28.600        275.00	    18.166
  28.620        225.00	    16.432
  28.640        206.67	    15.748
  28.660        185.83	    14.933
  28.680        156.67	    13.711
  28.700        120.83	    12.042
  28.720        117.50	    11.874
  28.740         94.17	    10.630
  28.760        100.00	    10.954
  28.780         78.33	     9.695
  28.800         73.33	     9.381
  28.820         97.50	    10.817
  28.840         88.33	    10.296
  28.860         80.00	     9.798
  28.880         77.50	     9.644
  28.900         80.00	     9.798
  28.920         71.67	     9.274
  28.940         77.50	     9.644
  28.960         67.50	     9.000
  28.980         67.50	     9.000
  29.000         78.33	     9.695
  29.020         76.67	     9.592
  29.040         71.67	     9.274
  29.060         80.00	     9.798
  29.080         68.33	     9.055
  29.100         65.83	     8.888
  29.120         70.83	     9.220
  29.140         71.67	     9.274
  29.160         73.33	     9.381
  29.180         69.17	     9.110
  29.200         70.83	     9.220
  29.220         63.33	     8.718
  29.240         74.17	     9.434
  29.260         70.83	     9.220
  29.280         70.00	     9.165
  29.300         66.67	     8.944
  29.320         60.00	     8.485
  29.340         60.00	     8.485
  29.360         70.83	     9.220
  29.380         73.33	     9.381
  29.400         65.00	     8.832
  29.420         61.67	     8.602
  29.440         70.83	     9.220
  29.460         80.00	     9.798
  29.480         70.83	     9.220
  29.500         80.83	     9.849
  29.520         81.67	     9.899
  29.540         76.67	     9.592
  29.560         69.17	     9.110
  29.580         65.00	     8.832
  29.600         87.50	    10.247
  29.620         89.17	    10.344
  29.640         74.17	     9.434
  29.660        100.00	    10.954
  29.680         82.50	     9.950
  29.700        111.67	    11.576
  29.720        123.33	    12.166
  29.740        129.17	    12.450
  29.760        150.00	    13.416
  29.780        133.33	    12.649
  29.800        134.17	    12.689
  29.820        129.17	    12.450
  29.840        120.00	    12.000
  29.860        135.83	    12.767
  29.880         96.67	    10.770
  29.900         86.67	    10.198
  29.920         98.33	    10.863
  29.940         98.33	    10.863
  29.960         82.50	     9.950
  29.980         87.50	    10.247
  30.000        108.33	    11.402
  30.020        101.67	    11.045
  30.040        101.67	    11.045
  30.060         80.83	     9.849
  30.080        153.33	    13.565
  30.100        270.83	    18.028
  30.120        332.50	    19.975
  30.140        195.00	    15.297
  30.160        160.83	    13.892
  30.180        196.67	    15.362
  30.200        196.67	    15.362
  30.220        139.17	    12.923
  30.240        102.50	    11.091
  30.260        101.67	    11.045
  30.280        109.17	    11.446
  30.300         90.00	    10.392
  30.320        111.67	    11.576
  30.340         96.67	    10.770
  30.360         97.50	    10.817
  30.380        108.33	    11.402
  30.400         95.83	    10.724
  30.420         90.00	    10.392
  30.440        100.83	    11.000
  30.460         89.17	    10.344
  30.480         90.00	    10.392
  30.500         81.67	     9.899
  30.520         92.50	    10.536
  30.540         64.17	     8.775
  30.560         61.67	     8.602
  30.580         64.17	     8.775
  30.600         67.50	     9.000
  30.620         64.17	     8.775
  30.640         85.83	    10.149
  30.660         80.00	     9.798
  30.680         61.67	     8.602
  30.700         73.33	     9.381
  30.720         77.50	     9.644
  30.740         80.83	     9.849
  30.760         96.67	    10.770
  30.780         81.67	     9.899
  30.800         85.00	    10.100
  30.820         75.83	     9.539
  30.840         84.17	    10.050
  30.860         70.00	     9.165
  30.880         62.50	     8.660
  30.900         64.17	     8.775
  30.920         77.50	     9.644
  30.940         74.17	     9.434
  30.960         80.00	     9.798
  30.980         66.67	     8.944
  31.000         80.83	     9.849
  31.020         67.50	     9.000
  31.040         75.83	     9.539
  31.060         70.83	     9.220
  31.080         80.00	     9.798
  31.100         92.50	    10.536
  31.120        113.33	    11.662
  31.140        125.83	    12.288
  31.160        110.83	    11.533
  31.180        117.50	    11.874
  31.200        106.67	    11.314
  31.220        104.17	    11.180
  31.240         90.00	    10.392
  31.260         89.17	    10.344
  31.280         79.17	     9.747
  31.300         76.67	     9.592
  31.320         90.83	    10.440
  31.340         66.67	     8.944
  31.360         61.67	     8.602
  31.380         60.00	     8.485
  31.400         67.50	     9.000
  31.420         73.33	     9.381
  31.440         80.00	     9.798
  31.460         80.00	     9.798
  31.480         85.00	    10.100
  31.500         92.50	    10.536
  31.520         94.17	    10.630
  31.540         78.33	     9.695
  31.560         74.17	     9.434
  31.580         73.33	     9.381
  31.600         76.67	     9.592
  31.620         67.50	     9.000
  31.640         80.83	     9.849
  31.660         44.17	     7.280
  31.680         60.00	     8.485
  31.700         62.50	     8.660
  31.720         57.50	     8.307
  31.740         50.83	     7.810
  31.760         40.83	     7.000
  31.780         60.83	     8.544
  31.800         62.50	     8.660
  31.820         59.17	     8.426
  31.840         60.83	     8.544
  31.860         50.83	     7.810
  31.880         55.83	     8.185
  31.900         66.67	     8.944
  31.920         69.17	     9.110
  31.940         70.83	     9.220
  31.960         84.17	    10.050
  31.980         74.17	     9.434
  32.000         91.67	    10.488
  32.020         82.50	     9.950
  32.040         81.67	     9.899
  32.060         78.33	     9.695
  32.080         76.67	     9.592
  32.100         80.83	     9.849
  32.120         62.50	     8.660
  32.140         67.50	     9.000
  32.160         57.50	     8.307
  32.180         49.17	     7.681
  32.200         51.67	     7.874
  32.220         49.17	     7.681
  32.240         52.50	     7.937
  32.260         54.17	     8.062
  32.280         47.50	     7.550
  32.300         51.67	     7.874
  32.320         35.00	     6.481
  32.340         40.83	     7.000
  32.360         35.00	     6.481
  32.380         44.17	     7.280
  32.400         40.83	     7.000
  32.420         35.00	     6.481
  32.440         41.67	     7.071
  32.460         36.67	     6.633
  32.480         38.33	     6.782
  32.500         35.00	     6.481
  32.520         40.00	     6.928
  32.540         37.50	     6.708
  32.560         44.17	     7.280
  32.580         38.33	     6.782
  32.600         46.67	     7.483
  32.620         43.33	     7.211
  32.640         54.17	     8.062
  32.660         50.83	     7.810
  32.680         51.67	     7.874
  32.700         51.67	     7.874
  32.720         43.33	     7.211
  32.740         50.83	     7.810
  32.760         49.17	     7.681
  32.780         45.83	     7.416
  32.800         40.00	     6.928
  32.820         46.67	     7.483
  32.840         52.50	     7.937
  32.860         55.00	     8.124
  32.880         45.00	     7.348
  32.900         66.67	     8.944
  32.920         68.33	     9.055
  32.940        115.00	    11.747
  32.960        113.33	    11.662
  32.980         88.33	    10.296
  33.000         71.67	     9.274
  33.020         85.00	    10.100
  33.040         80.83	     9.849
  33.060         76.67	     9.592
  33.080         75.00	     9.487
  33.100         51.67	     7.874
  33.120         41.67	     7.071
  33.140         46.67	     7.483
  33.160         46.67	     7.483
  33.180         50.83	     7.810
  33.200         47.50	     7.550
  33.220         60.00	     8.485
  33.240         48.33	     7.616
  33.260         54.17	     8.062
  33.280         48.33	     7.616
  33.300         45.00	     7.348
  33.320         49.17	     7.681
  33.340         52.50	     7.937
  33.360         48.33	     7.616
  33.380         51.67	     7.874
  33.400         53.33	     8.000
  33.420         41.67	     7.071
  33.440         39.17	     6.856
  33.460         52.50	     7.937
  33.480         47.50	     7.550
  33.500         57.50	     8.307
  33.520         45.83	     7.416
  33.540         53.33	     8.000
  33.560         45.00	     7.348
  33.580         39.17	     6.856
  33.600         45.00	     7.348
  33.620         46.67	     7.483
  33.640         43.33	     7.211
  33.660         51.67	     7.874
  33.680         49.17	     7.681
  33.700         50.83	     7.810
  33.720         40.83	     7.000
  33.740         53.33	     8.000
  33.760         58.33	     8.367
  33.780         47.50	     7.550
  33.800         38.33	     6.782
  33.820         66.67	     8.944
  33.840         59.17	     8.426
  33.860         54.17	     8.062
  33.880         58.33	     8.367
  33.900         58.33	     8.367
  33.920         52.50	     7.937
  33.940         68.33	     9.055
  33.960         74.17	     9.434
  33.980         57.50	     8.307
  34.000         60.83	     8.544
  34.020         59.17	     8.426
  34.040         67.50	     9.000
  34.060         69.17	     9.110
  34.080         55.00	     8.124
  34.100         54.17	     8.062
  34.120         59.17	     8.426
  34.140         66.67	     8.944
  34.160         53.33	     8.000
  34.180         58.33	     8.367
  34.200         71.67	     9.274
  34.220         73.33	     9.381
  34.240         72.50	     9.327
  34.260         75.83	     9.539
  34.280         68.33	     9.055
  34.300         68.33	     9.055
  34.320         76.67	     9.592
  34.340         84.17	    10.050
  34.360         85.00	    10.100
  34.380         80.00	     9.798
  34.400        112.50	    11.619
  34.420        120.00	    12.000
  34.440        122.50	    12.124
  34.460        137.50	    12.845
  34.480        128.33	    12.410
  34.500        108.33	    11.402
  34.520        110.83	    11.533
  34.540        106.67	    11.314
  34.560         98.33	    10.863
  34.580         90.83	    10.440
  34.600         70.83	     9.220
  34.620         96.67	    10.770
  34.640         75.83	     9.539
  34.660         95.00	    10.677
  34.680         84.17	    10.050
  34.700         91.67	    10.488
  34.720         83.33	    10.000
  34.740         94.17	    10.630
  34.760         90.00	    10.392
  34.780        102.50	    11.091
  34.800        112.50	    11.619
  34.820        108.33	    11.402
  34.840        114.17	    11.705
  34.860        103.33	    11.136
  34.880        140.00	    12.961
  34.900        141.67	    13.038
  34.920        114.17	    11.705
  34.940        138.33	    12.884
  34.960        113.33	    11.662
  34.980        117.50	    11.874
  35.000        100.00	    10.954
  35.020         95.00	    10.677
  35.040         81.67	     9.899
  35.060         82.50	     9.950
  35.080         77.50	     9.644
  35.100         75.83	     9.539
  35.120         88.33	    10.296
  35.140         74.17	     9.434
  35.160         75.83	     9.539
  35.180         84.17	    10.050
  35.200         79.17	     9.747
  35.220         91.67	    10.488
  35.240         89.17	    10.344
  35.260         80.00	     9.798
  35.280         80.00	     9.798
  35.300         85.00	    10.100
  35.320         93.33	    10.583
  35.340        108.33	    11.402
  35.360         94.17	    10.630
  35.380        121.67	    12.083
  35.400        155.00	    13.638
  35.420        174.17	    14.457
  35.440        195.00	    15.297
  35.460        180.00	    14.697
  35.480        147.50	    13.304
  35.500        139.17	    12.923
  35.520        154.17	    13.601
  35.540        144.17	    13.153
  35.560         95.00	    10.677
  35.580        105.00	    11.225
  35.600         92.50	    10.536
  35.620         93.33	    10.583
  35.640         68.33	     9.055
  35.660         71.67	     9.274
  35.680         68.33	     9.055
  35.700         64.17	     8.775
  35.720         71.67	     9.274
  35.740         63.33	     8.718
  35.760         60.83	     8.544
  35.780         53.33	     8.000
  35.800         49.17	     7.681
  35.820         54.17	     8.062
  35.840         64.17	     8.775
  35.860         70.00	     9.165
  35.880         77.50	     9.644
  35.900         70.83	     9.220
  35.920         86.67	    10.198
  35.940        102.50	    11.091
  35.960        100.83	    11.000
  35.980        102.50	    11.091
  36.000        104.17	    11.180
  36.020         99.17	    10.909
  36.040         98.33	    10.863
  36.060         98.33	    10.863
  36.080        105.83	    11.269
  36.100         71.67	     9.274
  36.120         63.33	     8.718
  36.140         80.83	     9.849
  36.160         70.83	     9.220
  36.180         54.17	     8.062
  36.200         68.33	     9.055
  36.220         50.83	     7.810
  36.240         50.83	     7.810
  36.260         68.33	     9.055
  36.280         62.50	     8.660
  36.300         69.17	     9.110
  36.320         81.67	     9.899
  36.340         73.33	     9.381
  36.360         75.83	     9.539
  36.380        122.50	    12.124
  36.400        144.17	    13.153
  36.420        235.83	    16.823
  36.440        344.17	    20.322
  36.460        329.17	    19.875
  36.480        259.17	    17.635
  36.500        184.17	    14.866
  36.520        195.00	    15.297
  36.540        210.83	    15.906
  36.560        225.00	    16.432
  36.580        153.33	    13.565
  36.600         99.17	    10.909
  36.620        104.17	    11.180
  36.640         93.33	    10.583
  36.660         90.83	    10.440
  36.680         84.17	    10.050
  36.700         90.83	    10.440
  36.720         64.17	     8.775
  36.740         73.33	     9.381
  36.760         70.83	     9.220
  36.780         59.17	     8.426
  36.800         46.67	     7.483
  36.820         54.17	     8.062
  36.840         67.50	     9.000
  36.860         65.00	     8.832
  36.880         72.50	     9.327
  36.900         56.67	     8.246
  36.920         65.83	     8.888
  36.940         48.33	     7.616
  36.960         58.33	     8.367
  36.980         59.17	     8.426
  37.000         55.83	     8.185
  37.020         48.33	     7.616
  37.040         71.67	     9.274
  37.060         56.67	     8.246
  37.080         59.17	     8.426
  37.100         50.00	     7.746
  37.120         62.50	     8.660
  37.140         62.50	     8.660
  37.160         53.33	     8.000
  37.180         65.00	     8.832
  37.200         60.00	     8.485
  37.220         79.17	     9.747
  37.240         65.83	     8.888
  37.260         62.50	     8.660
  37.280         66.67	     8.944
  37.300         80.00	     9.798
  37.320         78.33	     9.695
  37.340         87.50	    10.247
  37.360         87.50	    10.247
  37.380         77.50	     9.644
  37.400         67.50	     9.000
  37.420         72.50	     9.327
  37.440         80.00	     9.798
  37.460         88.33	    10.296
  37.480         74.17	     9.434
  37.500         70.00	     9.165
  37.520         72.50	     9.327
  37.540         82.50	     9.950
  37.560         84.17	    10.050
  37.580         79.17	     9.747
  37.600         90.83	    10.440
  37.620         74.17	     9.434
  37.640         80.00	     9.798
  37.660         82.50	     9.950
  37.680         77.50	     9.644
  37.700         75.83	     9.539
  37.720         74.17	     9.434
  37.740         78.33	     9.695
  37.760         56.67	     8.246
  37.780         51.67	     7.874
  37.800         50.00	     7.746
  37.820         48.33	     7.616
  37.840         44.17	     7.280
  37.860         39.17	     6.856
  37.880         50.00	     7.746
  37.900         40.00	     6.928
  37.920         40.00	     6.928
  37.940         51.67	     7.874
  37.960         43.33	     7.211
  37.980         44.17	     7.280
  38.000         43.33	     7.211
  38.020         60.83	     8.544
  38.040         44.17	     7.280
  38.060         40.00	     6.928
  38.080         44.17	     7.280
  38.100         52.50	     7.937
  38.120         50.00	     7.746
  38.140         46.67	     7.483
  38.160         45.00	     7.348
  38.180         43.33	     7.211
  38.200         33.33	     6.325
  38.220         45.83	     7.416
  38.240         38.33	     6.782
  38.260         41.67	     7.071
  38.280         39.17	     6.856
  38.300         30.83	     6.083
  38.320         42.50	     7.141
  38.340         34.17	     6.403
  38.360         49.17	     7.681
  38.380         52.50	     7.937
  38.400         40.83	     7.000
  38.420         43.33	     7.211
  38.440         40.83	     7.000
  38.460         40.83	     7.000
  38.480         50.83	     7.810
  38.500         54.17	     8.062
  38.520         30.83	     6.083
  38.540         58.33	     8.367
  38.560         35.00	     6.481
  38.580         48.33	     7.616
  38.600         40.83	     7.000
  38.620         44.17	     7.280
  38.640         45.83	     7.416
  38.660         62.50	     8.660
  38.680         43.33	     7.211
  38.700         81.67	     9.899
  38.720        139.17	    12.923
  38.740        160.83	    13.892
  38.760        116.67	    11.832
  38.780         88.33	    10.296
  38.800         91.67	    10.488
  38.820        108.33	    11.402
  38.840        125.83	    12.288
  38.860         76.67	     9.592
  38.880         54.17	     8.062
  38.900         58.33	     8.367
  38.920         60.00	     8.485
  38.940         70.00	     9.165
  38.960         45.00	     7.348
  38.980         64.17	     8.775
  39.000         48.33	     7.616
  39.020         55.00	     8.124
  39.040         44.17	     7.280
  39.060         58.33	     8.367
  39.080         57.50	     8.307
  39.100         60.83	     8.544
  39.120         66.67	     8.944
  39.140         65.83	     8.888
  39.160         56.67	     8.246
  39.180         48.33	     7.616
  39.200         45.83	     7.416
  39.220         58.33	     8.367
  39.240         50.00	     7.746
  39.260         48.33	     7.616
  39.280         58.33	     8.367
  39.300         54.17	     8.062
  39.320         89.17	    10.344
  39.340        120.00	    12.000
  39.360        175.83	    14.526
  39.380        215.00	    16.062
  39.400        185.83	    14.933
  39.420        110.83	    11.533
  39.440        110.00	    11.489
  39.460        141.67	    13.038
  39.480        150.00	    13.416
  39.500        115.83	    11.790
  39.520         81.67	     9.899
  39.540         66.67	     8.944
  39.560         61.67	     8.602
  39.580         90.83	    10.440
  39.600        129.17	    12.450
  39.620        117.50	    11.874
  39.640         58.33	     8.367
  39.660         45.83	     7.416
  39.680         59.17	     8.426
  39.700         74.17	     9.434
  39.720         89.17	    10.344
  39.740         65.83	     8.888
  39.760         56.67	     8.246
  39.780         50.83	     7.810
  39.800         62.50	     8.660
  39.820         55.83	     8.185
  39.840         45.00	     7.348
  39.860         49.17	     7.681
  39.880         59.17	     8.426
  39.900         53.33	     8.000
  39.920         51.67	     7.874
  39.940         48.33	     7.616
  39.960         64.17	     8.775
  39.980         49.17	     7.681
  40.000         50.83	     7.810
  40.020         58.33	     8.367
  40.040         61.67	     8.602
  40.060         48.33	     7.616
  40.080         48.33	     7.616
  40.100         59.17	     8.426
  40.120         69.17	     9.110
  40.140         68.33	     9.055
  40.160         95.83	    10.724
  40.180        105.00	    11.225
  40.200        119.17	    11.958
  40.220        103.33	    11.136
  40.240         85.00	    10.100
  40.260         71.67	     9.274
  40.280         93.33	    10.583
  40.300         75.00	     9.487
  40.320         82.50	     9.950
  40.340         70.00	     9.165
  40.360         60.83	     8.544
  40.380         50.83	     7.810
  40.400         53.33	     8.000
  40.420         50.00	     7.746
  40.440         49.17	     7.681
  40.460         48.33	     7.616
  40.480         44.17	     7.280
  40.500         42.50	     7.141
  40.520         45.00	     7.348
  40.540         59.17	     8.426
  40.560         45.83	     7.416
  40.580         56.67	     8.246
  40.600         43.33	     7.211
  40.620         47.50	     7.550
  40.640         56.67	     8.246
  40.660         41.67	     7.071
  40.680         55.83	     8.185
  40.700         34.17	     6.403
  40.720         41.67	     7.071
  40.740         54.17	     8.062
  40.760         50.00	     7.746
  40.780         50.83	     7.810
  40.800         44.17	     7.280
  40.820         51.67	     7.874
  40.840         55.00	     8.124
  40.860         42.50	     7.141
  40.880         44.17	     7.280
  40.900         45.83	     7.416
  40.920         47.50	     7.550
  40.940         58.33	     8.367
  40.960         50.00	     7.746
  40.980         60.00	     8.485
  41.000         54.17	     8.062
  41.020         34.17	     6.403
  41.040         52.50	     7.937
  41.060         62.50	     8.660
  41.080         60.00	     8.485
  41.100         47.50	     7.550
  41.120         33.33	     6.325
  41.140         57.50	     8.307
  41.160         70.83	     9.220
  41.180         71.67	     9.274
  41.200         47.50	     7.550
  41.220         52.50	     7.937
  41.240         60.00	     8.485
  41.260         51.67	     7.874
  41.280         75.83	     9.539
  41.300         40.00	     6.928
  41.320         55.00	     8.124
  41.340         54.17	     8.062
  41.360         53.33	     8.000
  41.380         42.50	     7.141
  41.400         54.17	     8.062
  41.420         51.67	     7.874
  41.440         55.00	     8.124
  41.460         60.83	     8.544
  41.480         52.50	     7.937
  41.500         51.67	     7.874
  41.520         50.83	     7.810
  41.540         63.33	     8.718
  41.560         87.50	    10.247
  41.580         75.00	     9.487
  41.600         94.17	    10.630
  41.620         77.50	     9.644
  41.640         65.00	     8.832
  41.660         65.00	     8.832
  41.680         70.00	     9.165
  41.700         67.50	     9.000
  41.720         78.33	     9.695
  41.740         78.33	     9.695
  41.760         86.67	    10.198
  41.780         61.67	     8.602
  41.800         77.50	     9.644
  41.820         65.83	     8.888
  41.840         75.83	     9.539
  41.860         77.50	     9.644
  41.880         60.83	     8.544
  41.900         85.00	    10.100
  41.920         70.83	     9.220
  41.940         61.67	     8.602
  41.960         62.50	     8.660
  41.980         53.33	     8.000
  42.000         58.33	     8.367
  42.020         65.83	     8.888
  42.040         61.67	     8.602
  42.060         76.67	     9.592
  42.080         58.33	     8.367
  42.100         56.67	     8.246
  42.120         50.83	     7.810
  42.140         66.67	     8.944
  42.160         56.67	     8.246
  42.180         73.33	     9.381
  42.200         70.00	     9.165
  42.220         68.33	     9.055
  42.240         90.83	    10.440
  42.260         80.83	     9.849
  42.280        109.17	    11.446
  42.300        104.17	    11.180
  42.320        110.00	    11.489
  42.340        138.33	    12.884
  42.360        179.17	    14.663
  42.380        147.50	    13.304
  42.400        141.67	    13.038
  42.420         92.50	    10.536
  42.440        125.83	    12.288
  42.460        112.50	    11.619
  42.480        186.67	    14.967
  42.500        182.50	    14.799
  42.520        101.67	    11.045
  42.540         64.17	     8.775
  42.560         77.50	     9.644
  42.580         87.50	    10.247
  42.600        109.17	    11.446
  42.620        109.17	    11.446
  42.640         74.17	     9.434
  42.660         50.83	     7.810
  42.680         59.17	     8.426
  42.700         77.50	     9.644
  42.720         73.33	     9.381
  42.740         72.50	     9.327
  42.760         68.33	     9.055
  42.780         62.50	     8.660
  42.800         46.67	     7.483
  42.820         55.83	     8.185
  42.840         60.00	     8.485
  42.860         59.17	     8.426
  42.880         53.33	     8.000
  42.900         63.33	     8.718
  42.920         55.00	     8.124
  42.940         53.33	     8.000
  42.960         60.00	     8.485
  42.980         70.83	     9.220
  43.000         51.67	     7.874
  43.020         63.33	     8.718
  43.040         45.83	     7.416
  43.060         64.17	     8.775
  43.080         50.00	     7.746
  43.100         56.67	     8.246
  43.120         69.17	     9.110
  43.140         64.17	     8.775
  43.160         63.33	     8.718
  43.180         60.00	     8.485
  43.200         58.33	     8.367
  43.220         55.00	     8.124
  43.240         60.83	     8.544
  43.260         80.00	     9.798
  43.280         68.33	     9.055
  43.300         79.17	     9.747
  43.320         85.00	    10.100
  43.340         85.83	    10.149
  43.360         89.17	    10.344
  43.380        104.17	    11.180
  43.400        112.50	    11.619
  43.420        123.33	    12.166
  43.440        110.83	    11.533
  43.460        141.67	    13.038
  43.480        107.50	    11.358
  43.500        125.83	    12.288
  43.520        149.17	    13.379
  43.540        141.67	    13.038
  43.560        130.83	    12.530
  43.580        139.17	    12.923
  43.600        120.00	    12.000
  43.620        115.83	    11.790
  43.640        113.33	    11.662
  43.660        111.67	    11.576
  43.680        117.50	    11.874
  43.700        110.00	    11.489
  43.720        103.33	    11.136
  43.740        115.83	    11.790
  43.760        106.67	    11.314
  43.780         97.50	    10.817
  43.800        100.00	    10.954
  43.820        112.50	    11.619
  43.840        111.67	    11.576
  43.860         93.33	    10.583
  43.880        106.67	    11.314
  43.900        113.33	    11.662
  43.920         99.17	    10.909
  43.940        103.33	    11.136
  43.960        112.50	    11.619
  43.980        116.67	    11.832
  44.000        133.33	    12.649
  44.020        115.83	    11.790
  44.040        138.33	    12.884
  44.060        125.00	    12.247
  44.080        134.17	    12.689
  44.100        125.83	    12.288
  44.120        164.17	    14.036
  44.140        175.83	    14.526
  44.160        174.17	    14.457
  44.180        168.33	    14.213
  44.200        175.83	    14.526
  44.220        195.83	    15.330
  44.240        182.50	    14.799
  44.260        219.17	    16.217
  44.280        230.83	    16.643
  44.300        231.67	    16.673
  44.320        265.00	    17.833
  44.340        240.83	    17.000
  44.360        248.33	    17.263
  44.380        289.17	    18.628
  44.400        275.83	    18.193
  44.420        277.50	    18.248
  44.440        280.00	    18.330
  44.460        300.00	    18.974
  44.480        267.50	    17.916
  44.500        218.33	    16.186
  44.520        239.17	    16.941
  44.540        245.00	    17.146
  44.560        242.50	    17.059
  44.580        258.33	    17.607
  44.600        223.33	    16.371
  44.620        194.17	    15.264
  44.640        220.83	    16.279
  44.660        185.83	    14.933
  44.680        156.67	    13.711
  44.700        176.67	    14.560
  44.720        165.83	    14.107
  44.740        145.00	    13.191
  44.760        168.33	    14.213
  44.780        145.00	    13.191
  44.800        147.50	    13.304
  44.820        181.67	    14.765
  44.840        150.83	    13.454
  44.860        133.33	    12.649
  44.880        115.83	    11.790
  44.900        132.50	    12.610
  44.920        124.17	    12.207
  44.940        112.50	    11.619
  44.960        119.17	    11.958
  44.980         95.00	    10.677
  45.000        119.17	    11.958
  45.020         89.17	    10.344
  45.040         95.83	    10.724
  45.060         98.33	    10.863
  45.080         83.33	    10.000
  45.100         80.83	     9.849
  45.120         81.67	     9.899
  45.140         95.00	    10.677
  45.160        100.00	    10.954
  45.180         99.17	    10.909
  45.200        108.33	    11.402
  45.220        104.17	    11.180
  45.240        105.83	    11.269
  45.260        122.50	    12.124
  45.280        108.33	    11.402
  45.300        122.50	    12.124
  45.320        149.17	    13.379
  45.340        142.50	    13.077
  45.360        176.67	    14.560
  45.380        216.67	    16.125
  45.400        227.50	    16.523
  45.420        260.83	    17.692
  45.440        244.17	    17.117
  45.460        242.50	    17.059
  45.480        279.17	    18.303
  45.500        274.17	    18.138
  45.520        267.50	    17.916
  45.540        268.33	    17.944
  45.560        249.17	    17.292
  45.580        225.00	    16.432
  45.600        163.33	    14.000
  45.620        158.33	    13.784
  45.640        170.00	    14.283
  45.660        150.00	    13.416
  45.680        166.67	    14.142
  45.700        167.50	    14.177
  45.720        156.67	    13.711
  45.740        116.67	    11.832
  45.760        110.00	    11.489
  45.780         99.17	    10.909
  45.800        110.83	    11.533
  45.820        135.83	    12.767
  45.840        105.83	    11.269
  45.860         99.17	    10.909
  45.880         90.00	    10.392
  45.900         69.17	     9.110
  45.920         62.50	     8.660
  45.940         64.17	     8.775
  45.960         77.50	     9.644
  45.980         76.67	     9.592
  46.000         62.50	     8.660
  46.020         54.17	     8.062
  46.040         60.00	     8.485
  46.060         46.67	     7.483
  46.080         58.33	     8.367
  46.100         56.67	     8.246
  46.120         57.50	     8.307
  46.140         52.50	     7.937
  46.160         45.00	     7.348
  46.180         51.67	     7.874
  46.200         55.00	     8.124
  46.220         42.50	     7.141
  46.240         35.00	     6.481
  46.260         50.00	     7.746
  46.280         35.83	     6.557
  46.300         38.33	     6.782
  46.320         46.67	     7.483
  46.340         43.33	     7.211
  46.360         49.17	     7.681
  46.380         51.67	     7.874
  46.400         48.33	     7.616
  46.420         44.17	     7.280
  46.440         39.17	     6.856
  46.460         40.83	     7.000
  46.480         45.00	     7.348
  46.500         33.33	     6.325
  46.520         47.50	     7.550
  46.540         39.17	     6.856
  46.560         40.83	     7.000
  46.580         35.83	     6.557
  46.600         40.00	     6.928
  46.620         33.33	     6.325
  46.640         35.83	     6.557
  46.660         45.83	     7.416
  46.680         52.50	     7.937
  46.700         38.33	     6.782
  46.720         41.67	     7.071
  46.740         40.00	     6.928
  46.760         45.83	     7.416
  46.780         36.67	     6.633
  46.800         32.50	     6.245
  46.820         47.50	     7.550
  46.840         31.67	     6.164
  46.860         40.00	     6.928
  46.880         34.17	     6.403
  46.900         55.83	     8.185
  46.920         41.67	     7.071
  46.940         29.17	     5.916
  46.960         50.83	     7.810
  46.980         43.33	     7.211
  47.000         48.33	     7.616
  47.020         46.67	     7.483
  47.040         46.67	     7.483
  47.060         41.67	     7.071
  47.080         55.83	     8.185
  47.100         50.83	     7.810
  47.120         45.83	     7.416
  47.140         51.67	     7.874
  47.160         44.17	     7.280
  47.180         42.50	     7.141
  47.200         45.83	     7.416
  47.220         50.00	     7.746
  47.240         40.83	     7.000
  47.260         30.00	     6.000
  47.280         40.00	     6.928
  47.300         42.50	     7.141
  47.320         32.50	     6.245
  47.340         40.00	     6.928
  47.360         50.83	     7.810
  47.380         37.50	     6.708
  47.400         40.00	     6.928
  47.420         39.17	     6.856
  47.440         44.17	     7.280
  47.460         36.67	     6.633
  47.480         28.33	     5.831
  47.500         53.33	     8.000
  47.520         34.17	     6.403
  47.540         35.83	     6.557
  47.560         34.17	     6.403
  47.580         42.50	     7.141
  47.600         45.00	     7.348
  47.620         39.17	     6.856
  47.640         27.50	     5.745
  47.660         37.50	     6.708
  47.680         34.17	     6.403
  47.700         41.67	     7.071
  47.720         38.33	     6.782
  47.740         40.00	     6.928
  47.760         44.17	     7.280
  47.780         41.67	     7.071
  47.800         41.67	     7.071
  47.820         45.83	     7.416
  47.840         48.33	     7.616
  47.860         55.00	     8.124
  47.880         63.33	     8.718
  47.900         56.67	     8.246
  47.920         43.33	     7.211
  47.940         53.33	     8.000
  47.960         40.83	     7.000
  47.980         40.00	     6.928
  48.000         45.00	     7.348
  48.020         56.67	     8.246
  48.040         44.17	     7.280
  48.060         50.83	     7.810
  48.080         51.67	     7.874
  48.100         38.33	     6.782
  48.120         54.17	     8.062
  48.140         50.00	     7.746
  48.160         60.00	     8.485
  48.180         49.17	     7.681
  48.200         61.67	     8.602
  48.220         55.00	     8.124
  48.240         41.67	     7.071
  48.260         54.17	     8.062
  48.280         54.17	     8.062
  48.300         44.17	     7.280
  48.320         53.33	     8.000
  48.340         52.50	     7.937
  48.360         36.67	     6.633
  48.380         54.17	     8.062
  48.400         50.83	     7.810
  48.420         49.17	     7.681
  48.440         42.50	     7.141
  48.460         60.83	     8.544
  48.480         35.00	     6.481
  48.500         37.50	     6.708
  48.520         45.83	     7.416
  48.540         59.17	     8.426
  48.560         50.83	     7.810
  48.580         44.17	     7.280
  48.600         44.17	     7.280
  48.620         40.00	     6.928
  48.640         44.17	     7.280
  48.660         39.17	     6.856
  48.680         37.50	     6.708
  48.700         35.83	     6.557
  48.720         33.33	     6.325
  48.740         36.67	     6.633
  48.760         45.00	     7.348
  48.780         45.00	     7.348
  48.800         44.17	     7.280
  48.820         43.33	     7.211
  48.840         40.00	     6.928
  48.860         57.50	     8.307
  48.880         49.17	     7.681
  48.900         56.67	     8.246
  48.920         43.33	     7.211
  48.940         47.50	     7.550
  48.960         36.67	     6.633
  48.980         44.17	     7.280
  49.000         37.50	     6.708
  49.020         35.83	     6.557
  49.040         43.33	     7.211
  49.060         40.00	     6.928
  49.080         44.17	     7.280
  49.100         50.83	     7.810
  49.120         55.00	     8.124
  49.140         54.17	     8.062
  49.160         28.33	     5.831
  49.180         38.33	     6.782
  49.200         33.33	     6.325
  49.220         45.00	     7.348
  49.240         43.33	     7.211
  49.260         45.00	     7.348
  49.280         50.83	     7.810
  49.300         41.67	     7.071
  49.320         35.00	     6.481
  49.340         52.50	     7.937
  49.360         51.67	     7.874
  49.380         44.17	     7.280
  49.400         52.50	     7.937
  49.420         40.83	     7.000
  49.440         51.67	     7.874
  49.460         49.17	     7.681
  49.480         46.67	     7.483
  49.500         40.00	     6.928
  49.520         50.83	     7.810
  49.540         51.67	     7.874
  49.560         49.17	     7.681
  49.580         50.83	     7.810
  49.600         60.00	     8.485
  49.620         58.33	     8.367
  49.640         50.83	     7.810
  49.660         53.33	     8.000
  49.680         58.33	     8.367
  49.700         56.67	     8.246
  49.720         63.33	     8.718
  49.740         73.33	     9.381
  49.760         72.50	     9.327
  49.780         62.50	     8.660
  49.800         61.67	     8.602
  49.820         73.33	     9.381
  49.840         75.83	     9.539
  49.860         66.67	     8.944
  49.880         77.50	     9.644
  49.900         78.33	     9.695
  49.920         85.00	    10.100
  49.940         88.33	    10.296
  49.960        122.50	    12.124
  49.980        175.83	    14.526
  50.000        205.83	    15.716
  50.020        325.00	    19.748
  50.040        405.00	    22.045
  50.060        380.83	    21.378
  50.080        270.83	    18.028
  50.100        167.50	    14.177
  50.120        153.33	    13.565
  50.140        171.67	    14.353
  50.160        190.00	    15.100
  50.180        219.17	    16.217
  50.200        196.67	    15.362
  50.220        141.67	    13.038
  50.240         89.17	    10.344
  50.260         90.00	    10.392
  50.280         54.17	     8.062
  50.300         64.17	     8.775
  50.320         52.50	     7.937
  50.340         60.83	     8.544
  50.360         61.67	     8.602
  50.380         48.33	     7.616
  50.400         57.50	     8.307
  50.420         48.33	     7.616
  50.440         60.83	     8.544
  50.460         69.17	     9.110
  50.480         69.17	     9.110
  50.500         68.33	     9.055
  50.520         64.17	     8.775
  50.540         58.33	     8.367
  50.560         62.50	     8.660
  50.580         60.00	     8.485
  50.600         63.33	     8.718
  50.620         61.67	     8.602
  50.640         59.17	     8.426
  50.660         61.67	     8.602
  50.680         65.00	     8.832
  50.700         58.33	     8.367
  50.720         50.83	     7.810
  50.740         49.17	     7.681
  50.760         59.17	     8.426
  50.780         41.67	     7.071
  50.800         52.50	     7.937
  50.820         53.33	     8.000
  50.840         42.50	     7.141
  50.860         46.67	     7.483
  50.880         40.83	     7.000
  50.900         50.00	     7.746
  50.920         50.00	     7.746
  50.940         40.00	     6.928
  50.960         72.50	     9.327
  50.980        104.17	    11.180
  51.000        127.50	    12.369
  51.020        109.17	    11.446
  51.040         65.83	     8.888
  51.060         82.50	     9.950
  51.080         68.33	     9.055
  51.100         59.17	     8.426
  51.120         76.67	     9.592
  51.140         77.50	     9.644
  51.160        100.00	    10.954
  51.180         77.50	     9.644
  51.200         69.17	     9.110
  51.220         59.17	     8.426
  51.240         56.67	     8.246
  51.260         55.00	     8.124
  51.280         49.17	     7.681
  51.300         50.00	     7.746
  51.320         41.67	     7.071
  51.340         38.33	     6.782
  51.360         40.00	     6.928
  51.380         35.00	     6.481
  51.400         30.83	     6.083
  51.420         33.33	     6.325
  51.440         31.67	     6.164
  51.460         33.33	     6.325
  51.480         41.67	     7.071
  51.500         30.83	     6.083
  51.520         39.17	     6.856
  51.540         39.17	     6.856
  51.560         38.33	     6.782
  51.580         28.33	     5.831
  51.600         34.17	     6.403
  51.620         35.83	     6.557
  51.640         34.17	     6.403
  51.660         31.67	     6.164
  51.680         28.33	     5.831
  51.700         30.00	     6.000
  51.720         27.50	     5.745
  51.740         31.67	     6.164
  51.760         26.67	     5.657
  51.780         37.50	     6.708
  51.800         25.00	     5.477
  51.820         40.83	     7.000
  51.840         35.83	     6.557
  51.860         30.83	     6.083
  51.880         35.00	     6.481
  51.900         40.00	     6.928
  51.920         48.33	     7.616
  51.940         35.00	     6.481
  51.960         44.17	     7.280
  51.980         37.50	     6.708
  52.000         39.17	     6.856
  52.020         60.00	     8.485
  52.040         45.00	     7.348
  52.060         59.17	     8.426
  52.080         44.17	     7.280
  52.100         48.33	     7.616
  52.120         53.33	     8.000
  52.140         47.50	     7.550
  52.160         48.33	     7.616
  52.180         60.00	     8.485
  52.200         80.83	     9.849
  52.220         66.67	     8.944
  52.240         72.50	     9.327
  52.260         37.50	     6.708
  52.280         49.17	     7.681
  52.300         43.33	     7.211
  52.320         55.83	     8.185
  52.340         57.50	     8.307
  52.360         58.33	     8.367
  52.380         50.83	     7.810
  52.400         52.50	     7.937
  52.420         51.67	     7.874
  52.440         45.00	     7.348
  52.460         44.17	     7.280
  52.480         35.00	     6.481
  52.500         48.33	     7.616
  52.520         37.50	     6.708
  52.540         49.17	     7.681
  52.560         44.17	     7.280
  52.580         46.67	     7.483
  52.600         41.67	     7.071
  52.620         37.50	     6.708
  52.640         38.33	     6.782
  52.660         39.17	     6.856
  52.680         46.67	     7.483
  52.700         42.50	     7.141
  52.720         46.67	     7.483
  52.740         40.00	     6.928
  52.760         49.17	     7.681
  52.780         55.00	     8.124
  52.800         50.00	     7.746
  52.820         45.00	     7.348
  52.840         43.33	     7.211
  52.860         57.50	     8.307
  52.880         53.33	     8.000
  52.900         46.67	     7.483
  52.920         58.33	     8.367
  52.940         47.50	     7.550
  52.960         36.67	     6.633
  52.980         49.17	     7.681
  53.000         38.33	     6.782
  53.020         40.83	     7.000
  53.040         50.00	     7.746
  53.060         51.67	     7.874
  53.080         59.17	     8.426
  53.100         65.83	     8.888
  53.120         53.33	     8.000
  53.140         64.17	     8.775
  53.160         55.00	     8.124
  53.180         55.83	     8.185
  53.200         53.33	     8.000
  53.220         45.83	     7.416
  53.240         59.17	     8.426
  53.260         54.17	     8.062
  53.280         50.83	     7.810
  53.300         44.17	     7.280
  53.320         45.00	     7.348
  53.340         47.50	     7.550
  53.360         41.67	     7.071
  53.380         39.17	     6.856
  53.400         44.17	     7.280
  53.420         35.83	     6.557
  53.440         33.33	     6.325
  53.460         50.00	     7.746
  53.480         38.33	     6.782
  53.500         38.33	     6.782
  53.520         50.83	     7.810
  53.540         42.50	     7.141
  53.560         41.67	     7.071
  53.580         47.50	     7.550
  53.600         44.17	     7.280
  53.620         32.50	     6.245
  53.640         34.17	     6.403
  53.660         41.67	     7.071
  53.680         48.33	     7.616
  53.700         44.17	     7.280
  53.720         36.67	     6.633
  53.740         40.00	     6.928
  53.760         39.17	     6.856
  53.780         39.17	     6.856
  53.800         42.50	     7.141
  53.820         35.00	     6.481
  53.840         43.33	     7.211
  53.860         35.83	     6.557
  53.880         30.00	     6.000
  53.900         46.67	     7.483
  53.920         30.83	     6.083
  53.940         34.17	     6.403
  53.960         34.17	     6.403
  53.980         30.00	     6.000
  54.000         31.67	     6.164
  54.020         36.67	     6.633
  54.040         38.33	     6.782
  54.060         38.33	     6.782
  54.080         45.00	     7.348
  54.100         43.33	     7.211
  54.120         40.83	     7.000
  54.140         36.67	     6.633
  54.160         39.17	     6.856
  54.180         50.00	     7.746
  54.200         45.00	     7.348
  54.220         36.67	     6.633
  54.240         61.67	     8.602
  54.260         58.33	     8.367
  54.280         80.00	     9.798
  54.300         72.50	     9.327
  54.320         51.67	     7.874
  54.340         60.83	     8.544
  54.360         63.33	     8.718
  54.380         64.17	     8.775
  54.400         48.33	     7.616
  54.420         62.50	     8.660
  54.440         65.00	     8.832
  54.460         56.67	     8.246
  54.480         55.83	     8.185
  54.500         51.67	     7.874
  54.520         49.17	     7.681
  54.540         60.00	     8.485
  54.560         47.50	     7.550
  54.580         33.33	     6.325
  54.600         56.67	     8.246
  54.620         55.83	     8.185
  54.640         59.17	     8.426
  54.660         55.83	     8.185
  54.680         70.83	     9.220
  54.700         66.67	     8.944
  54.720         76.67	     9.592
  54.740        101.67	    11.045
  54.760        151.67	    13.491
  54.780        150.00	    13.416
  54.800        127.50	    12.369
  54.820         79.17	     9.747
  54.840         77.50	     9.644
  54.860         75.00	     9.487
  54.880         90.00	    10.392
  54.900        103.33	    11.136
  54.920        141.67	    13.038
  54.940        133.33	    12.649
  54.960         86.67	    10.198
  54.980         87.50	    10.247
  55.000         65.00	     8.832
  55.020         75.00	     9.487
  55.040         70.83	     9.220
  55.060         73.33	     9.381
  55.080         60.00	     8.485
  55.100         82.50	     9.950
  55.120         76.67	     9.592
  55.140         79.17	     9.747
  55.160         65.83	     8.888
  55.180         65.83	     8.888
  55.200         86.67	    10.198
  55.220         95.00	    10.677
  55.240         76.67	     9.592
  55.260         90.83	    10.440
  55.280         65.00	     8.832
  55.300         68.33	     9.055
  55.320         69.17	     9.110
  55.340         63.33	     8.718
  55.360         58.33	     8.367
  55.380         63.33	     8.718
  55.400         56.67	     8.246
  55.420         71.67	     9.274
  55.440         53.33	     8.000
  55.460         48.33	     7.616
  55.480         48.33	     7.616
  55.500         60.83	     8.544
  55.520         60.00	     8.485
  55.540         46.67	     7.483
  55.560         64.17	     8.775
  55.580         64.17	     8.775
  55.600         72.50	     9.327
  55.620         74.17	     9.434
  55.640         80.00	     9.798
  55.660         75.83	     9.539
  55.680         76.67	     9.592
  55.700         72.50	     9.327
  55.720         81.67	     9.899
  55.740         85.83	    10.149
  55.760         96.67	    10.770
  55.780         85.00	    10.100
  55.800         85.00	    10.100
  55.820         69.17	     9.110
  55.840         73.33	     9.381
  55.860         72.50	     9.327
  55.880         71.67	     9.274
  55.900         72.50	     9.327
  55.920         62.50	     8.660
  55.940         70.83	     9.220
  55.960         65.00	     8.832
  55.980         41.67	     7.071
  56.000         43.33	     7.211
  56.020         41.67	     7.071
  56.040         54.17	     8.062
  56.060         45.83	     7.416
  56.080         56.67	     8.246
  56.100         45.00	     7.348
  56.120         45.83	     7.416
  56.140         43.33	     7.211
  56.160         57.50	     8.307
  56.180         42.50	     7.141
  56.200         41.67	     7.071
  56.220         50.83	     7.810
  56.240         52.50	     7.937
  56.260         38.33	     6.782
  56.280         34.17	     6.403
  56.300         51.67	     7.874
  56.320         39.17	     6.856
  56.340         48.33	     7.616
  56.360         42.50	     7.141
  56.380         38.33	     6.782
  56.400         50.00	     7.746
  56.420         48.33	     7.616
  56.440         45.00	     7.348
  56.460         55.00	     8.124
  56.480         68.33	     9.055
  56.500         50.83	     7.810
  56.520         46.67	     7.483
  56.540         54.17	     8.062
  56.560         46.67	     7.483
  56.580         47.50	     7.550
  56.600         49.17	     7.681
  56.620         42.50	     7.141
  56.640         55.00	     8.124
  56.660         53.33	     8.000
  56.680         45.00	     7.348
  56.700         40.83	     7.000
  56.720         54.17	     8.062
  56.740         40.83	     7.000
  56.760         40.00	     6.928
  56.780         57.50	     8.307
  56.800         42.50	     7.141
  56.820         53.33	     8.000
  56.840         48.33	     7.616
  56.860         54.17	     8.062
  56.880         44.17	     7.280
  56.900         40.83	     7.000
  56.920         30.83	     6.083
  56.940         36.67	     6.633
  56.960         50.00	     7.746
  56.980         43.33	     7.211
  57.000         51.67	     7.874
  57.020         39.17	     6.856
  57.040         43.33	     7.211
  57.060         46.67	     7.483
  57.080         42.50	     7.141
  57.100         41.67	     7.071
  57.120         49.17	     7.681
  57.140         60.83	     8.544
  57.160         44.17	     7.280
  57.180         40.83	     7.000
  57.200         42.50	     7.141
  57.220         37.50	     6.708
  57.240         32.50	     6.245
  57.260         42.50	     7.141
  57.280         45.83	     7.416
  57.300         45.00	     7.348
  57.320         45.83	     7.416
  57.340         40.00	     6.928
  57.360         46.67	     7.483
  57.380         40.83	     7.000
  57.400         40.00	     6.928
  57.420         45.83	     7.416
  57.440         50.83	     7.810
  57.460         37.50	     6.708
  57.480         42.50	     7.141
  57.500         36.67	     6.633
  57.520         40.00	     6.928
  57.540         47.50	     7.550
  57.560         32.50	     6.245
  57.580         51.67	     7.874
  57.600         41.67	     7.071
  57.620         47.50	     7.550
  57.640         50.83	     7.810
  57.660         43.33	     7.211
  57.680         39.17	     6.856
  57.700         41.67	     7.071
  57.720         42.50	     7.141
  57.740         45.83	     7.416
  57.760         36.67	     6.633
  57.780         63.33	     8.718
  57.800         94.17	    10.630
  57.820         78.33	     9.695
  57.840         73.33	     9.381
  57.860         48.33	     7.616
  57.880         36.67	     6.633
  57.900         35.83	     6.557
  57.920         52.50	     7.937
  57.940         51.67	     7.874
  57.960         65.83	     8.888
  57.980         64.17	     8.775
  58.000         60.00	     8.485
  58.020         49.17	     7.681
  58.040         51.67	     7.874
  58.060         45.83	     7.416
  58.080         51.67	     7.874
  58.100         44.17	     7.280
  58.120         48.33	     7.616
  58.140         43.33	     7.211
  58.160         44.17	     7.280
  58.180         54.17	     8.062
  58.200         31.67	     6.164
  58.220         35.00	     6.481
  58.240         43.33	     7.211
  58.260         43.33	     7.211
  58.280         44.17	     7.280
  58.300         55.00	     8.124
  58.320         35.00	     6.481
  58.340         52.50	     7.937
  58.360         68.33	     9.055
  58.380         53.33	     8.000
  58.400         92.50	    10.536
  58.420        118.33	    11.916
  58.440        220.83	    16.279
  58.460        375.00	    21.213
  58.480        375.83	    21.237
  58.500        200.00	    15.492
  58.520        101.67	    11.045
  58.540         80.00	     9.798
  58.560         90.83	    10.440
  58.580        125.00	    12.247
  58.600        150.83	    13.454
  58.620        199.17	    15.460
  58.640        225.00	    16.432
  58.660        121.67	    12.083
  58.680         90.83	    10.440
  58.700         73.33	     9.381
  58.720         75.83	     9.539
  58.740         57.50	     8.307
  58.760         55.83	     8.185
  58.780         54.17	     8.062
  58.800         44.17	     7.280
  58.820         58.33	     8.367
  58.840         50.00	     7.746
  58.860         58.33	     8.367
  58.880         53.33	     8.000
  58.900         62.50	     8.660
  58.920         45.83	     7.416
  58.940         42.50	     7.141
  58.960         50.83	     7.810
  58.980         50.83	     7.810
  59.000         65.00	     8.832
  59.020         75.83	     9.539
  59.040         75.00	     9.487
  59.060        100.83	    11.000
  59.080        151.67	    13.491
  59.100        249.17	    17.292
  59.120        239.17	    16.941
  59.140        160.00	    13.856
  59.160         90.00	    10.392
  59.180         68.33	     9.055
  59.200         76.67	     9.592
  59.220         70.00	     9.165
  59.240         94.17	    10.630
  59.260        147.50	    13.304
  59.280        155.83	    13.675
  59.300         94.17	    10.630
  59.320         69.17	     9.110
  59.340         67.50	     9.000
  59.360         54.17	     8.062
  59.380         42.50	     7.141
  59.400         53.33	     8.000
  59.420         37.50	     6.708
  59.440         55.00	     8.124
  59.460         50.83	     7.810
  59.480         49.17	     7.681
  59.500         46.67	     7.483
  59.520         48.33	     7.616
  59.540         54.17	     8.062
  59.560         45.00	     7.348
  59.580         60.83	     8.544
  59.600         58.33	     8.367
  59.620         35.83	     6.557
  59.640         53.33	     8.000
  59.660         54.17	     8.062
  59.680         62.50	     8.660
  59.700         60.00	     8.485
  59.720         66.67	     8.944
  59.740         65.00	     8.832
  59.760         76.67	     9.592
  59.780         97.50	    10.817
  59.800        122.50	    12.124
  59.820        180.00	    14.697
  59.840        304.17	    19.105
  59.860        345.83	    20.372
  59.880        355.00	    20.640
  59.900        258.33	    17.607
  59.920        185.83	    14.933
  59.940        131.67	    12.570
  59.960        127.50	    12.369
  59.980        146.67	    13.266
  60.000        187.50	    15.000
  60.020        188.33	    15.033
  60.040        205.00	    15.684
  60.060        167.50	    14.177
  60.080        131.67	    12.570
  60.100         89.17	    10.344
  60.120         72.50	     9.327
  60.140         79.17	     9.747
  60.160         80.83	     9.849
  60.180         70.00	     9.165
  60.200         63.33	     8.718
  60.220         54.17	     8.062
  60.240         63.33	     8.718
  60.260         59.17	     8.426
  60.280         55.83	     8.185
  60.300         62.50	     8.660
  60.320         60.00	     8.485
  60.340         61.67	     8.602
  60.360         63.33	     8.718
  60.380         50.83	     7.810
  60.400         55.83	     8.185
  60.420         56.67	     8.246
  60.440         55.83	     8.185
  60.460         74.17	     9.434
  60.480         67.50	     9.000
  60.500         70.00	     9.165
  60.520         52.50	     7.937
  60.540         76.67	     9.592
  60.560         56.67	     8.246
  60.580         61.67	     8.602
  60.600         55.83	     8.185
  60.620         58.33	     8.367
  60.640         52.50	     7.937
  60.660         55.83	     8.185
  60.680         59.17	     8.426
  60.700         50.00	     7.746
  60.720         68.33	     9.055
  60.740         69.17	     9.110
  60.760         60.83	     8.544
  60.780         64.17	     8.775
  60.800         68.33	     9.055
  60.820         63.33	     8.718
  60.840         52.50	     7.937
  60.860         82.50	     9.950
  60.880         60.00	     8.485
  60.900         65.00	     8.832
  60.920         50.00	     7.746
  60.940         60.83	     8.544
  60.960         63.33	     8.718
  60.980         55.83	     8.185
  61.000         45.83	     7.416
  61.020         54.17	     8.062
  61.040         62.50	     8.660
  61.060         52.50	     7.937
  61.080         61.67	     8.602
  61.100         58.33	     8.367
  61.120         60.00	     8.485
  61.140         34.17	     6.403
  61.160         45.00	     7.348
  61.180         61.67	     8.602
  61.200         50.00	     7.746
  61.220         65.00	     8.832
  61.240         60.83	     8.544
  61.260         62.50	     8.660
  61.280         65.00	     8.832
  61.300         70.00	     9.165
  61.320         79.17	     9.747
  61.340         75.00	     9.487
  61.360         74.17	     9.434
  61.380         82.50	     9.950
  61.400         83.33	    10.000
  61.420         87.50	    10.247
  61.440         73.33	     9.381
  61.460         84.17	    10.050
  61.480         85.83	    10.149
  61.500         84.17	    10.050
  61.520         75.00	     9.487
  61.540         84.17	    10.050
  61.560         75.00	     9.487
  61.580         84.17	    10.050
  61.600         73.33	     9.381
  61.620         74.17	     9.434
  61.640         67.50	     9.000
  61.660         74.17	     9.434
  61.680         70.00	     9.165
  61.700         68.33	     9.055
  61.720         59.17	     8.426
  61.740         68.33	     9.055
  61.760         69.17	     9.110
  61.780         54.17	     8.062
  61.800         58.33	     8.367
  61.820         56.67	     8.246
  61.840         60.00	     8.485
  61.860         68.33	     9.055
  61.880         56.67	     8.246
  61.900         70.83	     9.220
  61.920         50.83	     7.810
  61.940         45.83	     7.416
  61.960         60.83	     8.544
  61.980         63.33	     8.718
  62.000         55.83	     8.185
  62.020         49.17	     7.681
  62.040         51.67	     7.874
  62.060         55.83	     8.185
  62.080         40.00	     6.928
  62.100         60.83	     8.544
  62.120         80.83	     9.849
  62.140         71.67	     9.274
  62.160         66.67	     8.944
  62.180         57.50	     8.307
  62.200         48.33	     7.616
  62.220         44.17	     7.280
  62.240         35.83	     6.557
  62.260         56.67	     8.246
  62.280         35.83	     6.557
  62.300         58.33	     8.367
  62.320         40.83	     7.000
  62.340         60.83	     8.544
  62.360         44.17	     7.280
  62.380         49.17	     7.681
  62.400         32.50	     6.245
  62.420         45.83	     7.416
  62.440         43.33	     7.211
  62.460         41.67	     7.071
  62.480         43.33	     7.211
  62.500         40.00	     6.928
  62.520         45.83	     7.416
  62.540         53.33	     8.000
  62.560         35.00	     6.481
  62.580         40.83	     7.000
  62.600         46.67	     7.483
  62.620         42.50	     7.141
  62.640         44.17	     7.280
  62.660         41.67	     7.071
  62.680         32.50	     6.245
  62.700         53.33	     8.000
  62.720         51.67	     7.874
  62.740         43.33	     7.211
  62.760         35.83	     6.557
  62.780         33.33	     6.325
  62.800         29.17	     5.916
  62.820         49.17	     7.681
  62.840         40.00	     6.928
  62.860         24.17	     5.385
  62.880         35.83	     6.557
  62.900         45.83	     7.416
  62.920         45.83	     7.416
  62.940         35.00	     6.481
  62.960         50.00	     7.746
  62.980         37.50	     6.708
  63.000         34.17	     6.403
  63.020         50.00	     7.746
  63.040         36.67	     6.633
  63.060         32.50	     6.245
  63.080         37.50	     6.708
  63.100         47.50	     7.550
  63.120         45.83	     7.416
  63.140         30.83	     6.083
  63.160         36.67	     6.633
  63.180         40.00	     6.928
  63.200         47.50	     7.550
  63.220         39.17	     6.856
  63.240         38.33	     6.782
  63.260         40.83	     7.000
  63.280         42.50	     7.141
  63.300         41.67	     7.071
  63.320         32.50	     6.245
  63.340         49.17	     7.681
  63.360         50.00	     7.746
  63.380         64.17	     8.775
  63.400         55.83	     8.185
  63.420         41.67	     7.071
  63.440         35.83	     6.557
  63.460         42.50	     7.141
  63.480         46.67	     7.483
  63.500         40.83	     7.000
  63.520         57.50	     8.307
  63.540         41.67	     7.071
  63.560         40.83	     7.000
  63.580         50.00	     7.746
  63.600         44.17	     7.280
  63.620         45.83	     7.416
  63.640         44.17	     7.280
  63.660         39.17	     6.856
  63.680         55.83	     8.185
  63.700         58.33	     8.367
  63.720         66.67	     8.944
  63.740         48.33	     7.616
  63.760         55.83	     8.185
  63.780         51.67	     7.874
  63.800         49.17	     7.681
  63.820         66.67	     8.944
  63.840         57.50	     8.307
  63.860         54.17	     8.062
  63.880         65.83	     8.888
  63.900         81.67	     9.899
  63.920         98.33	    10.863
  63.940        164.17	    14.036
  63.960        145.83	    13.229
  63.980        147.50	    13.304
  64.000        140.83	    13.000
  64.020        155.00	    13.638
  64.040        154.17	    13.601
  64.060        120.83	    12.042
  64.080        120.83	    12.042
  64.100         87.50	    10.247
  64.120        118.33	    11.916
  64.140        107.50	    11.358
  64.160        108.33	    11.402
  64.180        116.67	    11.832
  64.200        105.83	    11.269
  64.220        125.83	    12.288
  64.240         77.50	     9.644
  64.260         67.50	     9.000
  64.280         51.67	     7.874
  64.300         66.67	     8.944
  64.320         55.83	     8.185
  64.340         54.17	     8.062
  64.360         50.83	     7.810
  64.380         41.67	     7.071
  64.400         43.33	     7.211
  64.420         45.83	     7.416
  64.440         46.67	     7.483
  64.460         62.50	     8.660
  64.480         45.00	     7.348
  64.500         47.50	     7.550
  64.520         50.83	     7.810
  64.540         44.17	     7.280
  64.560         58.33	     8.367
  64.580         54.17	     8.062
  64.600         45.00	     7.348
  64.620         55.00	     8.124
  64.640         50.00	     7.746
  64.660         70.00	     9.165
  64.680         65.00	     8.832
  64.700         56.67	     8.246
  64.720         48.33	     7.616
  64.740         53.33	     8.000
  64.760         48.33	     7.616
  64.780         51.67	     7.874
  64.800         49.17	     7.681
  64.820         45.83	     7.416
  64.840         51.67	     7.874
  64.860         50.83	     7.810
  64.880         50.00	     7.746
  64.900         46.67	     7.483
  64.920         61.67	     8.602
  64.940         60.83	     8.544
  64.960         58.33	     8.367
  64.980         55.83	     8.185
  65.000         72.50	     9.327
