
Filename:
	C:\Program Files\Thermo Electron\WinXRD\Datafiles\F_HERMAN\GEO\G20_RT.raw

File Created:
	February 21, 2020 - 06:32 PM

Specimen Id:
	G20_RT

Specimen Name:
	

Specimen Description:
	

Comment:
Scan Type: 2Theta Scan
Start Angle: 3 deg.
Stop Angle: 65 deg.
Num Points: 3101
Step Size: 0.02 deg.
Scan Rate: 1.000000
Scan Mode: Continuous
Wavelength: 1.540562
\Kalpha1: 1.540562	\Kalpha2: 1.544390	\Kbeta: 1.392218

Optics:
		Detector:
			 Type: Fixed Slits
		Tube: 
			 Type: Fixed Slits


Datas:
 Pos [deg]       Rate [CPS]      ESD [-]

Range 1 ---> Iteration 1
   3.000        390.83	    21.656
   3.020        379.17	    21.331
   3.040        391.67	    21.679
   3.060        385.83	    21.517
   3.080        395.00	    21.772
   3.100        370.83	    21.095
   3.120        389.17	    21.610
   3.140        342.50	    20.273
   3.160        389.17	    21.610
   3.180        396.67	    21.817
   3.200        342.50	    20.273
   3.220        410.83	    22.204
   3.240        362.50	    20.857
   3.260        389.17	    21.610
   3.280        345.83	    20.372
   3.300        376.67	    21.260
   3.320        341.67	    20.248
   3.340        357.50	    20.712
   3.360        354.17	    20.616
   3.380        379.17	    21.331
   3.400        352.50	    20.567
   3.420        358.33	    20.736
   3.440        340.83	    20.224
   3.460        333.33	    20.000
   3.480        380.00	    21.354
   3.500        361.67	    20.833
   3.520        314.17	    19.416
   3.540        340.00	    20.199
   3.560        348.33	    20.445
   3.580        336.67	    20.100
   3.600        331.67	    19.950
   3.620        309.17	    19.261
   3.640        324.17	    19.723
   3.660        304.17	    19.105
   3.680        340.00	    20.199
   3.700        305.00	    19.131
   3.720        313.33	    19.391
   3.740        311.67	    19.339
   3.760        312.50	    19.365
   3.780        355.00	    20.640
   3.800        322.50	    19.672
   3.820        290.83	    18.682
   3.840        299.17	    18.947
   3.860        313.33	    19.391
   3.880        304.17	    19.105
   3.900        330.00	    19.900
   3.920        285.00	    18.493
   3.940        295.00	    18.815
   3.960        305.83	    19.157
   3.980        274.17	    18.138
   4.000        299.17	    18.947
   4.020        275.00	    18.166
   4.040        270.00	    18.000
   4.060        312.50	    19.365
   4.080        290.00	    18.655
   4.100        294.17	    18.788
   4.120        286.67	    18.547
   4.140        290.83	    18.682
   4.160        283.33	    18.439
   4.180        282.50	    18.412
   4.200        276.67	    18.221
   4.220        281.67	    18.385
   4.240        263.33	    17.776
   4.260        306.67	    19.183
   4.280        253.33	    17.436
   4.300        260.00	    17.664
   4.320        293.33	    18.762
   4.340        260.83	    17.692
   4.360        280.00	    18.330
   4.380        248.33	    17.263
   4.400        240.83	    17.000
   4.420        242.50	    17.059
   4.440        263.33	    17.776
   4.460        241.67	    17.029
   4.480        269.17	    17.972
   4.500        230.83	    16.643
   4.520        261.67	    17.720
   4.540        257.50	    17.578
   4.560        262.50	    17.748
   4.580        248.33	    17.263
   4.600        243.33	    17.088
   4.620        260.83	    17.692
   4.640        255.00	    17.493
   4.660        222.50	    16.340
   4.680        248.33	    17.263
   4.700        230.00	    16.613
   4.720        254.17	    17.464
   4.740        250.00	    17.321
   4.760        241.67	    17.029
   4.780        246.67	    17.205
   4.800        250.00	    17.321
   4.820        230.83	    16.643
   4.840        239.17	    16.941
   4.860        218.33	    16.186
   4.880        222.50	    16.340
   4.900        253.33	    17.436
   4.920        225.00	    16.432
   4.940        225.83	    16.462
   4.960        230.00	    16.613
   4.980        225.83	    16.462
   5.000        231.67	    16.673
   5.020        219.17	    16.217
   5.040        251.67	    17.378
   5.060        195.83	    15.330
   5.080        200.83	    15.524
   5.100        229.17	    16.583
   5.120        218.33	    16.186
   5.140        213.33	    16.000
   5.160        207.50	    15.780
   5.180        199.17	    15.460
   5.200        235.00	    16.793
   5.220        200.00	    15.492
   5.240        216.67	    16.125
   5.260        224.17	    16.401
   5.280        209.17	    15.843
   5.300        217.50	    16.155
   5.320        216.67	    16.125
   5.340        223.33	    16.371
   5.360        200.00	    15.492
   5.380        207.50	    15.780
   5.400        203.33	    15.620
   5.420        196.67	    15.362
   5.440        225.00	    16.432
   5.460        217.50	    16.155
   5.480        202.50	    15.588
   5.500        187.50	    15.000
   5.520        200.00	    15.492
   5.540        199.17	    15.460
   5.560        206.67	    15.748
   5.580        179.17	    14.663
   5.600        202.50	    15.588
   5.620        194.17	    15.264
   5.640        204.17	    15.652
   5.660        210.00	    15.875
   5.680        188.33	    15.033
   5.700        212.50	    15.969
   5.720        208.33	    15.811
   5.740        219.17	    16.217
   5.760        182.50	    14.799
   5.780        224.17	    16.401
   5.800        210.83	    15.906
   5.820        192.50	    15.199
   5.840        216.67	    16.125
   5.860        204.17	    15.652
   5.880        205.83	    15.716
   5.900        209.17	    15.843
   5.920        185.83	    14.933
   5.940        190.83	    15.133
   5.960        195.83	    15.330
   5.980        220.83	    16.279
   6.000        220.00	    16.248
   6.020        242.50	    17.059
   6.040        205.83	    15.716
   6.060        213.33	    16.000
   6.080        230.00	    16.613
   6.100        230.83	    16.643
   6.120        227.50	    16.523
   6.140        237.50	    16.882
   6.160        231.67	    16.673
   6.180        265.00	    17.833
   6.200        259.17	    17.635
   6.220        309.17	    19.261
   6.240        273.33	    18.111
   6.260        261.67	    17.720
   6.280        224.17	    16.401
   6.300        218.33	    16.186
   6.320        186.67	    14.967
   6.340        194.17	    15.264
   6.360        185.83	    14.933
   6.380        202.50	    15.588
   6.400        174.17	    14.457
   6.420        190.83	    15.133
   6.440        165.83	    14.107
   6.460        177.50	    14.595
   6.480        200.00	    15.492
   6.500        191.67	    15.166
   6.520        180.00	    14.697
   6.540        180.83	    14.731
   6.560        175.00	    14.491
   6.580        165.83	    14.107
   6.600        166.67	    14.142
   6.620        171.67	    14.353
   6.640        177.50	    14.595
   6.660        176.67	    14.560
   6.680        165.00	    14.071
   6.700        179.17	    14.663
   6.720        156.67	    13.711
   6.740        172.50	    14.387
   6.760        160.83	    13.892
   6.780        160.83	    13.892
   6.800        168.33	    14.213
   6.820        169.17	    14.248
   6.840        136.67	    12.806
   6.860        164.17	    14.036
   6.880        175.00	    14.491
   6.900        188.33	    15.033
   6.920        169.17	    14.248
   6.940        173.33	    14.422
   6.960        144.17	    13.153
   6.980        154.17	    13.601
   7.000        154.17	    13.601
   7.020        164.17	    14.036
   7.040        167.50	    14.177
   7.060        170.83	    14.318
   7.080        153.33	    13.565
   7.100        141.67	    13.038
   7.120        155.83	    13.675
   7.140        160.83	    13.892
   7.160        146.67	    13.266
   7.180        164.17	    14.036
   7.200        126.67	    12.329
   7.220        149.17	    13.379
   7.240        161.67	    13.928
   7.260        153.33	    13.565
   7.280        141.67	    13.038
   7.300        134.17	    12.689
   7.320        150.83	    13.454
   7.340        139.17	    12.923
   7.360        162.50	    13.964
   7.380        143.33	    13.115
   7.400        146.67	    13.266
   7.420        149.17	    13.379
   7.440        141.67	    13.038
   7.460        135.00	    12.728
   7.480        130.00	    12.490
   7.500        130.83	    12.530
   7.520        148.33	    13.342
   7.540        140.00	    12.961
   7.560        150.83	    13.454
   7.580        125.83	    12.288
   7.600        121.67	    12.083
   7.620        141.67	    13.038
   7.640        151.67	    13.491
   7.660        139.17	    12.923
   7.680        159.17	    13.820
   7.700        125.00	    12.247
   7.720        137.50	    12.845
   7.740        148.33	    13.342
   7.760        132.50	    12.610
   7.780        130.83	    12.530
   7.800        132.50	    12.610
   7.820        118.33	    11.916
   7.840        131.67	    12.570
   7.860        141.67	    13.038
   7.880        115.00	    11.747
   7.900        138.33	    12.884
   7.920        134.17	    12.689
   7.940        133.33	    12.649
   7.960        130.83	    12.530
   7.980        130.00	    12.490
   8.000        139.17	    12.923
   8.020        132.50	    12.610
   8.040        155.83	    13.675
   8.060        117.50	    11.874
   8.080        132.50	    12.610
   8.100        124.17	    12.207
   8.120        144.17	    13.153
   8.140        134.17	    12.689
   8.160        130.00	    12.490
   8.180        124.17	    12.207
   8.200        122.50	    12.124
   8.220        140.00	    12.961
   8.240        141.67	    13.038
   8.260        106.67	    11.314
   8.280        145.00	    13.191
   8.300        142.50	    13.077
   8.320        136.67	    12.806
   8.340        155.00	    13.638
   8.360        130.83	    12.530
   8.380        150.83	    13.454
   8.400        127.50	    12.369
   8.420        150.83	    13.454
   8.440        143.33	    13.115
   8.460        129.17	    12.450
   8.480        175.83	    14.526
   8.500        156.67	    13.711
   8.520        144.17	    13.153
   8.540        165.00	    14.071
   8.560        138.33	    12.884
   8.580        158.33	    13.784
   8.600        170.83	    14.318
   8.620        165.00	    14.071
   8.640        172.50	    14.387
   8.660        182.50	    14.799
   8.680        194.17	    15.264
   8.700        220.00	    16.248
   8.720        231.67	    16.673
   8.740        241.67	    17.029
   8.760        290.00	    18.655
   8.780        267.50	    17.916
   8.800        305.00	    19.131
   8.820        360.83	    20.809
   8.840        474.17	    23.854
   8.860        666.67	    28.284
   8.880        749.17	    29.983
   8.900        665.00	    28.249
   8.920        581.67	    26.420
   8.940        408.33	    22.136
   8.960        245.00	    17.146
   8.980        175.83	    14.526
   9.000        146.67	    13.266
   9.020        140.83	    13.000
   9.040        132.50	    12.610
   9.060        135.83	    12.767
   9.080        144.17	    13.153
   9.100        120.83	    12.042
   9.120        127.50	    12.369
   9.140        124.17	    12.207
   9.160        145.00	    13.191
   9.180        140.00	    12.961
   9.200        125.83	    12.288
   9.220        130.83	    12.530
   9.240        135.00	    12.728
   9.260        119.17	    11.958
   9.280        113.33	    11.662
   9.300        119.17	    11.958
   9.320        104.17	    11.180
   9.340        113.33	    11.662
   9.360        123.33	    12.166
   9.380        120.00	    12.000
   9.400        119.17	    11.958
   9.420        128.33	    12.410
   9.440        136.67	    12.806
   9.460        128.33	    12.410
   9.480        120.00	    12.000
   9.500        136.67	    12.806
   9.520        104.17	    11.180
   9.540        124.17	    12.207
   9.560         96.67	    10.770
   9.580        104.17	    11.180
   9.600        102.50	    11.091
   9.620        100.00	    10.954
   9.640        116.67	    11.832
   9.660        113.33	    11.662
   9.680         94.17	    10.630
   9.700         82.50	     9.950
   9.720        101.67	    11.045
   9.740        105.00	    11.225
   9.760         94.17	    10.630
   9.780        108.33	    11.402
   9.800         99.17	    10.909
   9.820         89.17	    10.344
   9.840        100.00	    10.954
   9.860         98.33	    10.863
   9.880        100.00	    10.954
   9.900         90.83	    10.440
   9.920         97.50	    10.817
   9.940         68.33	     9.055
   9.960        105.00	    11.225
   9.980        109.17	    11.446
  10.000         96.67	    10.770
  10.020         90.83	    10.440
  10.040         97.50	    10.817
  10.060         97.50	    10.817
  10.080        103.33	    11.136
  10.100         85.00	    10.100
  10.120        101.67	    11.045
  10.140        110.00	    11.489
  10.160         97.50	    10.817
  10.180         84.17	    10.050
  10.200         84.17	    10.050
  10.220         96.67	    10.770
  10.240         86.67	    10.198
  10.260         84.17	    10.050
  10.280         95.83	    10.724
  10.300         86.67	    10.198
  10.320         95.83	    10.724
  10.340         99.17	    10.909
  10.360         97.50	    10.817
  10.380         97.50	    10.817
  10.400        112.50	    11.619
  10.420        115.00	    11.747
  10.440         95.83	    10.724
  10.460         87.50	    10.247
  10.480         99.17	    10.909
  10.500        127.50	    12.369
  10.520        118.33	    11.916
  10.540        111.67	    11.576
  10.560        119.17	    11.958
  10.580        120.83	    12.042
  10.600        106.67	    11.314
  10.620        103.33	    11.136
  10.640        108.33	    11.402
  10.660         73.33	     9.381
  10.680         88.33	    10.296
  10.700         83.33	    10.000
  10.720         78.33	     9.695
  10.740         90.83	    10.440
  10.760         81.67	     9.899
  10.780        101.67	    11.045
  10.800         77.50	     9.644
  10.820         79.17	     9.747
  10.840         95.00	    10.677
  10.860         98.33	    10.863
  10.880         97.50	    10.817
  10.900         80.00	     9.798
  10.920        107.50	    11.358
  10.940         89.17	    10.344
  10.960         95.00	    10.677
  10.980         81.67	     9.899
  11.000         91.67	    10.488
  11.020         92.50	    10.536
  11.040         91.67	    10.488
  11.060         91.67	    10.488
  11.080         82.50	     9.950
  11.100         89.17	    10.344
  11.120         85.00	    10.100
  11.140         80.00	     9.798
  11.160         95.00	    10.677
  11.180         99.17	    10.909
  11.200         83.33	    10.000
  11.220         74.17	     9.434
  11.240         81.67	     9.899
  11.260         81.67	     9.899
  11.280         83.33	    10.000
  11.300         82.50	     9.950
  11.320         92.50	    10.536
  11.340         95.83	    10.724
  11.360         74.17	     9.434
  11.380         87.50	    10.247
  11.400         76.67	     9.592
  11.420         77.50	     9.644
  11.440         85.83	    10.149
  11.460         74.17	     9.434
  11.480         80.00	     9.798
  11.500         95.00	    10.677
  11.520         86.67	    10.198
  11.540         78.33	     9.695
  11.560         89.17	    10.344
  11.580         82.50	     9.950
  11.600         90.00	    10.392
  11.620         70.83	     9.220
  11.640         85.00	    10.100
  11.660         92.50	    10.536
  11.680        100.83	    11.000
  11.700         77.50	     9.644
  11.720         75.83	     9.539
  11.740         81.67	     9.899
  11.760         79.17	     9.747
  11.780         91.67	    10.488
  11.800         75.00	     9.487
  11.820         73.33	     9.381
  11.840         81.67	     9.899
  11.860         86.67	    10.198
  11.880         99.17	    10.909
  11.900         89.17	    10.344
  11.920         89.17	    10.344
  11.940         85.83	    10.149
  11.960         81.67	     9.899
  11.980         81.67	     9.899
  12.000        108.33	    11.402
  12.020        101.67	    11.045
  12.040         97.50	    10.817
  12.060        126.67	    12.329
  12.080        155.83	    13.675
  12.100        156.67	    13.711
  12.120        164.17	    14.036
  12.140        215.83	    16.093
  12.160        221.67	    16.310
  12.180        342.50	    20.273
  12.200        439.17	    22.956
  12.220        486.67	    24.166
  12.240        386.67	    21.541
  12.260        276.67	    18.221
  12.280        178.33	    14.629
  12.300        162.50	    13.964
  12.320        174.17	    14.457
  12.340        175.83	    14.526
  12.360        171.67	    14.353
  12.380        202.50	    15.588
  12.400        218.33	    16.186
  12.420        222.50	    16.340
  12.440        222.50	    16.340
  12.460        290.00	    18.655
  12.480        332.50	    19.975
  12.500        336.67	    20.100
  12.520        325.00	    19.748
  12.540        256.67	    17.550
  12.560        210.00	    15.875
  12.580        157.50	    13.748
  12.600        100.00	    10.954
  12.620         95.83	    10.724
  12.640        100.83	    11.000
  12.660         77.50	     9.644
  12.680         91.67	    10.488
  12.700         67.50	     9.000
  12.720         83.33	    10.000
  12.740         94.17	    10.630
  12.760         87.50	    10.247
  12.780         81.67	     9.899
  12.800         81.67	     9.899
  12.820         80.83	     9.849
  12.840         73.33	     9.381
  12.860         70.00	     9.165
  12.880         66.67	     8.944
  12.900         62.50	     8.660
  12.920         77.50	     9.644
  12.940         73.33	     9.381
  12.960         65.83	     8.888
  12.980         87.50	    10.247
  13.000         72.50	     9.327
  13.020         76.67	     9.592
  13.040         84.17	    10.050
  13.060         83.33	    10.000
  13.080         83.33	    10.000
  13.100         70.00	     9.165
  13.120         76.67	     9.592
  13.140         70.00	     9.165
  13.160         70.00	     9.165
  13.180         74.17	     9.434
  13.200         72.50	     9.327
  13.220         69.17	     9.110
  13.240         60.83	     8.544
  13.260         72.50	     9.327
  13.280         69.17	     9.110
  13.300         82.50	     9.950
  13.320         70.00	     9.165
  13.340         62.50	     8.660
  13.360         73.33	     9.381
  13.380         70.83	     9.220
  13.400         70.00	     9.165
  13.420         63.33	     8.718
  13.440         73.33	     9.381
  13.460         66.67	     8.944
  13.480         75.00	     9.487
  13.500         70.00	     9.165
  13.520         66.67	     8.944
  13.540         66.67	     8.944
  13.560         67.50	     9.000
  13.580         73.33	     9.381
  13.600         75.83	     9.539
  13.620         84.17	    10.050
  13.640         71.67	     9.274
  13.660         75.83	     9.539
  13.680         83.33	    10.000
  13.700         66.67	     8.944
  13.720         61.67	     8.602
  13.740         67.50	     9.000
  13.760         82.50	     9.950
  13.780         88.33	    10.296
  13.800         89.17	    10.344
  13.820         85.00	    10.100
  13.840         88.33	    10.296
  13.860         93.33	    10.583
  13.880         92.50	    10.536
  13.900         78.33	     9.695
  13.920         93.33	    10.583
  13.940         64.17	     8.775
  13.960         70.83	     9.220
  13.980         75.83	     9.539
  14.000         68.33	     9.055
  14.020         67.50	     9.000
  14.040         65.83	     8.888
  14.060         65.00	     8.832
  14.080         65.83	     8.888
  14.100         66.67	     8.944
  14.120         52.50	     7.937
  14.140         63.33	     8.718
  14.160         65.00	     8.832
  14.180         60.00	     8.485
  14.200         62.50	     8.660
  14.220         47.50	     7.550
  14.240         63.33	     8.718
  14.260         62.50	     8.660
  14.280         85.00	    10.100
  14.300         65.83	     8.888
  14.320         55.83	     8.185
  14.340         55.83	     8.185
  14.360         66.67	     8.944
  14.380         50.00	     7.746
  14.400         60.83	     8.544
  14.420         62.50	     8.660
  14.440         52.50	     7.937
  14.460         60.00	     8.485
  14.480         66.67	     8.944
  14.500         57.50	     8.307
  14.520         70.83	     9.220
  14.540         80.83	     9.849
  14.560         63.33	     8.718
  14.580         62.50	     8.660
  14.600         58.33	     8.367
  14.620         74.17	     9.434
  14.640         65.00	     8.832
  14.660         55.00	     8.124
  14.680         67.50	     9.000
  14.700         55.00	     8.124
  14.720         58.33	     8.367
  14.740         63.33	     8.718
  14.760         63.33	     8.718
  14.780         62.50	     8.660
  14.800         62.50	     8.660
  14.820         61.67	     8.602
  14.840         52.50	     7.937
  14.860         67.50	     9.000
  14.880         50.83	     7.810
  14.900         50.00	     7.746
  14.920         60.00	     8.485
  14.940         71.67	     9.274
  14.960         61.67	     8.602
  14.980         76.67	     9.592
  15.000         83.33	    10.000
  15.020         77.50	     9.644
  15.040         89.17	    10.344
  15.060         61.67	     8.602
  15.080         63.33	     8.718
  15.100         69.17	     9.110
  15.120         61.67	     8.602
  15.140         60.83	     8.544
  15.160         53.33	     8.000
  15.180         64.17	     8.775
  15.200         59.17	     8.426
  15.220         62.50	     8.660
  15.240         45.00	     7.348
  15.260         65.83	     8.888
  15.280         48.33	     7.616
  15.300         50.00	     7.746
  15.320         52.50	     7.937
  15.340         56.67	     8.246
  15.360         50.83	     7.810
  15.380         57.50	     8.307
  15.400         59.17	     8.426
  15.420         50.00	     7.746
  15.440         48.33	     7.616
  15.460         54.17	     8.062
  15.480         71.67	     9.274
  15.500         66.67	     8.944
  15.520         47.50	     7.550
  15.540         67.50	     9.000
  15.560         65.00	     8.832
  15.580         64.17	     8.775
  15.600         68.33	     9.055
  15.620         65.00	     8.832
  15.640         47.50	     7.550
  15.660         64.17	     8.775
  15.680         57.50	     8.307
  15.700         65.83	     8.888
  15.720         54.17	     8.062
  15.740         50.00	     7.746
  15.760         63.33	     8.718
  15.780         54.17	     8.062
  15.800         64.17	     8.775
  15.820         56.67	     8.246
  15.840         65.00	     8.832
  15.860         62.50	     8.660
  15.880         50.00	     7.746
  15.900         67.50	     9.000
  15.920         57.50	     8.307
  15.940         54.17	     8.062
  15.960         50.83	     7.810
  15.980         61.67	     8.602
  16.000         60.83	     8.544
  16.020         71.67	     9.274
  16.040         52.50	     7.937
  16.060         53.33	     8.000
  16.080         59.17	     8.426
  16.100         50.00	     7.746
  16.120         45.00	     7.348
  16.140         53.33	     8.000
  16.160         57.50	     8.307
  16.180         55.83	     8.185
  16.200         60.83	     8.544
  16.220         56.67	     8.246
  16.240         54.17	     8.062
  16.260         57.50	     8.307
  16.280         53.33	     8.000
  16.300         70.00	     9.165
  16.320         48.33	     7.616
  16.340         62.50	     8.660
  16.360         67.50	     9.000
  16.380         50.00	     7.746
  16.400         58.33	     8.367
  16.420         51.67	     7.874
  16.440         58.33	     8.367
  16.460         57.50	     8.307
  16.480         55.00	     8.124
  16.500         75.83	     9.539
  16.520         60.00	     8.485
  16.540         50.83	     7.810
  16.560         58.33	     8.367
  16.580         55.00	     8.124
  16.600         48.33	     7.616
  16.620         48.33	     7.616
  16.640         43.33	     7.211
  16.660         60.00	     8.485
  16.680         55.00	     8.124
  16.700         41.67	     7.071
  16.720         54.17	     8.062
  16.740         58.33	     8.367
  16.760         41.67	     7.071
  16.780         55.83	     8.185
  16.800         43.33	     7.211
  16.820         45.83	     7.416
  16.840         41.67	     7.071
  16.860         60.83	     8.544
  16.880         55.00	     8.124
  16.900         55.83	     8.185
  16.920         41.67	     7.071
  16.940         60.83	     8.544
  16.960         55.00	     8.124
  16.980         60.00	     8.485
  17.000         55.83	     8.185
  17.020         60.00	     8.485
  17.040         45.00	     7.348
  17.060         53.33	     8.000
  17.080         54.17	     8.062
  17.100         58.33	     8.367
  17.120         51.67	     7.874
  17.140         57.50	     8.307
  17.160         35.83	     6.557
  17.180         48.33	     7.616
  17.200         55.00	     8.124
  17.220         61.67	     8.602
  17.240         58.33	     8.367
  17.260         54.17	     8.062
  17.280         40.83	     7.000
  17.300         47.50	     7.550
  17.320         55.00	     8.124
  17.340         64.17	     8.775
  17.360         65.83	     8.888
  17.380         64.17	     8.775
  17.400         55.00	     8.124
  17.420         60.00	     8.485
  17.440         61.67	     8.602
  17.460         66.67	     8.944
  17.480         55.00	     8.124
  17.500         55.00	     8.124
  17.520         59.17	     8.426
  17.540         40.83	     7.000
  17.560         53.33	     8.000
  17.580         64.17	     8.775
  17.600         72.50	     9.327
  17.620         81.67	     9.899
  17.640         64.17	     8.775
  17.660         69.17	     9.110
  17.680         60.83	     8.544
  17.700         86.67	    10.198
  17.720        112.50	    11.619
  17.740        116.67	    11.832
  17.760        150.83	    13.454
  17.780        212.50	    15.969
  17.800        240.00	    16.971
  17.820        238.33	    16.912
  17.840        245.00	    17.146
  17.860        231.67	    16.673
  17.880        180.00	    14.697
  17.900        117.50	    11.874
  17.920        113.33	    11.662
  17.940         71.67	     9.274
  17.960         72.50	     9.327
  17.980         70.83	     9.220
  18.000         63.33	     8.718
  18.020         55.83	     8.185
  18.040         55.00	     8.124
  18.060         53.33	     8.000
  18.080         48.33	     7.616
  18.100         56.67	     8.246
  18.120         56.67	     8.246
  18.140         52.50	     7.937
  18.160         52.50	     7.937
  18.180         55.83	     8.185
  18.200         57.50	     8.307
  18.220         50.00	     7.746
  18.240         53.33	     8.000
  18.260         55.00	     8.124
  18.280         50.83	     7.810
  18.300         65.83	     8.888
  18.320         69.17	     9.110
  18.340         55.83	     8.185
  18.360         55.83	     8.185
  18.380         73.33	     9.381
  18.400         65.83	     8.888
  18.420         70.00	     9.165
  18.440         75.00	     9.487
  18.460         73.33	     9.381
  18.480         68.33	     9.055
  18.500         77.50	     9.644
  18.520         71.67	     9.274
  18.540         84.17	    10.050
  18.560         86.67	    10.198
  18.580         75.83	     9.539
  18.600         86.67	    10.198
  18.620         98.33	    10.863
  18.640         96.67	    10.770
  18.660         94.17	    10.630
  18.680         93.33	    10.583
  18.700         95.83	    10.724
  18.720        110.83	    11.533
  18.740        108.33	    11.402
  18.760        155.00	    13.638
  18.780        140.83	    13.000
  18.800        153.33	    13.565
  18.820        130.83	    12.530
  18.840        120.00	    12.000
  18.860        100.83	    11.000
  18.880        104.17	    11.180
  18.900         77.50	     9.644
  18.920         69.17	     9.110
  18.940         64.17	     8.775
  18.960         62.50	     8.660
  18.980         62.50	     8.660
  19.000         55.83	     8.185
  19.020         61.67	     8.602
  19.040         44.17	     7.280
  19.060         61.67	     8.602
  19.080         50.00	     7.746
  19.100         58.33	     8.367
  19.120         67.50	     9.000
  19.140         61.67	     8.602
  19.160         60.83	     8.544
  19.180         70.00	     9.165
  19.200         63.33	     8.718
  19.220         60.00	     8.485
  19.240         60.00	     8.485
  19.260         65.00	     8.832
  19.280         68.33	     9.055
  19.300         68.33	     9.055
  19.320         70.83	     9.220
  19.340         60.00	     8.485
  19.360         52.50	     7.937
  19.380         55.83	     8.185
  19.400         64.17	     8.775
  19.420         74.17	     9.434
  19.440         58.33	     8.367
  19.460         48.33	     7.616
  19.480         51.67	     7.874
  19.500         65.00	     8.832
  19.520         82.50	     9.950
  19.540         59.17	     8.426
  19.560         61.67	     8.602
  19.580         59.17	     8.426
  19.600         53.33	     8.000
  19.620         65.83	     8.888
  19.640         89.17	    10.344
  19.660         56.67	     8.246
  19.680         73.33	     9.381
  19.700         81.67	     9.899
  19.720         87.50	    10.247
  19.740         79.17	     9.747
  19.760         85.00	    10.100
  19.780         95.83	    10.724
  19.800         97.50	    10.817
  19.820         92.50	    10.536
  19.840         99.17	    10.909
  19.860        100.83	    11.000
  19.880         76.67	     9.592
  19.900         90.00	    10.392
  19.920         89.17	    10.344
  19.940         91.67	    10.488
  19.960         67.50	     9.000
  19.980         71.67	     9.274
  20.000         70.83	     9.220
  20.020         48.33	     7.616
  20.040         59.17	     8.426
  20.060         69.17	     9.110
  20.080         62.50	     8.660
  20.100         52.50	     7.937
  20.120         55.00	     8.124
  20.140         60.83	     8.544
  20.160         45.83	     7.416
  20.180         62.50	     8.660
  20.200         50.83	     7.810
  20.220         59.17	     8.426
  20.240         55.00	     8.124
  20.260         54.17	     8.062
  20.280         57.50	     8.307
  20.300         57.50	     8.307
  20.320         54.17	     8.062
  20.340         36.67	     6.633
  20.360         60.83	     8.544
  20.380         60.83	     8.544
  20.400         54.17	     8.062
  20.420         57.50	     8.307
  20.440         60.00	     8.485
  20.460         55.00	     8.124
  20.480         50.00	     7.746
  20.500         55.00	     8.124
  20.520         50.00	     7.746
  20.540         55.83	     8.185
  20.560         61.67	     8.602
  20.580         58.33	     8.367
  20.600         55.00	     8.124
  20.620         65.83	     8.888
  20.640         63.33	     8.718
  20.660         69.17	     9.110
  20.680         73.33	     9.381
  20.700         65.00	     8.832
  20.720         68.33	     9.055
  20.740         83.33	    10.000
  20.760        104.17	    11.180
  20.780        141.67	    13.038
  20.800        217.50	    16.155
  20.820        300.83	    19.000
  20.840        415.00	    22.316
  20.860        532.50	    25.278
  20.880        522.50	    25.040
  20.900        398.33	    21.863
  20.920        339.17	    20.174
  20.940        211.67	    15.937
  20.960        163.33	    14.000
  20.980        110.00	    11.489
  21.000        107.50	    11.358
  21.020        130.00	    12.490
  21.040        116.67	    11.832
  21.060        115.83	    11.790
  21.080         97.50	    10.817
  21.100         76.67	     9.592
  21.120         65.83	     8.888
  21.140         57.50	     8.307
  21.160         50.83	     7.810
  21.180         56.67	     8.246
  21.200         65.00	     8.832
  21.220         67.50	     9.000
  21.240         57.50	     8.307
  21.260         58.33	     8.367
  21.280         50.00	     7.746
  21.300         58.33	     8.367
  21.320         55.00	     8.124
  21.340         55.00	     8.124
  21.360         41.67	     7.071
  21.380         40.00	     6.928
  21.400         52.50	     7.937
  21.420         58.33	     8.367
  21.440         48.33	     7.616
  21.460         44.17	     7.280
  21.480         56.67	     8.246
  21.500         44.17	     7.280
  21.520         54.17	     8.062
  21.540         61.67	     8.602
  21.560         50.00	     7.746
  21.580         50.00	     7.746
  21.600         63.33	     8.718
  21.620         45.83	     7.416
  21.640         46.67	     7.483
  21.660         59.17	     8.426
  21.680         57.50	     8.307
  21.700         55.00	     8.124
  21.720         54.17	     8.062
  21.740         55.00	     8.124
  21.760         41.67	     7.071
  21.780         51.67	     7.874
  21.800         40.83	     7.000
  21.820         55.00	     8.124
  21.840         67.50	     9.000
  21.860         60.00	     8.485
  21.880         51.67	     7.874
  21.900         54.17	     8.062
  21.920         55.00	     8.124
  21.940         77.50	     9.644
  21.960         71.67	     9.274
  21.980         84.17	    10.050
  22.000         99.17	    10.909
  22.020        125.83	    12.288
  22.040        151.67	    13.491
  22.060        164.17	    14.036
  22.080        152.50	    13.528
  22.100        114.17	    11.705
  22.120        109.17	    11.446
  22.140         81.67	     9.899
  22.160         67.50	     9.000
  22.180         70.00	     9.165
  22.200         57.50	     8.307
  22.220         53.33	     8.000
  22.240         43.33	     7.211
  22.260         51.67	     7.874
  22.280         42.50	     7.141
  22.300         60.00	     8.485
  22.320         55.00	     8.124
  22.340         62.50	     8.660
  22.360         60.83	     8.544
  22.380         69.17	     9.110
  22.400         60.00	     8.485
  22.420         61.67	     8.602
  22.440         54.17	     8.062
  22.460         56.67	     8.246
  22.480         48.33	     7.616
  22.500         74.17	     9.434
  22.520         60.00	     8.485
  22.540         70.00	     9.165
  22.560         45.83	     7.416
  22.580         63.33	     8.718
  22.600         50.00	     7.746
  22.620         49.17	     7.681
  22.640         45.00	     7.348
  22.660         54.17	     8.062
  22.680         42.50	     7.141
  22.700         50.00	     7.746
  22.720         63.33	     8.718
  22.740         65.00	     8.832
  22.760         48.33	     7.616
  22.780         52.50	     7.937
  22.800         59.17	     8.426
  22.820         54.17	     8.062
  22.840         70.83	     9.220
  22.860         77.50	     9.644
  22.880         66.67	     8.944
  22.900         87.50	    10.247
  22.920         82.50	     9.950
  22.940         71.67	     9.274
  22.960         79.17	     9.747
  22.980         79.17	     9.747
  23.000         76.67	     9.592
  23.020        110.00	    11.489
  23.040        117.50	    11.874
  23.060         98.33	    10.863
  23.080         92.50	    10.536
  23.100        118.33	    11.916
  23.120         93.33	    10.583
  23.140         86.67	    10.198
  23.160         72.50	     9.327
  23.180         66.67	     8.944
  23.200         54.17	     8.062
  23.220         55.00	     8.124
  23.240         53.33	     8.000
  23.260         59.17	     8.426
  23.280         43.33	     7.211
  23.300         55.83	     8.185
  23.320         60.00	     8.485
  23.340         63.33	     8.718
  23.360         51.67	     7.874
  23.380         55.83	     8.185
  23.400         62.50	     8.660
  23.420         65.83	     8.888
  23.440         58.33	     8.367
  23.460         65.00	     8.832
  23.480        127.50	    12.369
  23.500        227.50	    16.523
  23.520        263.33	    17.776
  23.540        232.50	    16.703
  23.560        214.17	    16.031
  23.580        201.67	    15.556
  23.600        136.67	    12.806
  23.620        107.50	    11.358
  23.640         85.83	    10.149
  23.660         80.83	     9.849
  23.680         81.67	     9.899
  23.700         81.67	     9.899
  23.720         70.00	     9.165
  23.740         71.67	     9.274
  23.760         61.67	     8.602
  23.780         65.83	     8.888
  23.800         72.50	     9.327
  23.820         75.00	     9.487
  23.840         78.33	     9.695
  23.860         72.50	     9.327
  23.880         69.17	     9.110
  23.900         54.17	     8.062
  23.920         73.33	     9.381
  23.940         64.17	     8.775
  23.960         61.67	     8.602
  23.980         73.33	     9.381
  24.000         66.67	     8.944
  24.020         75.00	     9.487
  24.040         89.17	    10.344
  24.060         90.00	    10.392
  24.080         91.67	    10.488
  24.100         69.17	     9.110
  24.120         98.33	    10.863
  24.140         90.83	    10.440
  24.160        108.33	    11.402
  24.180        116.67	    11.832
  24.200         96.67	    10.770
  24.220        118.33	    11.916
  24.240        120.00	    12.000
  24.260        120.83	    12.042
  24.280        130.83	    12.530
  24.300        163.33	    14.000
  24.320        175.00	    14.491
  24.340        193.33	    15.232
  24.360        158.33	    13.784
  24.380        136.67	    12.806
  24.400        118.33	    11.916
  24.420        100.83	    11.000
  24.440         92.50	    10.536
  24.460         82.50	     9.950
  24.480        100.83	    11.000
  24.500        126.67	    12.329
  24.520        164.17	    14.036
  24.540        185.83	    14.933
  24.560        221.67	    16.310
  24.580        264.17	    17.804
  24.600        250.83	    17.349
  24.620        221.67	    16.310
  24.640        246.67	    17.205
  24.660        190.00	    15.100
  24.680        170.00	    14.283
  24.700        156.67	    13.711
  24.720        143.33	    13.115
  24.740        125.00	    12.247
  24.760         99.17	    10.909
  24.780        105.00	    11.225
  24.800        114.17	    11.705
  24.820         89.17	    10.344
  24.840        115.00	    11.747
  24.860         95.83	    10.724
  24.880        111.67	    11.576
  24.900        135.00	    12.728
  24.920        119.17	    11.958
  24.940        120.00	    12.000
  24.960        125.83	    12.288
  24.980         95.00	    10.677
  25.000        111.67	    11.576
  25.020        108.33	    11.402
  25.040        103.33	    11.136
  25.060        137.50	    12.845
  25.080        161.67	    13.928
  25.100        196.67	    15.362
  25.120        228.33	    16.553
  25.140        232.50	    16.703
  25.160        250.83	    17.349
  25.180        284.17	    18.466
  25.200        227.50	    16.523
  25.220        197.50	    15.395
  25.240        191.67	    15.166
  25.260        153.33	    13.565
  25.280        105.83	    11.269
  25.300         96.67	    10.770
  25.320         87.50	    10.247
  25.340         91.67	    10.488
  25.360         95.00	    10.677
  25.380         85.83	    10.149
  25.400        117.50	    11.874
  25.420        116.67	    11.832
  25.440        138.33	    12.884
  25.460        122.50	    12.124
  25.480        142.50	    13.077
  25.500        158.33	    13.784
  25.520        173.33	    14.422
  25.540        164.17	    14.036
  25.560        128.33	    12.410
  25.580        121.67	    12.083
  25.600        116.67	    11.832
  25.620        118.33	    11.916
  25.640        125.00	    12.247
  25.660        125.00	    12.247
  25.680        104.17	    11.180
  25.700        101.67	    11.045
  25.720         87.50	    10.247
  25.740         82.50	     9.950
  25.760         82.50	     9.950
  25.780         67.50	     9.000
  25.800         80.83	     9.849
  25.820         53.33	     8.000
  25.840         68.33	     9.055
  25.860         57.50	     8.307
  25.880         70.00	     9.165
  25.900         68.33	     9.055
  25.920         72.50	     9.327
  25.940         56.67	     8.246
  25.960         70.00	     9.165
  25.980         69.17	     9.110
  26.000         62.50	     8.660
  26.020         80.00	     9.798
  26.040         49.17	     7.681
  26.060         70.83	     9.220
  26.080         62.50	     8.660
  26.100         57.50	     8.307
  26.120         70.00	     9.165
  26.140         60.00	     8.485
  26.160         86.67	    10.198
  26.180         70.00	     9.165
  26.200         69.17	     9.110
  26.220         83.33	    10.000
  26.240         90.83	    10.440
  26.260         87.50	    10.247
  26.280        103.33	    11.136
  26.300         95.00	    10.677
  26.320         99.17	    10.909
  26.340        110.00	    11.489
  26.360        131.67	    12.570
  26.380        130.00	    12.490
  26.400        180.83	    14.731
  26.420        173.33	    14.422
  26.440        202.50	    15.588
  26.460        190.00	    15.100
  26.480        232.50	    16.703
  26.500        250.83	    17.349
  26.520        291.67	    18.708
  26.540        376.67	    21.260
  26.560        500.00	    24.495
  26.580        855.83	    32.047
  26.600       1486.67	    42.237
  26.620       2465.83	    54.397
  26.640       3443.33	    64.281
  26.660       3397.50	    63.851
  26.680       2648.33	    56.374
  26.700       2112.50	    50.349
  26.720       1880.00	    47.497
  26.740       1383.33	    40.743
  26.760        745.00	    29.900
  26.780        541.67	    25.495
  26.800        479.17	    23.979
  26.820        515.83	    24.880
  26.840        549.17	    25.671
  26.860        624.17	    27.368
  26.880        679.17	    28.548
  26.900        653.33	    28.000
  26.920        576.67	    26.306
  26.940        496.67	    24.413
  26.960        380.83	    21.378
  26.980        359.17	    20.761
  27.000        277.50	    18.248
  27.020        199.17	    15.460
  27.040        176.67	    14.560
  27.060        151.67	    13.491
  27.080        165.00	    14.071
  27.100        150.00	    13.416
  27.120        116.67	    11.832
  27.140        105.83	    11.269
  27.160        115.83	    11.790
  27.180        113.33	    11.662
  27.200         83.33	    10.000
  27.220         71.67	     9.274
  27.240         92.50	    10.536
  27.260         92.50	    10.536
  27.280         73.33	     9.381
  27.300         84.17	    10.050
  27.320         70.83	     9.220
  27.340         77.50	     9.644
  27.360         73.33	     9.381
  27.380         71.67	     9.274
  27.400         91.67	    10.488
  27.420         92.50	    10.536
  27.440         84.17	    10.050
  27.460        110.00	    11.489
  27.480        114.17	    11.705
  27.500        118.33	    11.916
  27.520        144.17	    13.153
  27.540        130.00	    12.490
  27.560        120.83	    12.042
  27.580        145.00	    13.191
  27.600        118.33	    11.916
  27.620        140.00	    12.961
  27.640        118.33	    11.916
  27.660        137.50	    12.845
  27.680        193.33	    15.232
  27.700        339.17	    20.174
  27.720        580.00	    26.382
  27.740        631.67	    27.532
  27.760        504.17	    24.597
  27.780        512.50	    24.799
  27.800        558.33	    25.884
  27.820        461.67	    23.537
  27.840        365.00	    20.928
  27.860        346.67	    20.396
  27.880        512.50	    24.799
  27.900        718.33	    29.360
  27.920        632.50	    27.550
  27.940        593.33	    26.683
  27.960        579.17	    26.363
  27.980        507.50	    24.678
  28.000        410.00	    22.181
  28.020        283.33	    18.439
  28.040        209.17	    15.843
  28.060        155.83	    13.675
  28.080        172.50	    14.387
  28.100        140.00	    12.961
  28.120        145.83	    13.229
  28.140        130.83	    12.530
  28.160        122.50	    12.124
  28.180        100.83	    11.000
  28.200        125.83	    12.288
  28.220        115.83	    11.790
  28.240        128.33	    12.410
  28.260        121.67	    12.083
  28.280        108.33	    11.402
  28.300        116.67	    11.832
  28.320        115.00	    11.747
  28.340         98.33	    10.863
  28.360         76.67	     9.592
  28.380         90.83	    10.440
  28.400         69.17	     9.110
  28.420         70.00	     9.165
  28.440         75.00	     9.487
  28.460         80.00	     9.798
  28.480         64.17	     8.775
  28.500         70.00	     9.165
  28.520         94.17	    10.630
  28.540         79.17	     9.747
  28.560         84.17	    10.050
  28.580        100.83	    11.000
  28.600         97.50	    10.817
  28.620         94.17	    10.630
  28.640        103.33	    11.136
  28.660         81.67	     9.899
  28.680         94.17	    10.630
  28.700         93.33	    10.583
  28.720         70.00	     9.165
  28.740         65.83	     8.888
  28.760         78.33	     9.695
  28.780         66.67	     8.944
  28.800         67.50	     9.000
  28.820         62.50	     8.660
  28.840         50.83	     7.810
  28.860         58.33	     8.367
  28.880         52.50	     7.937
  28.900         48.33	     7.616
  28.920         55.83	     8.185
  28.940         54.17	     8.062
  28.960         57.50	     8.307
  28.980         46.67	     7.483
  29.000         35.83	     6.557
  29.020         59.17	     8.426
  29.040         61.67	     8.602
  29.060         45.83	     7.416
  29.080         54.17	     8.062
  29.100         41.67	     7.071
  29.120         40.83	     7.000
  29.140         48.33	     7.616
  29.160         43.33	     7.211
  29.180         47.50	     7.550
  29.200         44.17	     7.280
  29.220         55.00	     8.124
  29.240         50.83	     7.810
  29.260         50.00	     7.746
  29.280         46.67	     7.483
  29.300         49.17	     7.681
  29.320         49.17	     7.681
  29.340         40.00	     6.928
  29.360         45.00	     7.348
  29.380         43.33	     7.211
  29.400         38.33	     6.782
  29.420         50.00	     7.746
  29.440         49.17	     7.681
  29.460         44.17	     7.280
  29.480         40.83	     7.000
  29.500         58.33	     8.367
  29.520         49.17	     7.681
  29.540         52.50	     7.937
  29.560         50.83	     7.810
  29.580         54.17	     8.062
  29.600         64.17	     8.775
  29.620         58.33	     8.367
  29.640         65.00	     8.832
  29.660         54.17	     8.062
  29.680         58.33	     8.367
  29.700         58.33	     8.367
  29.720         63.33	     8.718
  29.740         71.67	     9.274
  29.760         92.50	    10.536
  29.780         90.83	    10.440
  29.800         79.17	     9.747
  29.820        111.67	    11.576
  29.840        143.33	    13.115
  29.860        125.00	    12.247
  29.880        137.50	    12.845
  29.900        107.50	    11.358
  29.920        122.50	    12.124
  29.940        101.67	    11.045
  29.960        110.00	    11.489
  29.980        107.50	    11.358
  30.000         82.50	     9.950
  30.020         81.67	     9.899
  30.040         78.33	     9.695
  30.060         96.67	    10.770
  30.080         97.50	    10.817
  30.100        105.00	    11.225
  30.120         95.83	    10.724
  30.140        107.50	    11.358
  30.160         95.83	    10.724
  30.180        105.83	    11.269
  30.200         85.00	    10.100
  30.220        100.83	    11.000
  30.240         94.17	    10.630
  30.260        115.83	    11.790
  30.280         74.17	     9.434
  30.300         91.67	    10.488
  30.320         82.50	     9.950
  30.340         77.50	     9.644
  30.360         88.33	    10.296
  30.380         80.00	     9.798
  30.400         71.67	     9.274
  30.420         87.50	    10.247
  30.440         94.17	    10.630
  30.460         93.33	    10.583
  30.480        112.50	    11.619
  30.500        130.83	    12.530
  30.520        173.33	    14.422
  30.540        147.50	    13.304
  30.560         93.33	    10.583
  30.580        108.33	    11.402
  30.600        139.17	    12.923
  30.620         97.50	    10.817
  30.640         65.00	     8.832
  30.660         61.67	     8.602
  30.680         63.33	     8.718
  30.700         60.83	     8.544
  30.720         73.33	     9.381
  30.740         52.50	     7.937
  30.760         73.33	     9.381
  30.780         85.00	    10.100
  30.800        106.67	    11.314
  30.820        127.50	    12.369
  30.840        191.67	    15.166
  30.860        252.50	    17.407
  30.880        243.33	    17.088
  30.900        198.33	    15.427
  30.920        190.83	    15.133
  30.940        160.00	    13.856
  30.960        151.67	    13.491
  30.980        114.17	    11.705
  31.000         86.67	    10.198
  31.020         66.67	     8.944
  31.040         66.67	     8.944
  31.060         60.00	     8.485
  31.080         72.50	     9.327
  31.100         66.67	     8.944
  31.120         62.50	     8.660
  31.140         65.00	     8.832
  31.160        100.83	    11.000
  31.180        122.50	    12.124
  31.200        139.17	    12.923
  31.220        146.67	    13.266
  31.240        126.67	    12.329
  31.260        127.50	    12.369
  31.280        137.50	    12.845
  31.300        110.83	    11.533
  31.320        121.67	    12.083
  31.340         90.83	    10.440
  31.360         90.83	    10.440
  31.380         80.83	     9.849
  31.400         77.50	     9.644
  31.420         74.17	     9.434
  31.440         57.50	     8.307
  31.460         73.33	     9.381
  31.480         60.83	     8.544
  31.500         60.00	     8.485
  31.520         62.50	     8.660
  31.540         70.83	     9.220
  31.560         75.00	     9.487
  31.580         82.50	     9.950
  31.600         76.67	     9.592
  31.620         73.33	     9.381
  31.640         78.33	     9.695
  31.660         72.50	     9.327
  31.680         75.00	     9.487
  31.700         66.67	     8.944
  31.720         52.50	     7.937
  31.740         52.50	     7.937
  31.760         56.67	     8.246
  31.780         38.33	     6.782
  31.800         42.50	     7.141
  31.820         55.83	     8.185
  31.840         54.17	     8.062
  31.860         60.83	     8.544
  31.880         63.33	     8.718
  31.900         55.83	     8.185
  31.920         50.00	     7.746
  31.940         50.83	     7.810
  31.960         51.67	     7.874
  31.980         63.33	     8.718
  32.000         65.83	     8.888
  32.020         65.00	     8.832
  32.040         60.83	     8.544
  32.060         96.67	    10.770
  32.080         84.17	    10.050
  32.100         74.17	     9.434
  32.120         81.67	     9.899
  32.140        101.67	    11.045
  32.160        102.50	    11.091
  32.180         73.33	     9.381
  32.200         90.83	    10.440
  32.220         69.17	     9.110
  32.240         65.83	     8.888
  32.260         75.00	     9.487
  32.280         63.33	     8.718
  32.300         55.83	     8.185
  32.320         59.17	     8.426
  32.340         58.33	     8.367
  32.360         45.83	     7.416
  32.380         56.67	     8.246
  32.400         40.00	     6.928
  32.420         50.83	     7.810
  32.440         47.50	     7.550
  32.460         43.33	     7.211
  32.480         46.67	     7.483
  32.500         33.33	     6.325
  32.520         45.00	     7.348
  32.540         40.83	     7.000
  32.560         38.33	     6.782
  32.580         42.50	     7.141
  32.600         43.33	     7.211
  32.620         34.17	     6.403
  32.640         30.83	     6.083
  32.660         37.50	     6.708
  32.680         35.00	     6.481
  32.700         54.17	     8.062
  32.720         57.50	     8.307
  32.740         44.17	     7.280
  32.760         50.83	     7.810
  32.780         39.17	     6.856
  32.800         40.00	     6.928
  32.820         57.50	     8.307
  32.840         32.50	     6.245
  32.860         55.00	     8.124
  32.880         50.00	     7.746
  32.900         49.17	     7.681
  32.920         48.33	     7.616
  32.940         51.67	     7.874
  32.960         50.00	     7.746
  32.980         57.50	     8.307
  33.000         60.00	     8.485
  33.020         50.83	     7.810
  33.040         51.67	     7.874
  33.060         70.00	     9.165
  33.080         50.83	     7.810
  33.100         57.50	     8.307
  33.120         63.33	     8.718
  33.140         55.00	     8.124
  33.160         60.83	     8.544
  33.180         49.17	     7.681
  33.200         55.83	     8.185
  33.220         41.67	     7.071
  33.240         55.00	     8.124
  33.260         40.83	     7.000
  33.280         36.67	     6.633
  33.300         42.50	     7.141
  33.320         46.67	     7.483
  33.340         32.50	     6.245
  33.360         46.67	     7.483
  33.380         50.00	     7.746
  33.400         46.67	     7.483
  33.420         36.67	     6.633
  33.440         55.83	     8.185
  33.460         41.67	     7.071
  33.480         40.83	     7.000
  33.500         38.33	     6.782
  33.520         41.67	     7.071
  33.540         55.00	     8.124
  33.560         31.67	     6.164
  33.580         41.67	     7.071
  33.600         40.00	     6.928
  33.620         36.67	     6.633
  33.640         47.50	     7.550
  33.660         44.17	     7.280
  33.680         28.33	     5.831
  33.700         39.17	     6.856
  33.720         36.67	     6.633
  33.740         33.33	     6.325
  33.760         38.33	     6.782
  33.780         39.17	     6.856
  33.800         45.00	     7.348
  33.820         45.00	     7.348
  33.840         50.00	     7.746
  33.860         60.00	     8.485
  33.880         64.17	     8.775
  33.900         75.83	     9.539
  33.920         61.67	     8.602
  33.940         51.67	     7.874
  33.960         65.00	     8.832
  33.980         65.00	     8.832
  34.000         52.50	     7.937
  34.020         60.83	     8.544
  34.040         68.33	     9.055
  34.060         53.33	     8.000
  34.080         56.67	     8.246
  34.100         54.17	     8.062
  34.120         67.50	     9.000
  34.140         60.83	     8.544
  34.160         60.83	     8.544
  34.180         59.17	     8.426
  34.200         54.17	     8.062
  34.220         58.33	     8.367
  34.240         46.67	     7.483
  34.260         55.83	     8.185
  34.280         54.17	     8.062
  34.300         45.83	     7.416
  34.320         66.67	     8.944
  34.340         50.83	     7.810
  34.360         60.83	     8.544
  34.380         80.83	     9.849
  34.400         73.33	     9.381
  34.420         83.33	    10.000
  34.440         83.33	    10.000
  34.460         74.17	     9.434
  34.480         90.00	    10.392
  34.500         90.83	    10.440
  34.520         80.83	     9.849
  34.540         92.50	    10.536
  34.560        108.33	    11.402
  34.580        115.00	    11.747
  34.600         96.67	    10.770
  34.620         85.83	    10.149
  34.640        119.17	    11.958
  34.660         79.17	     9.747
  34.680         83.33	    10.000
  34.700         64.17	     8.775
  34.720         60.00	     8.485
  34.740         63.33	     8.718
  34.760         73.33	     9.381
  34.780         77.50	     9.644
  34.800         80.00	     9.798
  34.820         74.17	     9.434
  34.840         90.00	    10.392
  34.860         97.50	    10.817
  34.880        110.00	    11.489
  34.900        120.00	    12.000
  34.920        125.83	    12.288
  34.940        113.33	    11.662
  34.960        116.67	    11.832
  34.980        113.33	    11.662
  35.000        114.17	    11.705
  35.020        114.17	    11.705
  35.040        106.67	    11.314
  35.060        105.83	    11.269
  35.080        102.50	    11.091
  35.100        102.50	    11.091
  35.120         81.67	     9.899
  35.140         75.00	     9.487
  35.160         89.17	    10.344
  35.180         68.33	     9.055
  35.200         91.67	    10.488
  35.220         70.83	     9.220
  35.240         78.33	     9.695
  35.260         75.00	     9.487
  35.280         68.33	     9.055
  35.300         61.67	     8.602
  35.320         89.17	    10.344
  35.340         88.33	    10.296
  35.360         80.00	     9.798
  35.380         63.33	     8.718
  35.400         95.83	    10.724
  35.420        100.00	    10.954
  35.440         97.50	    10.817
  35.460        118.33	    11.916
  35.480        110.83	    11.533
  35.500        129.17	    12.450
  35.520        161.67	    13.928
  35.540        178.33	    14.629
  35.560        214.17	    16.031
  35.580        167.50	    14.177
  35.600        155.83	    13.675
  35.620        160.83	    13.892
  35.640        162.50	    13.964
  35.660        149.17	    13.379
  35.680        106.67	    11.314
  35.700         86.67	    10.198
  35.720         92.50	    10.536
  35.740         88.33	    10.296
  35.760         81.67	     9.899
  35.780         79.17	     9.747
  35.800         65.00	     8.832
  35.820         65.83	     8.888
  35.840         50.00	     7.746
  35.860         55.83	     8.185
  35.880         61.67	     8.602
  35.900         45.00	     7.348
  35.920         55.83	     8.185
  35.940         60.83	     8.544
  35.960         49.17	     7.681
  35.980         61.67	     8.602
  36.000         59.17	     8.426
  36.020         56.67	     8.246
  36.040         75.00	     9.487
  36.060         85.83	    10.149
  36.080         76.67	     9.592
  36.100         90.83	    10.440
  36.120         75.83	     9.539
  36.140         85.00	    10.100
  36.160         85.83	    10.149
  36.180         69.17	     9.110
  36.200         69.17	     9.110
  36.220         61.67	     8.602
  36.240         72.50	     9.327
  36.260         63.33	     8.718
  36.280         55.83	     8.185
  36.300         49.17	     7.681
  36.320         55.00	     8.124
  36.340         62.50	     8.660
  36.360         57.50	     8.307
  36.380         63.33	     8.718
  36.400         66.67	     8.944
  36.420         75.83	     9.539
  36.440         95.83	    10.724
  36.460        100.00	    10.954
  36.480        131.67	    12.570
  36.500        166.67	    14.142
  36.520        233.33	    16.733
  36.540        249.17	    17.292
  36.560        268.33	    17.944
  36.580        230.83	    16.643
  36.600        150.83	    13.454
  36.620        167.50	    14.177
  36.640        176.67	    14.560
  36.660        179.17	    14.663
  36.680        122.50	    12.124
  36.700        104.17	    11.180
  36.720         95.00	    10.677
  36.740        100.83	    11.000
  36.760         93.33	    10.583
  36.780         77.50	     9.644
  36.800         77.50	     9.644
  36.820         63.33	     8.718
  36.840         70.00	     9.165
  36.860         69.17	     9.110
  36.880         55.00	     8.124
  36.900         65.83	     8.888
  36.920         52.50	     7.937
  36.940         69.17	     9.110
  36.960         55.00	     8.124
  36.980         50.00	     7.746
  37.000         64.17	     8.775
  37.020         56.67	     8.246
  37.040         67.50	     9.000
  37.060         50.00	     7.746
  37.080         47.50	     7.550
  37.100         52.50	     7.937
  37.120         50.83	     7.810
  37.140         82.50	     9.950
  37.160         80.83	     9.849
  37.180         61.67	     8.602
  37.200         61.67	     8.602
  37.220         53.33	     8.000
  37.240         65.83	     8.888
  37.260         71.67	     9.274
  37.280         51.67	     7.874
  37.300         57.50	     8.307
  37.320         53.33	     8.000
  37.340         62.50	     8.660
  37.360         57.50	     8.307
  37.380         68.33	     9.055
  37.400         73.33	     9.381
  37.420         63.33	     8.718
  37.440         60.83	     8.544
  37.460         57.50	     8.307
  37.480         76.67	     9.592
  37.500         75.00	     9.487
  37.520         77.50	     9.644
  37.540         69.17	     9.110
  37.560         71.67	     9.274
  37.580         75.83	     9.539
  37.600         72.50	     9.327
  37.620         80.83	     9.849
  37.640         82.50	     9.950
  37.660         73.33	     9.381
  37.680         80.83	     9.849
  37.700         85.00	    10.100
  37.720         85.83	    10.149
  37.740         85.83	    10.149
  37.760         77.50	     9.644
  37.780         80.83	     9.849
  37.800         63.33	     8.718
  37.820         70.83	     9.220
  37.840         55.00	     8.124
  37.860         61.67	     8.602
  37.880         52.50	     7.937
  37.900         37.50	     6.708
  37.920         50.83	     7.810
  37.940         35.83	     6.557
  37.960         42.50	     7.141
  37.980         35.00	     6.481
  38.000         35.83	     6.557
  38.020         47.50	     7.550
  38.040         47.50	     7.550
  38.060         45.00	     7.348
  38.080         27.50	     5.745
  38.100         39.17	     6.856
  38.120         30.00	     6.000
  38.140         32.50	     6.245
  38.160         29.17	     5.916
  38.180         30.83	     6.083
  38.200         38.33	     6.782
  38.220         30.83	     6.083
  38.240         36.67	     6.633
  38.260         38.33	     6.782
  38.280         39.17	     6.856
  38.300         41.67	     7.071
  38.320         41.67	     7.071
  38.340         38.33	     6.782
  38.360         37.50	     6.708
  38.380         39.17	     6.856
  38.400         39.17	     6.856
  38.420         33.33	     6.325
  38.440         31.67	     6.164
  38.460         39.17	     6.856
  38.480         32.50	     6.245
  38.500         44.17	     7.280
  38.520         45.00	     7.348
  38.540         43.33	     7.211
  38.560         41.67	     7.071
  38.580         46.67	     7.483
  38.600         50.00	     7.746
  38.620         49.17	     7.681
  38.640         51.67	     7.874
  38.660         43.33	     7.211
  38.680         42.50	     7.141
  38.700         42.50	     7.141
  38.720         35.83	     6.557
  38.740         41.67	     7.071
  38.760         41.67	     7.071
  38.780         51.67	     7.874
  38.800         49.17	     7.681
  38.820         39.17	     6.856
  38.840         54.17	     8.062
  38.860         40.83	     7.000
  38.880         43.33	     7.211
  38.900         45.83	     7.416
  38.920         44.17	     7.280
  38.940         50.00	     7.746
  38.960         42.50	     7.141
  38.980         47.50	     7.550
  39.000         47.50	     7.550
  39.020         32.50	     6.245
  39.040         42.50	     7.141
  39.060         41.67	     7.071
  39.080         50.00	     7.746
  39.100         50.83	     7.810
  39.120         42.50	     7.141
  39.140         45.83	     7.416
  39.160         39.17	     6.856
  39.180         52.50	     7.937
  39.200         36.67	     6.633
  39.220         46.67	     7.483
  39.240         33.33	     6.325
  39.260         45.00	     7.348
  39.280         40.00	     6.928
  39.300         47.50	     7.550
  39.320         39.17	     6.856
  39.340         55.00	     8.124
  39.360         47.50	     7.550
  39.380         67.50	     9.000
  39.400        101.67	    11.045
  39.420        127.50	    12.369
  39.440        195.00	    15.297
  39.460        214.17	    16.031
  39.480        183.33	    14.832
  39.500        139.17	    12.923
  39.520        110.83	    11.533
  39.540        153.33	    13.565
  39.560        140.00	    12.961
  39.580        138.33	    12.884
  39.600         97.50	    10.817
  39.620         68.33	     9.055
  39.640         62.50	     8.660
  39.660         63.33	     8.718
  39.680         64.17	     8.775
  39.700         79.17	     9.747
  39.720         66.67	     8.944
  39.740         54.17	     8.062
  39.760         55.00	     8.124
  39.780         60.00	     8.485
  39.800         56.67	     8.246
  39.820         50.83	     7.810
  39.840         40.83	     7.000
  39.860         48.33	     7.616
  39.880         34.17	     6.403
  39.900         48.33	     7.616
  39.920         58.33	     8.367
  39.940         45.00	     7.348
  39.960         40.00	     6.928
  39.980         55.00	     8.124
  40.000         50.83	     7.810
  40.020         54.17	     8.062
  40.040         48.33	     7.616
  40.060         46.67	     7.483
  40.080         56.67	     8.246
  40.100         55.00	     8.124
  40.120         59.17	     8.426
  40.140         35.83	     6.557
  40.160         56.67	     8.246
  40.180         44.17	     7.280
  40.200         57.50	     8.307
  40.220         70.00	     9.165
  40.240         71.67	     9.274
  40.260        100.00	    10.954
  40.280        112.50	    11.619
  40.300        140.00	    12.961
  40.320        108.33	    11.402
  40.340        101.67	    11.045
  40.360         79.17	     9.747
  40.380         68.33	     9.055
  40.400         96.67	    10.770
  40.420         94.17	    10.630
  40.440         80.00	     9.798
  40.460         55.83	     8.185
  40.480         58.33	     8.367
  40.500         51.67	     7.874
  40.520         43.33	     7.211
  40.540         41.67	     7.071
  40.560         39.17	     6.856
  40.580         40.00	     6.928
  40.600         38.33	     6.782
  40.620         45.83	     7.416
  40.640         49.17	     7.681
  40.660         42.50	     7.141
  40.680         42.50	     7.141
  40.700         51.67	     7.874
  40.720         48.33	     7.616
  40.740         35.00	     6.481
  40.760         40.00	     6.928
  40.780         53.33	     8.000
  40.800         50.00	     7.746
  40.820         42.50	     7.141
  40.840         46.67	     7.483
  40.860         31.67	     6.164
  40.880         45.83	     7.416
  40.900         36.67	     6.633
  40.920         44.17	     7.280
  40.940         46.67	     7.483
  40.960         64.17	     8.775
  40.980         45.83	     7.416
  41.000         38.33	     6.782
  41.020         35.83	     6.557
  41.040         45.00	     7.348
  41.060         46.67	     7.483
  41.080         50.00	     7.746
  41.100         42.50	     7.141
  41.120         46.67	     7.483
  41.140         46.67	     7.483
  41.160         55.83	     8.185
  41.180         45.83	     7.416
  41.200         54.17	     8.062
  41.220         63.33	     8.718
  41.240         63.33	     8.718
  41.260         53.33	     8.000
  41.280         51.67	     7.874
  41.300         57.50	     8.307
  41.320         61.67	     8.602
  41.340         55.83	     8.185
  41.360         45.83	     7.416
  41.380         47.50	     7.550
  41.400         53.33	     8.000
  41.420         45.00	     7.348
  41.440         37.50	     6.708
  41.460         50.83	     7.810
  41.480         40.00	     6.928
  41.500         52.50	     7.937
  41.520         41.67	     7.071
  41.540         43.33	     7.211
  41.560         46.67	     7.483
  41.580         39.17	     6.856
  41.600         53.33	     8.000
  41.620         45.83	     7.416
  41.640         53.33	     8.000
  41.660         72.50	     9.327
  41.680         82.50	     9.950
  41.700        108.33	    11.402
  41.720        120.83	    12.042
  41.740        100.00	    10.954
  41.760         95.83	    10.724
  41.780         60.00	     8.485
  41.800         67.50	     9.000
  41.820         85.83	    10.149
  41.840         85.83	    10.149
  41.860         66.67	     8.944
  41.880         67.50	     9.000
  41.900         75.00	     9.487
  41.920         60.83	     8.544
  41.940         60.83	     8.544
  41.960         57.50	     8.307
  41.980         70.00	     9.165
  42.000         55.83	     8.185
  42.020         59.17	     8.426
  42.040         60.00	     8.485
  42.060         56.67	     8.246
  42.080         63.33	     8.718
  42.100         60.00	     8.485
  42.120         70.83	     9.220
  42.140         47.50	     7.550
  42.160         61.67	     8.602
  42.180         52.50	     7.937
  42.200         46.67	     7.483
  42.220         60.00	     8.485
  42.240         60.83	     8.544
  42.260         65.83	     8.888
  42.280         67.50	     9.000
  42.300         67.50	     9.000
  42.320         65.00	     8.832
  42.340         78.33	     9.695
  42.360         80.83	     9.849
  42.380         98.33	    10.863
  42.400        111.67	    11.576
  42.420        160.00	    13.856
  42.440        196.67	    15.362
  42.460        190.00	    15.100
  42.480        198.33	    15.427
  42.500        141.67	    13.038
  42.520        130.00	    12.490
  42.540        115.83	    11.790
  42.560        140.83	    13.000
  42.580        120.00	    12.000
  42.600        110.83	    11.533
  42.620         88.33	    10.296
  42.640         74.17	     9.434
  42.660         68.33	     9.055
  42.680         70.83	     9.220
  42.700         72.50	     9.327
  42.720         61.67	     8.602
  42.740         61.67	     8.602
  42.760         46.67	     7.483
  42.780         69.17	     9.110
  42.800         70.83	     9.220
  42.820         66.67	     8.944
  42.840         57.50	     8.307
  42.860         73.33	     9.381
  42.880         72.50	     9.327
  42.900         68.33	     9.055
  42.920         75.83	     9.539
  42.940         75.83	     9.539
  42.960         75.83	     9.539
  42.980         78.33	     9.695
  43.000         61.67	     8.602
  43.020         60.83	     8.544
  43.040         63.33	     8.718
  43.060         50.00	     7.746
  43.080         70.83	     9.220
  43.100         46.67	     7.483
  43.120         50.83	     7.810
  43.140         39.17	     6.856
  43.160         50.00	     7.746
  43.180         39.17	     6.856
  43.200         45.83	     7.416
  43.220         59.17	     8.426
  43.240         72.50	     9.327
  43.260         52.50	     7.937
  43.280         49.17	     7.681
  43.300         45.83	     7.416
  43.320         62.50	     8.660
  43.340         62.50	     8.660
  43.360         65.83	     8.888
  43.380         45.00	     7.348
  43.400         58.33	     8.367
  43.420         53.33	     8.000
  43.440         61.67	     8.602
  43.460         68.33	     9.055
  43.480         57.50	     8.307
  43.500         75.83	     9.539
  43.520         80.83	     9.849
  43.540         77.50	     9.644
  43.560         83.33	    10.000
  43.580         95.83	    10.724
  43.600         89.17	    10.344
  43.620         90.00	    10.392
  43.640         97.50	    10.817
  43.660         88.33	    10.296
  43.680         85.83	    10.149
  43.700         80.00	     9.798
  43.720         77.50	     9.644
  43.740         87.50	    10.247
  43.760        104.17	    11.180
  43.780         97.50	    10.817
  43.800         89.17	    10.344
  43.820         83.33	    10.000
  43.840         71.67	     9.274
  43.860         82.50	     9.950
  43.880         70.83	     9.220
  43.900         79.17	     9.747
  43.920         85.83	    10.149
  43.940         81.67	     9.899
  43.960         63.33	     8.718
  43.980         77.50	     9.644
  44.000         85.83	    10.149
  44.020         76.67	     9.592
  44.040         67.50	     9.000
  44.060         70.00	     9.165
  44.080         77.50	     9.644
  44.100         95.83	    10.724
  44.120         90.00	    10.392
  44.140        104.17	    11.180
  44.160         94.17	    10.630
  44.180         95.00	    10.677
  44.200        115.83	    11.790
  44.220         99.17	    10.909
  44.240        105.83	    11.269
  44.260        121.67	    12.083
  44.280        125.83	    12.288
  44.300        128.33	    12.410
  44.320        150.83	    13.454
  44.340        132.50	    12.610
  44.360        149.17	    13.379
  44.380        174.17	    14.457
  44.400        147.50	    13.304
  44.420        178.33	    14.629
  44.440        183.33	    14.832
  44.460        186.67	    14.967
  44.480        210.83	    15.906
  44.500        204.17	    15.652
  44.520        192.50	    15.199
  44.540        210.83	    15.906
  44.560        191.67	    15.166
  44.580        170.00	    14.283
  44.600        192.50	    15.199
  44.620        175.00	    14.491
  44.640        165.83	    14.107
  44.660        173.33	    14.422
  44.680        179.17	    14.663
  44.700        166.67	    14.142
  44.720        147.50	    13.304
  44.740        154.17	    13.601
  44.760        127.50	    12.369
  44.780        144.17	    13.153
  44.800        112.50	    11.619
  44.820        112.50	    11.619
  44.840        106.67	    11.314
  44.860        117.50	    11.874
  44.880        127.50	    12.369
  44.900        115.00	    11.747
  44.920        102.50	    11.091
  44.940        105.83	    11.269
  44.960         85.00	    10.100
  44.980         88.33	    10.296
  45.000         99.17	    10.909
  45.020         95.83	    10.724
  45.040         92.50	    10.536
  45.060         92.50	    10.536
  45.080         86.67	    10.198
  45.100         80.00	     9.798
  45.120         85.00	    10.100
  45.140         82.50	     9.950
  45.160         87.50	    10.247
  45.180         97.50	    10.817
  45.200         85.00	    10.100
  45.220         81.67	     9.899
  45.240         98.33	    10.863
  45.260         78.33	     9.695
  45.280         88.33	    10.296
  45.300         75.00	     9.487
  45.320         80.83	     9.849
  45.340         82.50	     9.950
  45.360         82.50	     9.950
  45.380        105.00	    11.225
  45.400        105.00	    11.225
  45.420        125.00	    12.247
  45.440        124.17	    12.207
  45.460        115.83	    11.790
  45.480        126.67	    12.329
  45.500        165.00	    14.071
  45.520        196.67	    15.362
  45.540        180.00	    14.697
  45.560        180.00	    14.697
  45.580        193.33	    15.232
  45.600        217.50	    16.155
  45.620        217.50	    16.155
  45.640        190.00	    15.100
  45.660        171.67	    14.353
  45.680        125.00	    12.247
  45.700        165.83	    14.107
  45.720        153.33	    13.565
  45.740        173.33	    14.422
  45.760        160.83	    13.892
  45.780        157.50	    13.748
  45.800        148.33	    13.342
  45.820        133.33	    12.649
  45.840         90.00	    10.392
  45.860        103.33	    11.136
  45.880         90.00	    10.392
  45.900         83.33	    10.000
  45.920        109.17	    11.446
  45.940         87.50	    10.247
  45.960         70.83	     9.220
  45.980         72.50	     9.327
  46.000         60.83	     8.544
  46.020         65.83	     8.888
  46.040         60.83	     8.544
  46.060         62.50	     8.660
  46.080         74.17	     9.434
  46.100         73.33	     9.381
  46.120         70.83	     9.220
  46.140         42.50	     7.141
  46.160         50.00	     7.746
  46.180         48.33	     7.616
  46.200         33.33	     6.325
  46.220         43.33	     7.211
  46.240         40.83	     7.000
  46.260         35.83	     6.557
  46.280         38.33	     6.782
  46.300         42.50	     7.141
  46.320         43.33	     7.211
  46.340         43.33	     7.211
  46.360         35.83	     6.557
  46.380         40.83	     7.000
  46.400         50.00	     7.746
  46.420         39.17	     6.856
  46.440         34.17	     6.403
  46.460         35.83	     6.557
  46.480         37.50	     6.708
  46.500         33.33	     6.325
  46.520         35.00	     6.481
  46.540         47.50	     7.550
  46.560         37.50	     6.708
  46.580         46.67	     7.483
  46.600         34.17	     6.403
  46.620         36.67	     6.633
  46.640         45.00	     7.348
  46.660         32.50	     6.245
  46.680         33.33	     6.325
  46.700         50.00	     7.746
  46.720         32.50	     6.245
  46.740         38.33	     6.782
  46.760         42.50	     7.141
  46.780         31.67	     6.164
  46.800         35.83	     6.557
  46.820         24.17	     5.385
  46.840         37.50	     6.708
  46.860         29.17	     5.916
  46.880         37.50	     6.708
  46.900         44.17	     7.280
  46.920         39.17	     6.856
  46.940         30.00	     6.000
  46.960         37.50	     6.708
  46.980         42.50	     7.141
  47.000         43.33	     7.211
  47.020         41.67	     7.071
  47.040         52.50	     7.937
  47.060         46.67	     7.483
  47.080         45.00	     7.348
  47.100         55.83	     8.185
  47.120         55.83	     8.185
  47.140         42.50	     7.141
  47.160         50.00	     7.746
  47.180         41.67	     7.071
  47.200         62.50	     8.660
  47.220         50.00	     7.746
  47.240         58.33	     8.367
  47.260         50.83	     7.810
  47.280         33.33	     6.325
  47.300         47.50	     7.550
  47.320         35.83	     6.557
  47.340         42.50	     7.141
  47.360         33.33	     6.325
  47.380         36.67	     6.633
  47.400         33.33	     6.325
  47.420         33.33	     6.325
  47.440         27.50	     5.745
  47.460         37.50	     6.708
  47.480         48.33	     7.616
  47.500         30.00	     6.000
  47.520         27.50	     5.745
  47.540         39.17	     6.856
  47.560         34.17	     6.403
  47.580         36.67	     6.633
  47.600         27.50	     5.745
  47.620         36.67	     6.633
  47.640         43.33	     7.211
  47.660         28.33	     5.831
  47.680         43.33	     7.211
  47.700         27.50	     5.745
  47.720         25.83	     5.568
  47.740         41.67	     7.071
  47.760         30.00	     6.000
  47.780         40.83	     7.000
  47.800         28.33	     5.831
  47.820         39.17	     6.856
  47.840         31.67	     6.164
  47.860         40.00	     6.928
  47.880         37.50	     6.708
  47.900         37.50	     6.708
  47.920         49.17	     7.681
  47.940         46.67	     7.483
  47.960         50.83	     7.810
  47.980         55.00	     8.124
  48.000         40.00	     6.928
  48.020         45.00	     7.348
  48.040         50.00	     7.746
  48.060         43.33	     7.211
  48.080         55.83	     8.185
  48.100         62.50	     8.660
  48.120         85.83	    10.149
  48.140         92.50	    10.536
  48.160         65.83	     8.888
  48.180         67.50	     9.000
  48.200         55.83	     8.185
  48.220         61.67	     8.602
  48.240         68.33	     9.055
  48.260         64.17	     8.775
  48.280         74.17	     9.434
  48.300         54.17	     8.062
  48.320         61.67	     8.602
  48.340         57.50	     8.307
  48.360         52.50	     7.937
  48.380         66.67	     8.944
  48.400         41.67	     7.071
  48.420         39.17	     6.856
  48.440         31.67	     6.164
  48.460         39.17	     6.856
  48.480         36.67	     6.633
  48.500         38.33	     6.782
  48.520         35.83	     6.557
  48.540         35.83	     6.557
  48.560         45.00	     7.348
  48.580         39.17	     6.856
  48.600         40.83	     7.000
  48.620         60.00	     8.485
  48.640         67.50	     9.000
  48.660         65.00	     8.832
  48.680         45.83	     7.416
  48.700         49.17	     7.681
  48.720         43.33	     7.211
  48.740         42.50	     7.141
  48.760         61.67	     8.602
  48.780         64.17	     8.775
  48.800         57.50	     8.307
  48.820         39.17	     6.856
  48.840         42.50	     7.141
  48.860         35.00	     6.481
  48.880         33.33	     6.325
  48.900         43.33	     7.211
  48.920         35.83	     6.557
  48.940         37.50	     6.708
  48.960         47.50	     7.550
  48.980         33.33	     6.325
  49.000         49.17	     7.681
  49.020         57.50	     8.307
  49.040         45.00	     7.348
  49.060         43.33	     7.211
  49.080         41.67	     7.071
  49.100         45.83	     7.416
  49.120         43.33	     7.211
  49.140         46.67	     7.483
  49.160         67.50	     9.000
  49.180         88.33	    10.296
  49.200         86.67	    10.198
  49.220         90.00	    10.392
  49.240         78.33	     9.695
  49.260         65.83	     8.888
  49.280         69.17	     9.110
  49.300         44.17	     7.280
  49.320         67.50	     9.000
  49.340         70.00	     9.165
  49.360         86.67	    10.198
  49.380         65.00	     8.832
  49.400         63.33	     8.718
  49.420         45.83	     7.416
  49.440         49.17	     7.681
  49.460         40.83	     7.000
  49.480         50.83	     7.810
  49.500         57.50	     8.307
  49.520         41.67	     7.071
  49.540         45.83	     7.416
  49.560         45.83	     7.416
  49.580         48.33	     7.616
  49.600         44.17	     7.280
  49.620         58.33	     8.367
  49.640         51.67	     7.874
  49.660         49.17	     7.681
  49.680         51.67	     7.874
  49.700         48.33	     7.616
  49.720         49.17	     7.681
  49.740         55.00	     8.124
  49.760         64.17	     8.775
  49.780         67.50	     9.000
  49.800         63.33	     8.718
  49.820         81.67	     9.899
  49.840         78.33	     9.695
  49.860         75.83	     9.539
  49.880         66.67	     8.944
  49.900         84.17	    10.050
  49.920         73.33	     9.381
  49.940         90.83	    10.440
  49.960         81.67	     9.899
  49.980        102.50	    11.091
  50.000         84.17	    10.050
  50.020         86.67	    10.198
  50.040        105.00	    11.225
  50.060        155.00	    13.638
  50.080        195.83	    15.330
  50.100        279.17	    18.303
  50.120        396.67	    21.817
  50.140        381.67	    21.401
  50.160        370.00	    21.071
  50.180        255.83	    17.521
  50.200        183.33	    14.832
  50.220        165.83	    14.107
  50.240        191.67	    15.166
  50.260        222.50	    16.340
  50.280        200.83	    15.524
  50.300        202.50	    15.588
  50.320        156.67	    13.711
  50.340         91.67	    10.488
  50.360         75.00	     9.487
  50.380         62.50	     8.660
  50.400         63.33	     8.718
  50.420         60.00	     8.485
  50.440         65.00	     8.832
  50.460         56.67	     8.246
  50.480         59.17	     8.426
  50.500         52.50	     7.937
  50.520         61.67	     8.602
  50.540         65.00	     8.832
  50.560         78.33	     9.695
  50.580         89.17	    10.344
  50.600         98.33	    10.863
  50.620         93.33	    10.583
  50.640         62.50	     8.660
  50.660         55.00	     8.124
  50.680         75.83	     9.539
  50.700         94.17	    10.630
  50.720         68.33	     9.055
  50.740         60.00	     8.485
  50.760         63.33	     8.718
  50.780         50.83	     7.810
  50.800         58.33	     8.367
  50.820         40.83	     7.000
  50.840         52.50	     7.937
  50.860         32.50	     6.245
  50.880         30.83	     6.083
  50.900         51.67	     7.874
  50.920         41.67	     7.071
  50.940         45.00	     7.348
  50.960         40.83	     7.000
  50.980         35.83	     6.557
  51.000         35.00	     6.481
  51.020         40.83	     7.000
  51.040         37.50	     6.708
  51.060         56.67	     8.246
  51.080         41.67	     7.071
  51.100         61.67	     8.602
  51.120         76.67	     9.592
  51.140         66.67	     8.944
  51.160         57.50	     8.307
  51.180         40.83	     7.000
  51.200         45.83	     7.416
  51.220         46.67	     7.483
  51.240         36.67	     6.633
  51.260         58.33	     8.367
  51.280         48.33	     7.616
  51.300         48.33	     7.616
  51.320         57.50	     8.307
  51.340         42.50	     7.141
  51.360         47.50	     7.550
  51.380         39.17	     6.856
  51.400         40.00	     6.928
  51.420         32.50	     6.245
  51.440         37.50	     6.708
  51.460         42.50	     7.141
  51.480         49.17	     7.681
  51.500         25.00	     5.477
  51.520         36.67	     6.633
  51.540         31.67	     6.164
  51.560         35.83	     6.557
  51.580         30.83	     6.083
  51.600         40.83	     7.000
  51.620         29.17	     5.916
  51.640         29.17	     5.916
  51.660         37.50	     6.708
  51.680         28.33	     5.831
  51.700         26.67	     5.657
  51.720         33.33	     6.325
  51.740         40.00	     6.928
  51.760         31.67	     6.164
  51.780         26.67	     5.657
  51.800         28.33	     5.831
  51.820         30.83	     6.083
  51.840         27.50	     5.745
  51.860         40.83	     7.000
  51.880         29.17	     5.916
  51.900         27.50	     5.745
  51.920         25.00	     5.477
  51.940         34.17	     6.403
  51.960         29.17	     5.916
  51.980         39.17	     6.856
  52.000         35.83	     6.557
  52.020         30.00	     6.000
  52.040         44.17	     7.280
  52.060         30.00	     6.000
  52.080         40.83	     7.000
  52.100         45.00	     7.348
  52.120         63.33	     8.718
  52.140         81.67	     9.899
  52.160         62.50	     8.660
  52.180         59.17	     8.426
  52.200         50.00	     7.746
  52.220         44.17	     7.280
  52.240         45.00	     7.348
  52.260         40.83	     7.000
  52.280         67.50	     9.000
  52.300         63.33	     8.718
  52.320         46.67	     7.483
  52.340         46.67	     7.483
  52.360         51.67	     7.874
  52.380         42.50	     7.141
  52.400         50.00	     7.746
  52.420         49.17	     7.681
  52.440         49.17	     7.681
  52.460         37.50	     6.708
  52.480         44.17	     7.280
  52.500         37.50	     6.708
  52.520         52.50	     7.937
  52.540         48.33	     7.616
  52.560         40.83	     7.000
  52.580         40.00	     6.928
  52.600         40.00	     6.928
  52.620         32.50	     6.245
  52.640         42.50	     7.141
  52.660         44.17	     7.280
  52.680         43.33	     7.211
  52.700         42.50	     7.141
  52.720         40.83	     7.000
  52.740         30.83	     6.083
  52.760         48.33	     7.616
  52.780         30.83	     6.083
  52.800         42.50	     7.141
  52.820         42.50	     7.141
  52.840         44.17	     7.280
  52.860         34.17	     6.403
  52.880         30.83	     6.083
  52.900         45.83	     7.416
  52.920         33.33	     6.325
  52.940         47.50	     7.550
  52.960         46.67	     7.483
  52.980         44.17	     7.280
  53.000         42.50	     7.141
  53.020         47.50	     7.550
  53.040         33.33	     6.325
  53.060         40.83	     7.000
  53.080         45.00	     7.348
  53.100         54.17	     8.062
  53.120         39.17	     6.856
  53.140         46.67	     7.483
  53.160         62.50	     8.660
  53.180         44.17	     7.280
  53.200         50.00	     7.746
  53.220         42.50	     7.141
  53.240         48.33	     7.616
  53.260         50.83	     7.810
  53.280         45.83	     7.416
  53.300         45.00	     7.348
  53.320         48.33	     7.616
  53.340         45.83	     7.416
  53.360         56.67	     8.246
  53.380         44.17	     7.280
  53.400         40.83	     7.000
  53.420         40.83	     7.000
  53.440         45.00	     7.348
  53.460         52.50	     7.937
  53.480         35.00	     6.481
  53.500         45.83	     7.416
  53.520         34.17	     6.403
  53.540         39.17	     6.856
  53.560         40.83	     7.000
  53.580         49.17	     7.681
  53.600         28.33	     5.831
  53.620         34.17	     6.403
  53.640         37.50	     6.708
  53.660         41.67	     7.071
  53.680         38.33	     6.782
  53.700         33.33	     6.325
  53.720         41.67	     7.071
  53.740         41.67	     7.071
  53.760         44.17	     7.280
  53.780         40.83	     7.000
  53.800         56.67	     8.246
  53.820         52.50	     7.937
  53.840         35.00	     6.481
  53.860         60.83	     8.544
  53.880         53.33	     8.000
  53.900         44.17	     7.280
  53.920         44.17	     7.280
  53.940         54.17	     8.062
  53.960         45.00	     7.348
  53.980         42.50	     7.141
  54.000         41.67	     7.071
  54.020         45.83	     7.416
  54.040         35.00	     6.481
  54.060         30.83	     6.083
  54.080         46.67	     7.483
  54.100         41.67	     7.071
  54.120         37.50	     6.708
  54.140         40.00	     6.928
  54.160         46.67	     7.483
  54.180         45.00	     7.348
  54.200         48.33	     7.616
  54.220         35.00	     6.481
  54.240         41.67	     7.071
  54.260         29.17	     5.916
  54.280         46.67	     7.483
  54.300         44.17	     7.280
  54.320         45.83	     7.416
  54.340         53.33	     8.000
  54.360         39.17	     6.856
  54.380         50.83	     7.810
  54.400         36.67	     6.633
  54.420         45.83	     7.416
  54.440         50.00	     7.746
  54.460         40.00	     6.928
  54.480         42.50	     7.141
  54.500         49.17	     7.681
  54.520         50.00	     7.746
  54.540         41.67	     7.071
  54.560         52.50	     7.937
  54.580         36.67	     6.633
  54.600         45.00	     7.348
  54.620         53.33	     8.000
  54.640         46.67	     7.483
  54.660         48.33	     7.616
  54.680         43.33	     7.211
  54.700         52.50	     7.937
  54.720         49.17	     7.681
  54.740         49.17	     7.681
  54.760         62.50	     8.660
  54.780         68.33	     9.055
  54.800         75.83	     9.539
  54.820        105.83	    11.269
  54.840        137.50	    12.845
  54.860        145.83	    13.229
  54.880        163.33	    14.000
  54.900        105.00	    11.225
  54.920         88.33	    10.296
  54.940         78.33	     9.695
  54.960         73.33	     9.381
  54.980         87.50	    10.247
  55.000         99.17	    10.909
  55.020         90.00	    10.392
  55.040         89.17	    10.344
  55.060         87.50	    10.247
  55.080         62.50	     8.660
  55.100         68.33	     9.055
  55.120         54.17	     8.062
  55.140         68.33	     9.055
  55.160         63.33	     8.718
  55.180         63.33	     8.718
  55.200         50.83	     7.810
  55.220         82.50	     9.950
  55.240         74.17	     9.434
  55.260         72.50	     9.327
  55.280         98.33	    10.863
  55.300        128.33	    12.410
  55.320        122.50	    12.124
  55.340        112.50	    11.619
  55.360         74.17	     9.434
  55.380         74.17	     9.434
  55.400         73.33	     9.381
  55.420         75.83	     9.539
  55.440         70.00	     9.165
  55.460         98.33	    10.863
  55.480         68.33	     9.055
  55.500         62.50	     8.660
  55.520         53.33	     8.000
  55.540         48.33	     7.616
  55.560         53.33	     8.000
  55.580         57.50	     8.307
  55.600         55.83	     8.185
  55.620         50.83	     7.810
  55.640         58.33	     8.367
  55.660         46.67	     7.483
  55.680         55.00	     8.124
  55.700         75.00	     9.487
  55.720         55.83	     8.185
  55.740         73.33	     9.381
  55.760         66.67	     8.944
  55.780         71.67	     9.274
  55.800         94.17	    10.630
  55.820         95.83	    10.724
  55.840        100.00	    10.954
  55.860         95.00	    10.677
  55.880         95.83	    10.724
  55.900         75.83	     9.539
  55.920         80.83	     9.849
  55.940         85.83	    10.149
  55.960         65.83	     8.888
  55.980         72.50	     9.327
  56.000         77.50	     9.644
  56.020         79.17	     9.747
  56.040         70.83	     9.220
  56.060         61.67	     8.602
  56.080         62.50	     8.660
  56.100         53.33	     8.000
  56.120         55.00	     8.124
  56.140         49.17	     7.681
  56.160         51.67	     7.874
  56.180         44.17	     7.280
  56.200         37.50	     6.708
  56.220         44.17	     7.280
  56.240         39.17	     6.856
  56.260         46.67	     7.483
  56.280         39.17	     6.856
  56.300         39.17	     6.856
  56.320         37.50	     6.708
  56.340         34.17	     6.403
  56.360         37.50	     6.708
  56.380         32.50	     6.245
  56.400         40.00	     6.928
  56.420         30.83	     6.083
  56.440         45.00	     7.348
  56.460         24.17	     5.385
  56.480         27.50	     5.745
  56.500         36.67	     6.633
  56.520         40.00	     6.928
  56.540         35.00	     6.481
  56.560         34.17	     6.403
  56.580         35.83	     6.557
  56.600         35.00	     6.481
  56.620         35.00	     6.481
  56.640         37.50	     6.708
  56.660         35.00	     6.481
  56.680         36.67	     6.633
  56.700         42.50	     7.141
  56.720         36.67	     6.633
  56.740         32.50	     6.245
  56.760         40.83	     7.000
  56.780         37.50	     6.708
  56.800         33.33	     6.325
  56.820         43.33	     7.211
  56.840         34.17	     6.403
  56.860         44.17	     7.280
  56.880         36.67	     6.633
  56.900         43.33	     7.211
  56.920         47.50	     7.550
  56.940         32.50	     6.245
  56.960         44.17	     7.280
  56.980         36.67	     6.633
  57.000         35.83	     6.557
  57.020         37.50	     6.708
  57.040         47.50	     7.550
  57.060         39.17	     6.856
  57.080         40.83	     7.000
  57.100         38.33	     6.782
  57.120         34.17	     6.403
  57.140         46.67	     7.483
  57.160         41.67	     7.071
  57.180         40.00	     6.928
  57.200         42.50	     7.141
  57.220         40.00	     6.928
  57.240         49.17	     7.681
  57.260         48.33	     7.616
  57.280         26.67	     5.657
  57.300         37.50	     6.708
  57.320         50.00	     7.746
  57.340         35.83	     6.557
  57.360         35.83	     6.557
  57.380         45.83	     7.416
  57.400         36.67	     6.633
  57.420         38.33	     6.782
  57.440         30.83	     6.083
  57.460         36.67	     6.633
  57.480         39.17	     6.856
  57.500         33.33	     6.325
  57.520         37.50	     6.708
  57.540         40.83	     7.000
  57.560         39.17	     6.856
  57.580         34.17	     6.403
  57.600         49.17	     7.681
  57.620         30.00	     6.000
  57.640         34.17	     6.403
  57.660         38.33	     6.782
  57.680         40.00	     6.928
  57.700         40.83	     7.000
  57.720         42.50	     7.141
  57.740         36.67	     6.633
  57.760         32.50	     6.245
  57.780         46.67	     7.483
  57.800         35.83	     6.557
  57.820         45.00	     7.348
  57.840         37.50	     6.708
  57.860         42.50	     7.141
  57.880         38.33	     6.782
  57.900         41.67	     7.071
  57.920         30.83	     6.083
  57.940         32.50	     6.245
  57.960         33.33	     6.325
  57.980         35.83	     6.557
  58.000         43.33	     7.211
  58.020         41.67	     7.071
  58.040         41.67	     7.071
  58.060         32.50	     6.245
  58.080         58.33	     8.367
  58.100         47.50	     7.550
  58.120         75.83	     9.539
  58.140         74.17	     9.434
  58.160         68.33	     9.055
  58.180         55.00	     8.124
  58.200         40.83	     7.000
  58.220         47.50	     7.550
  58.240         56.67	     8.246
  58.260         68.33	     9.055
  58.280         84.17	    10.050
  58.300         79.17	     9.747
  58.320         61.67	     8.602
  58.340         57.50	     8.307
  58.360         40.83	     7.000
  58.380         35.83	     6.557
  58.400         33.33	     6.325
  58.420         58.33	     8.367
  58.440         63.33	     8.718
  58.460         48.33	     7.616
  58.480         45.00	     7.348
  58.500         43.33	     7.211
  58.520         39.17	     6.856
  58.540         45.00	     7.348
  58.560         42.50	     7.141
  58.580         55.83	     8.185
  58.600         35.00	     6.481
  58.620         59.17	     8.426
  58.640         53.33	     8.000
  58.660         59.17	     8.426
  58.680         55.83	     8.185
  58.700         63.33	     8.718
  58.720         63.33	     8.718
  58.740         60.00	     8.485
  58.760         67.50	     9.000
  58.780         64.17	     8.775
  58.800         61.67	     8.602
  58.820         56.67	     8.246
  58.840         47.50	     7.550
  58.860         60.83	     8.544
  58.880         52.50	     7.937
  58.900         55.83	     8.185
  58.920         50.83	     7.810
  58.940         45.00	     7.348
  58.960         57.50	     8.307
  58.980         41.67	     7.071
  59.000         53.33	     8.000
  59.020         60.83	     8.544
  59.040         49.17	     7.681
  59.060         60.00	     8.485
  59.080         60.83	     8.544
  59.100         68.33	     9.055
  59.120         62.50	     8.660
  59.140         59.17	     8.426
  59.160         60.00	     8.485
  59.180         75.00	     9.487
  59.200         55.83	     8.185
  59.220         75.00	     9.487
  59.240         70.00	     9.165
  59.260         59.17	     8.426
  59.280         51.67	     7.874
  59.300         54.17	     8.062
  59.320         55.00	     8.124
  59.340         48.33	     7.616
  59.360         42.50	     7.141
  59.380         55.00	     8.124
  59.400         45.83	     7.416
  59.420         45.83	     7.416
  59.440         46.67	     7.483
  59.460         33.33	     6.325
  59.480         47.50	     7.550
  59.500         45.00	     7.348
  59.520         50.00	     7.746
  59.540         40.83	     7.000
  59.560         38.33	     6.782
  59.580         40.83	     7.000
  59.600         54.17	     8.062
  59.620         41.67	     7.071
  59.640         41.67	     7.071
  59.660         53.33	     8.000
  59.680         52.50	     7.937
  59.700         50.00	     7.746
  59.720         69.17	     9.110
  59.740         48.33	     7.616
  59.760         55.00	     8.124
  59.780         65.83	     8.888
  59.800         68.33	     9.055
  59.820         73.33	     9.381
  59.840         77.50	     9.644
  59.860         96.67	    10.770
  59.880        126.67	    12.329
  59.900        185.00	    14.900
  59.920        283.33	    18.439
  59.940        372.50	    21.142
  59.960        350.00	    20.494
  59.980        284.17	    18.466
  60.000        215.00	    16.062
  60.020        190.00	    15.100
  60.040        150.83	    13.454
  60.060        156.67	    13.711
  60.080        184.17	    14.866
  60.100        199.17	    15.460
  60.120        218.33	    16.186
  60.140        190.83	    15.133
  60.160        158.33	    13.784
  60.180        123.33	    12.166
  60.200        106.67	    11.314
  60.220         81.67	     9.899
  60.240         65.83	     8.888
  60.260         65.00	     8.832
  60.280         70.00	     9.165
  60.300         55.00	     8.124
  60.320         54.17	     8.062
  60.340         56.67	     8.246
  60.360         50.00	     7.746
  60.380         53.33	     8.000
  60.400         50.00	     7.746
  60.420         54.17	     8.062
  60.440         57.50	     8.307
  60.460         55.00	     8.124
  60.480         71.67	     9.274
  60.500         58.33	     8.367
  60.520         56.67	     8.246
  60.540         49.17	     7.681
  60.560         61.67	     8.602
  60.580         45.00	     7.348
  60.600         50.00	     7.746
  60.620         58.33	     8.367
  60.640         64.17	     8.775
  60.660         70.83	     9.220
  60.680         79.17	     9.747
  60.700        100.00	    10.954
  60.720         70.00	     9.165
  60.740         65.00	     8.832
  60.760         66.67	     8.944
  60.780         80.00	     9.798
  60.800         68.33	     9.055
  60.820         65.83	     8.888
  60.840         90.00	    10.392
  60.860         77.50	     9.644
  60.880         66.67	     8.944
  60.900         68.33	     9.055
  60.920         68.33	     9.055
  60.940         48.33	     7.616
  60.960         63.33	     8.718
  60.980         55.00	     8.124
  61.000         65.00	     8.832
  61.020         69.17	     9.110
  61.040         60.83	     8.544
  61.060         51.67	     7.874
  61.080         54.17	     8.062
  61.100         52.50	     7.937
  61.120         43.33	     7.211
  61.140         55.00	     8.124
  61.160         73.33	     9.381
  61.180         74.17	     9.434
  61.200         55.83	     8.185
  61.220         68.33	     9.055
  61.240         62.50	     8.660
  61.260         51.67	     7.874
  61.280         43.33	     7.211
  61.300         66.67	     8.944
  61.320         68.33	     9.055
  61.340         67.50	     9.000
  61.360         55.83	     8.185
  61.380         60.00	     8.485
  61.400         52.50	     7.937
  61.420         60.83	     8.544
  61.440         85.00	    10.100
  61.460         66.67	     8.944
  61.480         73.33	     9.381
  61.500         85.00	    10.100
  61.520         65.00	     8.832
  61.540         65.83	     8.888
  61.560         77.50	     9.644
  61.580         86.67	    10.198
  61.600         75.83	     9.539
  61.620         90.83	    10.440
  61.640         98.33	    10.863
  61.660         77.50	     9.644
  61.680        100.83	    11.000
  61.700         75.83	     9.539
  61.720         72.50	     9.327
  61.740         76.67	     9.592
  61.760         80.00	     9.798
  61.780         57.50	     8.307
  61.800         86.67	    10.198
  61.820         80.83	     9.849
  61.840         69.17	     9.110
  61.860         77.50	     9.644
  61.880         67.50	     9.000
  61.900         60.00	     8.485
  61.920         50.83	     7.810
  61.940         62.50	     8.660
  61.960         46.67	     7.483
  61.980         56.67	     8.246
  62.000         56.67	     8.246
  62.020         60.83	     8.544
  62.040         49.17	     7.681
  62.060         53.33	     8.000
  62.080         57.50	     8.307
  62.100         51.67	     7.874
  62.120         54.17	     8.062
  62.140         44.17	     7.280
  62.160         54.17	     8.062
  62.180         38.33	     6.782
  62.200         39.17	     6.856
  62.220         35.83	     6.557
  62.240         45.83	     7.416
  62.260         36.67	     6.633
  62.280         48.33	     7.616
  62.300         35.00	     6.481
  62.320         42.50	     7.141
  62.340         38.33	     6.782
  62.360         35.00	     6.481
  62.380         40.83	     7.000
  62.400         42.50	     7.141
  62.420         37.50	     6.708
  62.440         44.17	     7.280
  62.460         35.00	     6.481
  62.480         39.17	     6.856
  62.500         30.83	     6.083
  62.520         30.00	     6.000
  62.540         35.83	     6.557
  62.560         57.50	     8.307
  62.580         35.83	     6.557
  62.600         46.67	     7.483
  62.620         39.17	     6.856
  62.640         53.33	     8.000
  62.660         48.33	     7.616
  62.680         39.17	     6.856
  62.700         44.17	     7.280
  62.720         33.33	     6.325
  62.740         31.67	     6.164
  62.760         32.50	     6.245
  62.780         53.33	     8.000
  62.800         50.83	     7.810
  62.820         42.50	     7.141
  62.840         34.17	     6.403
  62.860         43.33	     7.211
  62.880         39.17	     6.856
  62.900         31.67	     6.164
  62.920         40.00	     6.928
  62.940         33.33	     6.325
  62.960         34.17	     6.403
  62.980         49.17	     7.681
  63.000         35.00	     6.481
  63.020         39.17	     6.856
  63.040         40.00	     6.928
  63.060         33.33	     6.325
  63.080         40.00	     6.928
  63.100         32.50	     6.245
  63.120         27.50	     5.745
  63.140         33.33	     6.325
  63.160         33.33	     6.325
  63.180         37.50	     6.708
  63.200         32.50	     6.245
  63.220         35.00	     6.481
  63.240         37.50	     6.708
  63.260         33.33	     6.325
  63.280         29.17	     5.916
  63.300         41.67	     7.071
  63.320         40.83	     7.000
  63.340         45.00	     7.348
  63.360         38.33	     6.782
  63.380         45.00	     7.348
  63.400         53.33	     8.000
  63.420         54.17	     8.062
  63.440         61.67	     8.602
  63.460        100.83	    11.000
  63.480        163.33	    14.000
  63.500        144.17	    13.153
  63.520        101.67	    11.045
  63.540         96.67	    10.770
  63.560         65.00	     8.832
  63.580         54.17	     8.062
  63.600         48.33	     7.616
  63.620         76.67	     9.592
  63.640         93.33	    10.583
  63.660        101.67	    11.045
  63.680        100.83	    11.000
  63.700         81.67	     9.899
  63.720         68.33	     9.055
  63.740         70.00	     9.165
  63.760         57.50	     8.307
  63.780         51.67	     7.874
  63.800         45.83	     7.416
  63.820         53.33	     8.000
  63.840         60.83	     8.544
  63.860         63.33	     8.718
  63.880         55.83	     8.185
  63.900         57.50	     8.307
  63.920         57.50	     8.307
  63.940         69.17	     9.110
  63.960         68.33	     9.055
  63.980         70.00	     9.165
  64.000         98.33	    10.863
  64.020         70.00	     9.165
  64.040        106.67	    11.314
  64.060         85.83	    10.149
  64.080         75.00	     9.487
  64.100         67.50	     9.000
  64.120         69.17	     9.110
  64.140         53.33	     8.000
  64.160         75.00	     9.487
  64.180         78.33	     9.695
  64.200         70.00	     9.165
  64.220         82.50	     9.950
  64.240         60.00	     8.485
  64.260         64.17	     8.775
  64.280         62.50	     8.660
  64.300         59.17	     8.426
  64.320         72.50	     9.327
  64.340         61.67	     8.602
  64.360         59.17	     8.426
  64.380         51.67	     7.874
  64.400         52.50	     7.937
  64.420         43.33	     7.211
  64.440         40.00	     6.928
  64.460         44.17	     7.280
  64.480         44.17	     7.280
  64.500         50.00	     7.746
  64.520         63.33	     8.718
  64.540         42.50	     7.141
  64.560         60.83	     8.544
  64.580         47.50	     7.550
  64.600         43.33	     7.211
  64.620         52.50	     7.937
  64.640         55.00	     8.124
  64.660         47.50	     7.550
  64.680         42.50	     7.141
  64.700         37.50	     6.708
  64.720         48.33	     7.616
  64.740         41.67	     7.071
  64.760         53.33	     8.000
  64.780         47.50	     7.550
  64.800         55.83	     8.185
  64.820         35.83	     6.557
  64.840         60.00	     8.485
  64.860         70.83	     9.220
  64.880         48.33	     7.616
  64.900         47.50	     7.550
  64.920         45.00	     7.348
  64.940         47.50	     7.550
  64.960         46.67	     7.483
  64.980         54.17	     8.062
  65.000         51.67	     7.874
