
Filename:
	C:\Program Files\Thermo Electron\WinXRD\Datafiles\F_HERMAN\FIEN\G21_FT.raw

File Created:
	October 04, 2019 - 03:33 PM

Specimen Id:
	G21 FT RT

Specimen Name:
	

Specimen Description:
	

Comment:
Scan Type: 2Theta Scan
Start Angle: 2 deg.
Stop Angle: 65 deg.
Num Points: 3151
Step Size: 0.02 deg.
Scan Rate: 1.000000
Scan Mode: Continuous
Wavelength: 1.540562
\Kalpha1: 1.540562	\Kalpha2: 1.544390	\Kbeta: 1.392218

Optics:
		Detector:
			 Type: Fixed Slits
		Tube: 
			 Type: Fixed Slits


Datas:
 Pos [deg]       Rate [CPS]      ESD [-]

Range 1 ---> Iteration 1
   2.000        855.83	    32.047
   2.020        887.50	    32.634
   2.040        870.83	    32.326
   2.060        814.17	    31.257
   2.080        845.83	    31.859
   2.100        863.33	    32.187
   2.120        810.83	    31.193
   2.140        791.67	    30.822
   2.160        760.00	    30.199
   2.180        745.83	    29.917
   2.200        747.50	    29.950
   2.220        770.00	    30.397
   2.240        758.33	    30.166
   2.260        748.33	    29.967
   2.280        710.00	    29.189
   2.300        703.33	    29.052
   2.320        727.50	    29.547
   2.340        684.17	    28.653
   2.360        702.50	    29.034
   2.380        685.00	    28.671
   2.400        661.67	    28.178
   2.420        660.00	    28.142
   2.440        668.33	    28.320
   2.460        651.67	    27.964
   2.480        640.00	    27.713
   2.500        673.33	    28.425
   2.520        660.83	    28.160
   2.540        585.00	    26.495
   2.560        638.33	    27.677
   2.580        611.67	    27.092
   2.600        624.17	    27.368
   2.620        584.17	    26.476
   2.640        579.17	    26.363
   2.660        584.17	    26.476
   2.680        582.50	    26.439
   2.700        610.00	    27.055
   2.720        615.00	    27.166
   2.740        567.50	    26.096
   2.760        541.67	    25.495
   2.780        579.17	    26.363
   2.800        553.33	    25.768
   2.820        538.33	    25.417
   2.840        545.83	    25.593
   2.860        511.67	    24.779
   2.880        522.50	    25.040
   2.900        526.67	    25.140
   2.920        522.50	    25.040
   2.940        508.33	    24.698
   2.960        525.83	    25.120
   2.980        504.17	    24.597
   3.000        522.50	    25.040
   3.020        515.00	    24.860
   3.040        480.83	    24.021
   3.060        499.17	    24.474
   3.080        504.17	    24.597
   3.100        498.33	    24.454
   3.120        477.50	    23.937
   3.140        505.00	    24.617
   3.160        485.83	    24.145
   3.180        500.83	    24.515
   3.200        470.83	    23.770
   3.220        455.83	    23.388
   3.240        426.67	    22.627
   3.260        475.00	    23.875
   3.280        549.17	    25.671
   3.300        453.33	    23.324
   3.320        435.83	    22.869
   3.340        440.00	    22.978
   3.360        447.50	    23.173
   3.380        437.50	    22.913
   3.400        410.00	    22.181
   3.420        421.67	    22.494
   3.440        393.33	    21.726
   3.460        436.67	    22.891
   3.480        427.50	    22.650
   3.500        413.33	    22.271
   3.520        445.83	    23.130
   3.540        415.00	    22.316
   3.560        415.83	    22.338
   3.580        435.00	    22.847
   3.600        412.50	    22.249
   3.620        377.50	    21.284
   3.640        406.67	    22.091
   3.660        394.17	    21.749
   3.680        387.50	    21.564
   3.700        379.17	    21.331
   3.720        380.00	    21.354
   3.740        360.00	    20.785
   3.760        377.50	    21.284
   3.780        418.33	    22.405
   3.800        367.50	    21.000
   3.820        366.67	    20.976
   3.840        381.67	    21.401
   3.860        349.17	    20.469
   3.880        355.83	    20.664
   3.900        370.00	    21.071
   3.920        357.50	    20.712
   3.940        368.33	    21.024
   3.960        345.83	    20.372
   3.980        356.67	    20.688
   4.000        355.83	    20.664
   4.020        348.33	    20.445
   4.040        352.50	    20.567
   4.060        322.50	    19.672
   4.080        358.33	    20.736
   4.100        350.00	    20.494
   4.120        330.83	    19.925
   4.140        351.67	    20.543
   4.160        333.33	    20.000
   4.180        345.00	    20.347
   4.200        330.83	    19.925
   4.220        326.67	    19.799
   4.240        301.67	    19.026
   4.260        355.00	    20.640
   4.280        308.33	    19.235
   4.300        315.83	    19.468
   4.320        324.17	    19.723
   4.340        365.00	    20.928
   4.360        316.67	    19.494
   4.380        319.17	    19.570
   4.400        295.00	    18.815
   4.420        336.67	    20.100
   4.440        332.50	    19.975
   4.460        319.17	    19.570
   4.480        307.50	    19.209
   4.500        298.33	    18.921
   4.520        288.33	    18.601
   4.540        305.83	    19.157
   4.560        328.33	    19.849
   4.580        326.67	    19.799
   4.600        297.50	    18.894
   4.620        314.17	    19.416
   4.640        338.33	    20.149
   4.660        297.50	    18.894
   4.680        293.33	    18.762
   4.700        295.00	    18.815
   4.720        297.50	    18.894
   4.740        269.17	    17.972
   4.760        271.67	    18.055
   4.780        295.83	    18.841
   4.800        268.33	    17.944
   4.820        245.00	    17.146
   4.840        275.83	    18.193
   4.860        281.67	    18.385
   4.880        276.67	    18.221
   4.900        275.83	    18.193
   4.920        275.00	    18.166
   4.940        281.67	    18.385
   4.960        272.50	    18.083
   4.980        249.17	    17.292
   5.000        281.67	    18.385
   5.020        271.67	    18.055
   5.040        266.67	    17.889
   5.060        277.50	    18.248
   5.080        257.50	    17.578
   5.100        284.17	    18.466
   5.120        295.83	    18.841
   5.140        265.83	    17.861
   5.160        265.00	    17.833
   5.180        241.67	    17.029
   5.200        275.83	    18.193
   5.220        243.33	    17.088
   5.240        266.67	    17.889
   5.260        250.00	    17.321
   5.280        273.33	    18.111
   5.300        274.17	    18.138
   5.320        244.17	    17.117
   5.340        245.00	    17.146
   5.360        275.00	    18.166
   5.380        253.33	    17.436
   5.400        249.17	    17.292
   5.420        270.00	    18.000
   5.440        242.50	    17.059
   5.460        287.50	    18.574
   5.480        230.83	    16.643
   5.500        285.83	    18.520
   5.520        280.00	    18.330
   5.540        278.33	    18.276
   5.560        285.83	    18.520
   5.580        260.00	    17.664
   5.600        278.33	    18.276
   5.620        280.00	    18.330
   5.640        305.00	    19.131
   5.660        257.50	    17.578
   5.680        305.00	    19.131
   5.700        308.33	    19.235
   5.720        325.00	    19.748
   5.740        336.67	    20.100
   5.760        335.00	    20.050
   5.780        379.17	    21.331
   5.800        368.33	    21.024
   5.820        430.83	    22.738
   5.840        453.33	    23.324
   5.860        500.00	    24.495
   5.880        600.00	    26.833
   5.900        581.67	    26.420
   5.920        480.00	    24.000
   5.940        475.00	    23.875
   5.960        415.83	    22.338
   5.980        388.33	    21.587
   6.000        386.67	    21.541
   6.020        411.67	    22.226
   6.040        436.67	    22.891
   6.060        461.67	    23.537
   6.080        485.83	    24.145
   6.100        505.83	    24.637
   6.120        519.17	    24.960
   6.140        566.67	    26.077
   6.160        582.50	    26.439
   6.180        470.83	    23.770
   6.200        386.67	    21.541
   6.220        324.17	    19.723
   6.240        271.67	    18.055
   6.260        279.17	    18.303
   6.280        277.50	    18.248
   6.300        261.67	    17.720
   6.320        251.67	    17.378
   6.340        264.17	    17.804
   6.360        230.00	    16.613
   6.380        260.00	    17.664
   6.400        255.83	    17.521
   6.420        232.50	    16.703
   6.440        238.33	    16.912
   6.460        236.67	    16.852
   6.480        240.00	    16.971
   6.500        240.00	    16.971
   6.520        214.17	    16.031
   6.540        234.17	    16.763
   6.560        240.00	    16.971
   6.580        230.83	    16.643
   6.600        218.33	    16.186
   6.620        221.67	    16.310
   6.640        230.83	    16.643
   6.660        233.33	    16.733
   6.680        237.50	    16.882
   6.700        242.50	    17.059
   6.720        232.50	    16.703
   6.740        221.67	    16.310
   6.760        234.17	    16.763
   6.780        225.00	    16.432
   6.800        214.17	    16.031
   6.820        220.00	    16.248
   6.840        205.83	    15.716
   6.860        215.83	    16.093
   6.880        229.17	    16.583
   6.900        205.00	    15.684
   6.920        200.83	    15.524
   6.940        217.50	    16.155
   6.960        226.67	    16.492
   6.980        218.33	    16.186
   7.000        170.83	    14.318
   7.020        193.33	    15.232
   7.040        202.50	    15.588
   7.060        170.83	    14.318
   7.080        208.33	    15.811
   7.100        201.67	    15.556
   7.120        190.83	    15.133
   7.140        188.33	    15.033
   7.160        215.83	    16.093
   7.180        180.00	    14.697
   7.200        190.83	    15.133
   7.220        205.00	    15.684
   7.240        175.83	    14.526
   7.260        184.17	    14.866
   7.280        180.00	    14.697
   7.300        175.83	    14.526
   7.320        210.00	    15.875
   7.340        205.00	    15.684
   7.360        175.83	    14.526
   7.380        187.50	    15.000
   7.400        175.00	    14.491
   7.420        179.17	    14.663
   7.440        178.33	    14.629
   7.460        175.83	    14.526
   7.480        195.83	    15.330
   7.500        200.83	    15.524
   7.520        190.83	    15.133
   7.540        163.33	    14.000
   7.560        182.50	    14.799
   7.580        161.67	    13.928
   7.600        185.83	    14.933
   7.620        180.00	    14.697
   7.640        176.67	    14.560
   7.660        150.00	    13.416
   7.680        160.00	    13.856
   7.700        201.67	    15.556
   7.720        168.33	    14.213
   7.740        165.00	    14.071
   7.760        170.00	    14.283
   7.780        180.83	    14.731
   7.800        196.67	    15.362
   7.820        167.50	    14.177
   7.840        173.33	    14.422
   7.860        177.50	    14.595
   7.880        157.50	    13.748
   7.900        169.17	    14.248
   7.920        182.50	    14.799
   7.940        170.00	    14.283
   7.960        175.00	    14.491
   7.980        166.67	    14.142
   8.000        170.83	    14.318
   8.020        169.17	    14.248
   8.040        161.67	    13.928
   8.060        184.17	    14.866
   8.080        170.00	    14.283
   8.100        173.33	    14.422
   8.120        172.50	    14.387
   8.140        179.17	    14.663
   8.160        196.67	    15.362
   8.180        171.67	    14.353
   8.200        185.83	    14.933
   8.220        190.00	    15.100
   8.240        184.17	    14.866
   8.260        195.83	    15.330
   8.280        190.83	    15.133
   8.300        189.17	    15.067
   8.320        170.00	    14.283
   8.340        194.17	    15.264
   8.360        217.50	    16.155
   8.380        199.17	    15.460
   8.400        194.17	    15.264
   8.420        215.83	    16.093
   8.440        220.00	    16.248
   8.460        229.17	    16.583
   8.480        232.50	    16.703
   8.500        232.50	    16.703
   8.520        263.33	    17.776
   8.540        266.67	    17.889
   8.560        261.67	    17.720
   8.580        320.83	    19.621
   8.600        327.50	    19.824
   8.620        417.50	    22.383
   8.640        435.00	    22.847
   8.660        491.67	    24.290
   8.680        549.17	    25.671
   8.700        621.67	    27.313
   8.720        817.50	    31.321
   8.740       1178.33	    37.603
   8.760       1776.67	    46.174
   8.780       2222.50	    51.643
   8.800       2489.17	    54.653
   8.820       2146.67	    50.754
   8.840       1310.83	    39.661
   8.860        693.33	    28.844
   8.880        391.67	    21.679
   8.900        269.17	    17.972
   8.920        263.33	    17.776
   8.940        239.17	    16.941
   8.960        234.17	    16.763
   8.980        206.67	    15.748
   9.000        214.17	    16.031
   9.020        206.67	    15.748
   9.040        246.67	    17.205
   9.060        271.67	    18.055
   9.080        345.83	    20.372
   9.100        336.67	    20.100
   9.120        309.17	    19.261
   9.140        269.17	    17.972
   9.160        226.67	    16.492
   9.180        189.17	    15.067
   9.200        167.50	    14.177
   9.220        166.67	    14.142
   9.240        170.83	    14.318
   9.260        175.00	    14.491
   9.280        167.50	    14.177
   9.300        166.67	    14.142
   9.320        164.17	    14.036
   9.340        209.17	    15.843
   9.360        214.17	    16.031
   9.380        210.83	    15.906
   9.400        181.67	    14.765
   9.420        131.67	    12.570
   9.440        146.67	    13.266
   9.460        150.00	    13.416
   9.480        151.67	    13.491
   9.500        142.50	    13.077
   9.520        180.00	    14.697
   9.540        167.50	    14.177
   9.560        151.67	    13.491
   9.580        145.00	    13.191
   9.600        155.00	    13.638
   9.620        149.17	    13.379
   9.640        146.67	    13.266
   9.660        140.83	    13.000
   9.680        155.83	    13.675
   9.700        149.17	    13.379
   9.720        127.50	    12.369
   9.740        141.67	    13.038
   9.760        144.17	    13.153
   9.780        119.17	    11.958
   9.800        119.17	    11.958
   9.820        125.00	    12.247
   9.840        135.00	    12.728
   9.860        134.17	    12.689
   9.880        148.33	    13.342
   9.900        126.67	    12.329
   9.920        123.33	    12.166
   9.940        120.83	    12.042
   9.960        115.00	    11.747
   9.980        140.00	    12.961
  10.000        128.33	    12.410
  10.020        120.00	    12.000
  10.040        117.50	    11.874
  10.060        115.83	    11.790
  10.080        119.17	    11.958
  10.100        110.83	    11.533
  10.120        130.83	    12.530
  10.140        130.00	    12.490
  10.160        118.33	    11.916
  10.180        148.33	    13.342
  10.200        110.83	    11.533
  10.220        127.50	    12.369
  10.240        107.50	    11.358
  10.260        126.67	    12.329
  10.280        124.17	    12.207
  10.300        124.17	    12.207
  10.320        135.83	    12.767
  10.340        172.50	    14.387
  10.360        198.33	    15.427
  10.380        218.33	    16.186
  10.400        217.50	    16.155
  10.420        231.67	    16.673
  10.440        235.00	    16.793
  10.460        237.50	    16.882
  10.480        197.50	    15.395
  10.500        167.50	    14.177
  10.520        124.17	    12.207
  10.540        130.00	    12.490
  10.560        114.17	    11.705
  10.580        135.00	    12.728
  10.600        110.00	    11.489
  10.620        102.50	    11.091
  10.640        130.00	    12.490
  10.660        126.67	    12.329
  10.680        109.17	    11.446
  10.700        105.00	    11.225
  10.720        109.17	    11.446
  10.740        119.17	    11.958
  10.760        105.83	    11.269
  10.780        115.00	    11.747
  10.800        130.83	    12.530
  10.820        130.00	    12.490
  10.840        100.00	    10.954
  10.860        103.33	    11.136
  10.880        125.00	    12.247
  10.900        104.17	    11.180
  10.920        101.67	    11.045
  10.940        117.50	    11.874
  10.960         85.00	    10.100
  10.980        100.83	    11.000
  11.000        110.00	    11.489
  11.020        109.17	    11.446
  11.040        117.50	    11.874
  11.060        109.17	    11.446
  11.080        100.00	    10.954
  11.100        112.50	    11.619
  11.120        110.00	    11.489
  11.140        129.17	    12.450
  11.160        120.00	    12.000
  11.180        132.50	    12.610
  11.200        124.17	    12.207
  11.220         90.83	    10.440
  11.240        120.00	    12.000
  11.260        114.17	    11.705
  11.280        117.50	    11.874
  11.300        105.83	    11.269
  11.320        101.67	    11.045
  11.340        110.00	    11.489
  11.360         97.50	    10.817
  11.380        104.17	    11.180
  11.400        118.33	    11.916
  11.420        105.00	    11.225
  11.440        105.00	    11.225
  11.460        100.83	    11.000
  11.480        110.83	    11.533
  11.500        113.33	    11.662
  11.520        114.17	    11.705
  11.540        104.17	    11.180
  11.560        106.67	    11.314
  11.580        111.67	    11.576
  11.600        103.33	    11.136
  11.620        113.33	    11.662
  11.640        105.00	    11.225
  11.660        100.00	    10.954
  11.680        113.33	    11.662
  11.700        121.67	    12.083
  11.720         98.33	    10.863
  11.740        116.67	    11.832
  11.760        118.33	    11.916
  11.780        128.33	    12.410
  11.800        131.67	    12.570
  11.820        135.00	    12.728
  11.840        139.17	    12.923
  11.860        137.50	    12.845
  11.880        157.50	    13.748
  11.900        142.50	    13.077
  11.920        125.83	    12.288
  11.940        145.00	    13.191
  11.960        177.50	    14.595
  11.980        169.17	    14.248
  12.000        204.17	    15.652
  12.020        295.83	    18.841
  12.040        364.17	    20.905
  12.060        473.33	    23.833
  12.080        623.33	    27.350
  12.100        756.67	    30.133
  12.120        646.67	    27.857
  12.140        530.00	    25.219
  12.160        386.67	    21.541
  12.180        280.00	    18.330
  12.200        251.67	    17.378
  12.220        265.00	    17.833
  12.240        307.50	    19.209
  12.260        335.83	    20.075
  12.280        332.50	    19.975
  12.300        345.83	    20.372
  12.320        371.67	    21.119
  12.340        423.33	    22.539
  12.360        558.33	    25.884
  12.380        720.83	    29.411
  12.400        903.33	    32.924
  12.420        984.17	    34.366
  12.440        825.00	    31.464
  12.460        547.50	    25.632
  12.480        362.50	    20.857
  12.500        214.17	    16.031
  12.520        155.83	    13.675
  12.540        147.50	    13.304
  12.560        125.00	    12.247
  12.580        116.67	    11.832
  12.600        117.50	    11.874
  12.620        105.83	    11.269
  12.640        111.67	    11.576
  12.660        117.50	    11.874
  12.680        101.67	    11.045
  12.700        105.83	    11.269
  12.720        106.67	    11.314
  12.740        107.50	    11.358
  12.760        108.33	    11.402
  12.780         87.50	    10.247
  12.800         95.00	    10.677
  12.820         92.50	    10.536
  12.840        102.50	    11.091
  12.860        104.17	    11.180
  12.880        103.33	    11.136
  12.900         93.33	    10.583
  12.920         96.67	    10.770
  12.940        104.17	    11.180
  12.960         85.83	    10.149
  12.980         98.33	    10.863
  13.000         90.00	    10.392
  13.020         91.67	    10.488
  13.040         82.50	     9.950
  13.060         97.50	    10.817
  13.080         91.67	    10.488
  13.100         88.33	    10.296
  13.120        100.83	    11.000
  13.140        110.00	    11.489
  13.160        101.67	    11.045
  13.180        104.17	    11.180
  13.200         99.17	    10.909
  13.220         88.33	    10.296
  13.240         90.83	    10.440
  13.260         88.33	    10.296
  13.280        110.00	    11.489
  13.300         92.50	    10.536
  13.320         80.00	     9.798
  13.340         80.00	     9.798
  13.360         90.00	    10.392
  13.380        105.00	    11.225
  13.400         99.17	    10.909
  13.420        113.33	    11.662
  13.440         89.17	    10.344
  13.460        101.67	    11.045
  13.480        105.00	    11.225
  13.500         99.17	    10.909
  13.520        109.17	    11.446
  13.540        120.00	    12.000
  13.560        122.50	    12.124
  13.580        104.17	    11.180
  13.600        110.00	    11.489
  13.620         97.50	    10.817
  13.640        110.00	    11.489
  13.660        117.50	    11.874
  13.680        105.00	    11.225
  13.700         96.67	    10.770
  13.720        130.83	    12.530
  13.740        145.83	    13.229
  13.760        179.17	    14.663
  13.780        163.33	    14.000
  13.800        135.00	    12.728
  13.820        122.50	    12.124
  13.840        101.67	    11.045
  13.860        113.33	    11.662
  13.880        100.00	    10.954
  13.900         94.17	    10.630
  13.920         82.50	     9.950
  13.940        104.17	    11.180
  13.960         89.17	    10.344
  13.980         85.00	    10.100
  14.000         84.17	    10.050
  14.020         87.50	    10.247
  14.040         85.00	    10.100
  14.060         81.67	     9.899
  14.080         87.50	    10.247
  14.100         92.50	    10.536
  14.120         79.17	     9.747
  14.140         82.50	     9.950
  14.160         85.00	    10.100
  14.180         80.00	     9.798
  14.200         80.00	     9.798
  14.220         70.83	     9.220
  14.240         87.50	    10.247
  14.260         80.00	     9.798
  14.280         74.17	     9.434
  14.300         78.33	     9.695
  14.320         80.83	     9.849
  14.340         83.33	    10.000
  14.360         73.33	     9.381
  14.380         75.83	     9.539
  14.400         72.50	     9.327
  14.420         72.50	     9.327
  14.440         74.17	     9.434
  14.460         89.17	    10.344
  14.480         81.67	     9.899
  14.500         68.33	     9.055
  14.520         80.83	     9.849
  14.540         71.67	     9.274
  14.560         75.83	     9.539
  14.580         74.17	     9.434
  14.600         70.83	     9.220
  14.620         91.67	    10.488
  14.640         75.00	     9.487
  14.660         60.00	     8.485
  14.680         75.00	     9.487
  14.700         65.83	     8.888
  14.720         80.83	     9.849
  14.740         90.83	    10.440
  14.760         73.33	     9.381
  14.780         63.33	     8.718
  14.800         77.50	     9.644
  14.820         99.17	    10.909
  14.840         70.83	     9.220
  14.860         90.83	    10.440
  14.880        114.17	    11.705
  14.900        119.17	    11.958
  14.920         99.17	    10.909
  14.940         90.83	    10.440
  14.960         92.50	    10.536
  14.980         94.17	    10.630
  15.000         78.33	     9.695
  15.020         75.83	     9.539
  15.040         80.00	     9.798
  15.060         85.00	    10.100
  15.080         84.17	    10.050
  15.100         82.50	     9.950
  15.120         88.33	    10.296
  15.140         75.83	     9.539
  15.160         64.17	     8.775
  15.180         82.50	     9.950
  15.200         67.50	     9.000
  15.220         68.33	     9.055
  15.240         80.83	     9.849
  15.260         82.50	     9.950
  15.280         64.17	     8.775
  15.300         62.50	     8.660
  15.320         77.50	     9.644
  15.340         83.33	    10.000
  15.360         75.00	     9.487
  15.380         68.33	     9.055
  15.400         76.67	     9.592
  15.420         65.83	     8.888
  15.440         74.17	     9.434
  15.460         67.50	     9.000
  15.480         95.83	    10.724
  15.500         79.17	     9.747
  15.520         71.67	     9.274
  15.540         65.00	     8.832
  15.560         66.67	     8.944
  15.580         67.50	     9.000
  15.600         69.17	     9.110
  15.620         67.50	     9.000
  15.640         71.67	     9.274
  15.660         67.50	     9.000
  15.680         73.33	     9.381
  15.700         72.50	     9.327
  15.720         74.17	     9.434
  15.740         82.50	     9.950
  15.760         73.33	     9.381
  15.780         85.00	    10.100
  15.800         66.67	     8.944
  15.820         75.83	     9.539
  15.840         70.00	     9.165
  15.860         61.67	     8.602
  15.880         69.17	     9.110
  15.900         61.67	     8.602
  15.920         77.50	     9.644
  15.940         79.17	     9.747
  15.960         70.00	     9.165
  15.980         70.00	     9.165
  16.000         64.17	     8.775
  16.020         70.83	     9.220
  16.040         68.33	     9.055
  16.060         74.17	     9.434
  16.080         72.50	     9.327
  16.100         72.50	     9.327
  16.120         85.83	    10.149
  16.140         82.50	     9.950
  16.160         70.83	     9.220
  16.180         84.17	    10.050
  16.200         69.17	     9.110
  16.220         57.50	     8.307
  16.240         67.50	     9.000
  16.260         74.17	     9.434
  16.280         81.67	     9.899
  16.300         63.33	     8.718
  16.320         65.83	     8.888
  16.340         67.50	     9.000
  16.360         86.67	    10.198
  16.380         85.00	    10.100
  16.400         71.67	     9.274
  16.420         70.00	     9.165
  16.440         74.17	     9.434
  16.460         75.00	     9.487
  16.480         62.50	     8.660
  16.500         66.67	     8.944
  16.520         66.67	     8.944
  16.540         71.67	     9.274
  16.560         63.33	     8.718
  16.580         59.17	     8.426
  16.600         68.33	     9.055
  16.620         70.00	     9.165
  16.640         76.67	     9.592
  16.660         63.33	     8.718
  16.680         71.67	     9.274
  16.700         62.50	     8.660
  16.720         58.33	     8.367
  16.740         73.33	     9.381
  16.760         70.83	     9.220
  16.780         75.00	     9.487
  16.800         80.83	     9.849
  16.820         66.67	     8.944
  16.840         66.67	     8.944
  16.860         74.17	     9.434
  16.880         77.50	     9.644
  16.900         81.67	     9.899
  16.920         75.00	     9.487
  16.940         84.17	    10.050
  16.960         64.17	     8.775
  16.980         70.00	     9.165
  17.000         73.33	     9.381
  17.020         75.83	     9.539
  17.040         62.50	     8.660
  17.060         58.33	     8.367
  17.080         63.33	     8.718
  17.100         65.00	     8.832
  17.120         64.17	     8.775
  17.140         65.83	     8.888
  17.160         75.83	     9.539
  17.180         71.67	     9.274
  17.200         74.17	     9.434
  17.220         67.50	     9.000
  17.240         62.50	     8.660
  17.260         80.83	     9.849
  17.280         68.33	     9.055
  17.300         65.83	     8.888
  17.320         74.17	     9.434
  17.340         92.50	    10.536
  17.360         88.33	    10.296
  17.380         75.83	     9.539
  17.400         83.33	    10.000
  17.420         76.67	     9.592
  17.440         70.00	     9.165
  17.460         75.00	     9.487
  17.480         80.83	     9.849
  17.500         95.83	    10.724
  17.520         92.50	    10.536
  17.540         90.83	    10.440
  17.560         95.00	    10.677
  17.580         99.17	    10.909
  17.600        149.17	    13.379
  17.620        151.67	    13.491
  17.640        195.00	    15.297
  17.660        275.83	    18.193
  17.680        367.50	    21.000
  17.700        569.17	    26.134
  17.720        680.00	    28.566
  17.740        815.00	    31.273
  17.760        850.00	    31.937
  17.780        658.33	    28.107
  17.800        490.00	    24.249
  17.820        350.00	    20.494
  17.840        174.17	    14.457
  17.860        107.50	    11.358
  17.880        117.50	    11.874
  17.900        104.17	    11.180
  17.920         91.67	    10.488
  17.940         89.17	    10.344
  17.960        105.00	    11.225
  17.980         80.83	     9.849
  18.000         69.17	     9.110
  18.020         64.17	     8.775
  18.040         78.33	     9.695
  18.060         76.67	     9.592
  18.080         85.83	    10.149
  18.100         92.50	    10.536
  18.120         65.83	     8.888
  18.140         73.33	     9.381
  18.160         86.67	    10.198
  18.180         91.67	    10.488
  18.200         76.67	     9.592
  18.220         79.17	     9.747
  18.240         69.17	     9.110
  18.260        106.67	    11.314
  18.280        120.00	    12.000
  18.300        158.33	    13.784
  18.320        205.83	    15.716
  18.340        225.00	    16.432
  18.360        215.00	    16.062
  18.380        157.50	    13.748
  18.400        135.83	    12.767
  18.420        124.17	    12.207
  18.440        138.33	    12.884
  18.460        134.17	    12.689
  18.480        150.83	    13.454
  18.500        125.83	    12.288
  18.520        140.83	    13.000
  18.540        121.67	    12.083
  18.560        118.33	    11.916
  18.580        115.83	    11.790
  18.600        142.50	    13.077
  18.620        184.17	    14.866
  18.640        200.83	    15.524
  18.660        254.17	    17.464
  18.680        320.83	    19.621
  18.700        346.67	    20.396
  18.720        370.83	    21.095
  18.740        327.50	    19.824
  18.760        258.33	    17.607
  18.780        190.00	    15.100
  18.800        160.83	    13.892
  18.820        117.50	    11.874
  18.840        108.33	    11.402
  18.860         96.67	    10.770
  18.880         90.83	    10.440
  18.900         73.33	     9.381
  18.920         84.17	    10.050
  18.940         86.67	    10.198
  18.960         87.50	    10.247
  18.980         75.00	     9.487
  19.000         68.33	     9.055
  19.020         87.50	    10.247
  19.040         78.33	     9.695
  19.060         82.50	     9.950
  19.080         95.00	    10.677
  19.100        100.83	    11.000
  19.120         95.00	    10.677
  19.140         84.17	    10.050
  19.160         88.33	    10.296
  19.180         80.00	     9.798
  19.200         96.67	    10.770
  19.220        104.17	    11.180
  19.240         72.50	     9.327
  19.260         83.33	    10.000
  19.280         84.17	    10.050
  19.300         81.67	     9.899
  19.320         89.17	    10.344
  19.340         78.33	     9.695
  19.360         73.33	     9.381
  19.380         83.33	    10.000
  19.400         64.17	     8.775
  19.420         73.33	     9.381
  19.440         72.50	     9.327
  19.460         73.33	     9.381
  19.480         75.00	     9.487
  19.500         95.00	    10.677
  19.520         95.00	    10.677
  19.540         83.33	    10.000
  19.560        100.00	    10.954
  19.580         95.83	    10.724
  19.600         95.00	    10.677
  19.620         90.00	    10.392
  19.640         98.33	    10.863
  19.660        110.83	    11.533
  19.680        101.67	    11.045
  19.700        100.83	    11.000
  19.720        111.67	    11.576
  19.740        123.33	    12.166
  19.760        120.83	    12.042
  19.780        127.50	    12.369
  19.800        105.00	    11.225
  19.820        103.33	    11.136
  19.840        115.83	    11.790
  19.860         91.67	    10.488
  19.880         90.83	    10.440
  19.900         75.83	     9.539
  19.920         92.50	    10.536
  19.940         85.83	    10.149
  19.960         79.17	     9.747
  19.980         73.33	     9.381
  20.000         73.33	     9.381
  20.020         78.33	     9.695
  20.040         78.33	     9.695
  20.060         77.50	     9.644
  20.080         70.83	     9.220
  20.100         83.33	    10.000
  20.120         86.67	    10.198
  20.140         86.67	    10.198
  20.160         65.83	     8.888
  20.180         70.83	     9.220
  20.200         77.50	     9.644
  20.220         77.50	     9.644
  20.240         76.67	     9.592
  20.260         75.00	     9.487
  20.280         60.83	     8.544
  20.300         76.67	     9.592
  20.320         72.50	     9.327
  20.340         79.17	     9.747
  20.360         77.50	     9.644
  20.380         65.83	     8.888
  20.400         69.17	     9.110
  20.420         68.33	     9.055
  20.440         64.17	     8.775
  20.460         80.00	     9.798
  20.480         65.83	     8.888
  20.500         58.33	     8.367
  20.520         80.83	     9.849
  20.540         86.67	    10.198
  20.560         90.83	    10.440
  20.580         87.50	    10.247
  20.600         80.00	     9.798
  20.620         80.00	     9.798
  20.640        110.83	    11.533
  20.660        120.83	    12.042
  20.680        169.17	    14.248
  20.700        274.17	    18.138
  20.720        494.17	    24.352
  20.740        657.50	    28.089
  20.760        967.50	    34.073
  20.780       1061.67	    35.693
  20.800        887.50	    32.634
  20.820        692.50	    28.827
  20.840        465.83	    23.643
  20.860        273.33	    18.111
  20.880        178.33	    14.629
  20.900        133.33	    12.649
  20.920        119.17	    11.958
  20.940        125.00	    12.247
  20.960        113.33	    11.662
  20.980        104.17	    11.180
  21.000        100.83	    11.000
  21.020         86.67	    10.198
  21.040         91.67	    10.488
  21.060         89.17	    10.344
  21.080         81.67	     9.899
  21.100         75.00	     9.487
  21.120         58.33	     8.367
  21.140         74.17	     9.434
  21.160         71.67	     9.274
  21.180         63.33	     8.718
  21.200         73.33	     9.381
  21.220         74.17	     9.434
  21.240         78.33	     9.695
  21.260         65.83	     8.888
  21.280         64.17	     8.775
  21.300         48.33	     7.616
  21.320         54.17	     8.062
  21.340         64.17	     8.775
  21.360         70.83	     9.220
  21.380         61.67	     8.602
  21.400         53.33	     8.000
  21.420         63.33	     8.718
  21.440         64.17	     8.775
  21.460         82.50	     9.950
  21.480         68.33	     9.055
  21.500         70.83	     9.220
  21.520         70.00	     9.165
  21.540         85.83	    10.149
  21.560         85.83	    10.149
  21.580         69.17	     9.110
  21.600         51.67	     7.874
  21.620         70.00	     9.165
  21.640         55.83	     8.185
  21.660         76.67	     9.592
  21.680         55.83	     8.185
  21.700         64.17	     8.775
  21.720         63.33	     8.718
  21.740         64.17	     8.775
  21.760         79.17	     9.747
  21.780         73.33	     9.381
  21.800         86.67	    10.198
  21.820         80.00	     9.798
  21.840         75.83	     9.539
  21.860         83.33	    10.000
  21.880        107.50	    11.358
  21.900        149.17	    13.379
  21.920        228.33	    16.553
  21.940        222.50	    16.340
  21.960        227.50	    16.523
  21.980        231.67	    16.673
  22.000        179.17	    14.663
  22.020        147.50	    13.304
  22.040        127.50	    12.369
  22.060         96.67	    10.770
  22.080         76.67	     9.592
  22.100         68.33	     9.055
  22.120         82.50	     9.950
  22.140         61.67	     8.602
  22.160         81.67	     9.899
  22.180         70.00	     9.165
  22.200         76.67	     9.592
  22.220         70.00	     9.165
  22.240         70.83	     9.220
  22.260         74.17	     9.434
  22.280         70.00	     9.165
  22.300         85.00	    10.100
  22.320         77.50	     9.644
  22.340         80.00	     9.798
  22.360         75.83	     9.539
  22.380         75.00	     9.487
  22.400         85.00	    10.100
  22.420         81.67	     9.899
  22.440         78.33	     9.695
  22.460         69.17	     9.110
  22.480         62.50	     8.660
  22.500         80.83	     9.849
  22.520         76.67	     9.592
  22.540         72.50	     9.327
  22.560         70.00	     9.165
  22.580         75.83	     9.539
  22.600         65.00	     8.832
  22.620         80.83	     9.849
  22.640         64.17	     8.775
  22.660         63.33	     8.718
  22.680         72.50	     9.327
  22.700         74.17	     9.434
  22.720         85.00	    10.100
  22.740         88.33	    10.296
  22.760         96.67	    10.770
  22.780        106.67	    11.314
  22.800        108.33	    11.402
  22.820        102.50	    11.091
  22.840        109.17	    11.446
  22.860        131.67	    12.570
  22.880        133.33	    12.649
  22.900         99.17	    10.909
  22.920        105.83	    11.269
  22.940        110.83	    11.533
  22.960        130.00	    12.490
  22.980        100.83	    11.000
  23.000        108.33	    11.402
  23.020        105.83	    11.269
  23.040         93.33	    10.583
  23.060         78.33	     9.695
  23.080         75.00	     9.487
  23.100         63.33	     8.718
  23.120         82.50	     9.950
  23.140         85.00	    10.100
  23.160         79.17	     9.747
  23.180         70.83	     9.220
  23.200         77.50	     9.644
  23.220         64.17	     8.775
  23.240         75.83	     9.539
  23.260         79.17	     9.747
  23.280         80.00	     9.798
  23.300         93.33	    10.583
  23.320         72.50	     9.327
  23.340        101.67	    11.045
  23.360        110.00	    11.489
  23.380        136.67	    12.806
  23.400        142.50	    13.077
  23.420        261.67	    17.720
  23.440        302.50	    19.053
  23.460        304.17	    19.105
  23.480        285.83	    18.520
  23.500        272.50	    18.083
  23.520        265.83	    17.861
  23.540        205.00	    15.684
  23.560        134.17	    12.689
  23.580        127.50	    12.369
  23.600        100.83	    11.000
  23.620         85.83	    10.149
  23.640         96.67	    10.770
  23.660         85.00	    10.100
  23.680         87.50	    10.247
  23.700         95.83	    10.724
  23.720        126.67	    12.329
  23.740        110.00	    11.489
  23.760        113.33	    11.662
  23.780        106.67	    11.314
  23.800        105.83	    11.269
  23.820         91.67	    10.488
  23.840         92.50	    10.536
  23.860        108.33	    11.402
  23.880         95.83	    10.724
  23.900        127.50	    12.369
  23.920        105.83	    11.269
  23.940        111.67	    11.576
  23.960        103.33	    11.136
  23.980        116.67	    11.832
  24.000        110.00	    11.489
  24.020        133.33	    12.649
  24.040        152.50	    13.528
  24.060        165.00	    14.071
  24.080        150.83	    13.454
  24.100        141.67	    13.038
  24.120        153.33	    13.565
  24.140        150.00	    13.416
  24.160        180.00	    14.697
  24.180        205.83	    15.716
  24.200        179.17	    14.663
  24.220        202.50	    15.588
  24.240        167.50	    14.177
  24.260        147.50	    13.304
  24.280        135.00	    12.728
  24.300        131.67	    12.570
  24.320        100.83	    11.000
  24.340        103.33	    11.136
  24.360         96.67	    10.770
  24.380        115.83	    11.790
  24.400        124.17	    12.207
  24.420        167.50	    14.177
  24.440        262.50	    17.748
  24.460        304.17	    19.105
  24.480        341.67	    20.248
  24.500        413.33	    22.271
  24.520        414.17	    22.293
  24.540        446.67	    23.152
  24.560        419.17	    22.428
  24.580        390.83	    21.656
  24.600        315.00	    19.442
  24.620        255.83	    17.521
  24.640        238.33	    16.912
  24.660        187.50	    15.000
  24.680        157.50	    13.748
  24.700        174.17	    14.457
  24.720        178.33	    14.629
  24.740        160.00	    13.856
  24.760        160.83	    13.892
  24.780        156.67	    13.711
  24.800        143.33	    13.115
  24.820        150.00	    13.416
  24.840        145.83	    13.229
  24.860        150.00	    13.416
  24.880        166.67	    14.142
  24.900        155.83	    13.675
  24.920        152.50	    13.528
  24.940        186.67	    14.967
  24.960        223.33	    16.371
  24.980        263.33	    17.776
  25.000        310.83	    19.313
  25.020        352.50	    20.567
  25.040        507.50	    24.678
  25.060        576.67	    26.306
  25.080        572.50	    26.211
  25.100        606.67	    26.981
  25.120        556.67	    25.846
  25.140        401.67	    21.954
  25.160        311.67	    19.339
  25.180        225.83	    16.462
  25.200        177.50	    14.595
  25.220        145.00	    13.191
  25.240        111.67	    11.576
  25.260        130.00	    12.490
  25.280        196.67	    15.362
  25.300        247.50	    17.234
  25.320        230.83	    16.643
  25.340        193.33	    15.232
  25.360        224.17	    16.401
  25.380        212.50	    15.969
  25.400        191.67	    15.166
  25.420        190.83	    15.133
  25.440        210.83	    15.906
  25.460        180.83	    14.731
  25.480        189.17	    15.067
  25.500        163.33	    14.000
  25.520        197.50	    15.395
  25.540        182.50	    14.799
  25.560        181.67	    14.765
  25.580        194.17	    15.264
  25.600        144.17	    13.153
  25.620        153.33	    13.565
  25.640        137.50	    12.845
  25.660        133.33	    12.649
  25.680        106.67	    11.314
  25.700        109.17	    11.446
  25.720        106.67	    11.314
  25.740         91.67	    10.488
  25.760         96.67	    10.770
  25.780        100.83	    11.000
  25.800        103.33	    11.136
  25.820         82.50	     9.950
  25.840         81.67	     9.899
  25.860         75.83	     9.539
  25.880         95.83	    10.724
  25.900         78.33	     9.695
  25.920         95.00	    10.677
  25.940         90.00	    10.392
  25.960        100.00	    10.954
  25.980        101.67	    11.045
  26.000        105.83	    11.269
  26.020         73.33	     9.381
  26.040        122.50	    12.124
  26.060        110.00	    11.489
  26.080         93.33	    10.583
  26.100        115.83	    11.790
  26.120        116.67	    11.832
  26.140        125.00	    12.247
  26.160        117.50	    11.874
  26.180        122.50	    12.124
  26.200        139.17	    12.923
  26.220        135.00	    12.728
  26.240        165.83	    14.107
  26.260        182.50	    14.799
  26.280        218.33	    16.186
  26.300        285.83	    18.520
  26.320        345.83	    20.372
  26.340        385.00	    21.494
  26.360        316.67	    19.494
  26.380        335.83	    20.075
  26.400        370.00	    21.071
  26.420        315.83	    19.468
  26.440        395.00	    21.772
  26.460        477.50	    23.937
  26.480        700.00	    28.983
  26.500       1304.17	    39.560
  26.520       2585.83	    55.705
  26.540       4510.83	    73.573
  26.560       5073.33	    78.026
  26.580       3802.50	    67.550
  26.600       3079.17	    60.787
  26.620       2840.00	    58.378
  26.640       2119.17	    50.428
  26.660       1262.50	    38.923
  26.680        793.33	    30.854
  26.700        825.83	    31.480
  26.720        970.83	    34.132
  26.740       1315.00	    39.724
  26.760       1564.17	    43.324
  26.780       1767.50	    46.054
  26.800       2085.83	    50.030
  26.820       2057.50	    49.689
  26.840       1578.33	    43.520
  26.860       1221.67	    38.288
  26.880       1016.67	    34.928
  26.900        686.67	    28.705
  26.920        450.00	    23.238
  26.940        295.83	    18.841
  26.960        240.00	    16.971
  26.980        210.00	    15.875
  27.000        190.00	    15.100
  27.020        193.33	    15.232
  27.040        165.00	    14.071
  27.060        144.17	    13.153
  27.080        139.17	    12.923
  27.100        139.17	    12.923
  27.120        120.00	    12.000
  27.140        135.83	    12.767
  27.160        126.67	    12.329
  27.180        120.00	    12.000
  27.200        148.33	    13.342
  27.220        173.33	    14.422
  27.240        209.17	    15.843
  27.260        175.00	    14.491
  27.280        138.33	    12.884
  27.300        149.17	    13.379
  27.320        168.33	    14.213
  27.340        175.83	    14.526
  27.360        187.50	    15.000
  27.380        242.50	    17.059
  27.400        361.67	    20.833
  27.420        480.00	    24.000
  27.440        450.83	    23.259
  27.460        339.17	    20.174
  27.480        329.17	    19.875
  27.500        326.67	    19.799
  27.520        270.83	    18.028
  27.540        207.50	    15.780
  27.560        190.83	    15.133
  27.580        205.00	    15.684
  27.600        285.00	    18.493
  27.620        449.17	    23.216
  27.640        635.00	    27.604
  27.660        699.17	    28.965
  27.680        803.33	    31.048
  27.700        819.17	    31.353
  27.720        715.83	    29.309
  27.740        677.50	    28.513
  27.760        646.67	    27.857
  27.780        563.33	    26.000
  27.800        636.67	    27.641
  27.820        781.67	    30.627
  27.840        779.17	    30.578
  27.860        639.17	    27.695
  27.880        620.83	    27.295
  27.900        570.00	    26.153
  27.920        505.83	    24.637
  27.940        345.00	    20.347
  27.960        265.00	    17.833
  27.980        228.33	    16.553
  28.000        180.83	    14.731
  28.020        210.83	    15.906
  28.040        205.83	    15.716
  28.060        189.17	    15.067
  28.080        186.67	    14.967
  28.100        175.83	    14.526
  28.120        165.83	    14.107
  28.140        158.33	    13.784
  28.160        185.00	    14.900
  28.180        177.50	    14.595
  28.200        195.00	    15.297
  28.220        194.17	    15.264
  28.240        195.83	    15.330
  28.260        168.33	    14.213
  28.280        145.83	    13.229
  28.300        130.00	    12.490
  28.320        120.83	    12.042
  28.340         95.00	    10.677
  28.360        100.83	    11.000
  28.380         75.00	     9.487
  28.400         81.67	     9.899
  28.420        100.00	    10.954
  28.440        143.33	    13.115
  28.460        148.33	    13.342
  28.480        120.00	    12.000
  28.500        170.00	    14.283
  28.520        160.00	    13.856
  28.540        134.17	    12.689
  28.560        133.33	    12.649
  28.580        133.33	    12.649
  28.600        132.50	    12.610
  28.620        137.50	    12.845
  28.640        122.50	    12.124
  28.660        111.67	    11.576
  28.680        120.00	    12.000
  28.700        100.83	    11.000
  28.720        123.33	    12.166
  28.740         91.67	    10.488
  28.760         73.33	     9.381
  28.780         58.33	     8.367
  28.800         89.17	    10.344
  28.820         60.83	     8.544
  28.840         75.00	     9.487
  28.860         58.33	     8.367
  28.880         61.67	     8.602
  28.900         70.00	     9.165
  28.920         80.00	     9.798
  28.940         55.00	     8.124
  28.960         62.50	     8.660
  28.980         66.67	     8.944
  29.000         72.50	     9.327
  29.020         48.33	     7.616
  29.040         60.83	     8.544
  29.060         84.17	    10.050
  29.080         73.33	     9.381
  29.100         66.67	     8.944
  29.120         58.33	     8.367
  29.140         66.67	     8.944
  29.160         69.17	     9.110
  29.180         56.67	     8.246
  29.200         75.83	     9.539
  29.220         72.50	     9.327
  29.240         57.50	     8.307
  29.260         60.00	     8.485
  29.280         62.50	     8.660
  29.300         64.17	     8.775
  29.320         56.67	     8.246
  29.340         71.67	     9.274
  29.360         61.67	     8.602
  29.380         64.17	     8.775
  29.400         62.50	     8.660
  29.420         80.00	     9.798
  29.440         70.00	     9.165
  29.460         69.17	     9.110
  29.480         55.00	     8.124
  29.500         67.50	     9.000
  29.520         70.83	     9.220
  29.540         80.00	     9.798
  29.560         69.17	     9.110
  29.580         81.67	     9.899
  29.600         80.00	     9.798
  29.620         73.33	     9.381
  29.640         96.67	    10.770
  29.660        120.00	    12.000
  29.680        109.17	    11.446
  29.700        106.67	    11.314
  29.720        108.33	    11.402
  29.740        125.83	    12.288
  29.760        147.50	    13.304
  29.780        195.83	    15.330
  29.800        173.33	    14.422
  29.820        145.83	    13.229
  29.840        170.83	    14.318
  29.860        175.83	    14.526
  29.880        162.50	    13.964
  29.900        162.50	    13.964
  29.920        156.67	    13.711
  29.940        140.00	    12.961
  29.960        130.83	    12.530
  29.980        135.83	    12.767
  30.000        160.83	    13.892
  30.020        135.83	    12.767
  30.040        132.50	    12.610
  30.060        128.33	    12.410
  30.080        123.33	    12.166
  30.100        151.67	    13.491
  30.120        203.33	    15.620
  30.140        188.33	    15.033
  30.160        172.50	    14.387
  30.180        146.67	    13.266
  30.200        115.83	    11.790
  30.220        145.00	    13.191
  30.240        129.17	    12.450
  30.260        121.67	    12.083
  30.280        113.33	    11.662
  30.300        114.17	    11.705
  30.320        110.00	    11.489
  30.340        113.33	    11.662
  30.360        127.50	    12.369
  30.380        137.50	    12.845
  30.400        162.50	    13.964
  30.420        175.00	    14.491
  30.440        146.67	    13.266
  30.460        118.33	    11.916
  30.480        107.50	    11.358
  30.500        105.83	    11.269
  30.520         96.67	    10.770
  30.540         76.67	     9.592
  30.560         71.67	     9.274
  30.580         75.00	     9.487
  30.600         57.50	     8.307
  30.620         71.67	     9.274
  30.640         81.67	     9.899
  30.660         78.33	     9.695
  30.680        104.17	    11.180
  30.700        139.17	    12.923
  30.720        122.50	    12.124
  30.740        104.17	    11.180
  30.760        124.17	    12.207
  30.780        127.50	    12.369
  30.800        103.33	    11.136
  30.820        104.17	    11.180
  30.840         83.33	    10.000
  30.860         98.33	    10.863
  30.880         90.83	    10.440
  30.900         80.83	     9.849
  30.920         71.67	     9.274
  30.940         75.00	     9.487
  30.960         81.67	     9.899
  30.980         80.00	     9.798
  31.000         80.83	     9.849
  31.020         85.83	    10.149
  31.040         91.67	    10.488
  31.060        101.67	    11.045
  31.080         87.50	    10.247
  31.100        101.67	    11.045
  31.120        128.33	    12.410
  31.140        158.33	    13.784
  31.160        155.83	    13.675
  31.180        135.83	    12.767
  31.200        150.83	    13.454
  31.220        141.67	    13.038
  31.240        133.33	    12.649
  31.260        117.50	    11.874
  31.280        105.83	    11.269
  31.300         95.83	    10.724
  31.320         85.00	    10.100
  31.340         86.67	    10.198
  31.360         90.00	    10.392
  31.380         96.67	    10.770
  31.400         98.33	    10.863
  31.420         97.50	    10.817
  31.440         88.33	    10.296
  31.460        116.67	    11.832
  31.480        119.17	    11.958
  31.500        140.83	    13.000
  31.520        129.17	    12.450
  31.540        151.67	    13.491
  31.560        137.50	    12.845
  31.580        115.00	    11.747
  31.600         95.83	    10.724
  31.620         63.33	     8.718
  31.640         86.67	    10.198
  31.660         70.83	     9.220
  31.680         66.67	     8.944
  31.700         49.17	     7.681
  31.720         60.00	     8.485
  31.740         50.83	     7.810
  31.760         69.17	     9.110
  31.780         75.83	     9.539
  31.800         78.33	     9.695
  31.820         75.00	     9.487
  31.840         71.67	     9.274
  31.860         72.50	     9.327
  31.880         87.50	    10.247
  31.900         92.50	    10.536
  31.920         81.67	     9.899
  31.940         95.83	    10.724
  31.960         90.00	    10.392
  31.980        100.00	    10.954
  32.000        103.33	    11.136
  32.020         94.17	    10.630
  32.040         88.33	    10.296
  32.060        103.33	    11.136
  32.080         88.33	    10.296
  32.100         85.83	    10.149
  32.120         95.83	    10.724
  32.140         69.17	     9.110
  32.160         68.33	     9.055
  32.180         66.67	     8.944
  32.200         95.00	    10.677
  32.220         59.17	     8.426
  32.240         55.00	     8.124
  32.260         54.17	     8.062
  32.280         55.00	     8.124
  32.300         55.83	     8.185
  32.320         48.33	     7.616
  32.340         44.17	     7.280
  32.360         57.50	     8.307
  32.380         55.83	     8.185
  32.400         76.67	     9.592
  32.420         78.33	     9.695
  32.440         51.67	     7.874
  32.460         54.17	     8.062
  32.480         47.50	     7.550
  32.500         55.83	     8.185
  32.520         47.50	     7.550
  32.540         42.50	     7.141
  32.560         51.67	     7.874
  32.580         48.33	     7.616
  32.600         50.00	     7.746
  32.620         48.33	     7.616
  32.640         50.83	     7.810
  32.660         36.67	     6.633
  32.680         53.33	     8.000
  32.700         56.67	     8.246
  32.720         53.33	     8.000
  32.740         40.00	     6.928
  32.760         31.67	     6.164
  32.780         51.67	     7.874
  32.800         54.17	     8.062
  32.820         64.17	     8.775
  32.840         61.67	     8.602
  32.860         50.83	     7.810
  32.880         61.67	     8.602
  32.900         66.67	     8.944
  32.920         80.00	     9.798
  32.940         82.50	     9.950
  32.960         82.50	     9.950
  32.980         98.33	    10.863
  33.000         80.83	     9.849
  33.020         70.00	     9.165
  33.040         73.33	     9.381
  33.060         51.67	     7.874
  33.080         60.00	     8.485
  33.100         59.17	     8.426
  33.120         64.17	     8.775
  33.140         52.50	     7.937
  33.160         41.67	     7.071
  33.180         57.50	     8.307
  33.200         42.50	     7.141
  33.220         55.83	     8.185
  33.240         53.33	     8.000
  33.260         56.67	     8.246
  33.280         55.00	     8.124
  33.300         61.67	     8.602
  33.320         47.50	     7.550
  33.340         60.00	     8.485
  33.360         58.33	     8.367
  33.380         58.33	     8.367
  33.400         63.33	     8.718
  33.420         42.50	     7.141
  33.440         64.17	     8.775
  33.460         56.67	     8.246
  33.480         66.67	     8.944
  33.500         49.17	     7.681
  33.520         58.33	     8.367
  33.540         70.00	     9.165
  33.560         45.00	     7.348
  33.580         59.17	     8.426
  33.600         57.50	     8.307
  33.620         54.17	     8.062
  33.640         49.17	     7.681
  33.660         55.00	     8.124
  33.680         45.00	     7.348
  33.700         47.50	     7.550
  33.720         65.83	     8.888
  33.740         70.00	     9.165
  33.760         69.17	     9.110
  33.780         51.67	     7.874
  33.800         61.67	     8.602
  33.820         75.00	     9.487
  33.840         80.83	     9.849
  33.860         85.00	    10.100
  33.880         78.33	     9.695
  33.900         74.17	     9.434
  33.920         72.50	     9.327
  33.940         80.00	     9.798
  33.960         58.33	     8.367
  33.980         72.50	     9.327
  34.000         73.33	     9.381
  34.020         60.83	     8.544
  34.040         45.00	     7.348
  34.060         71.67	     9.274
  34.080         70.00	     9.165
  34.100         65.83	     8.888
  34.120         69.17	     9.110
  34.140         60.00	     8.485
  34.160         48.33	     7.616
  34.180         69.17	     9.110
  34.200         60.83	     8.544
  34.220         65.83	     8.888
  34.240         59.17	     8.426
  34.260         83.33	    10.000
  34.280         70.00	     9.165
  34.300         82.50	     9.950
  34.320         92.50	    10.536
  34.340         95.83	    10.724
  34.360        100.00	    10.954
  34.380         94.17	    10.630
  34.400        106.67	    11.314
  34.420        106.67	    11.314
  34.440        106.67	    11.314
  34.460        132.50	    12.610
  34.480        139.17	    12.923
  34.500        114.17	    11.705
  34.520        127.50	    12.369
  34.540        114.17	    11.705
  34.560        114.17	    11.705
  34.580        114.17	    11.705
  34.600         92.50	    10.536
  34.620         98.33	    10.863
  34.640         83.33	    10.000
  34.660         67.50	     9.000
  34.680        103.33	    11.136
  34.700         85.00	    10.100
  34.720         76.67	     9.592
  34.740         93.33	    10.583
  34.760        115.00	    11.747
  34.780        131.67	    12.570
  34.800        118.33	    11.916
  34.820        125.83	    12.288
  34.840        137.50	    12.845
  34.860        150.83	    13.454
  34.880        165.00	    14.071
  34.900        148.33	    13.342
  34.920        160.83	    13.892
  34.940        157.50	    13.748
  34.960        155.83	    13.675
  34.980        155.00	    13.638
  35.000        120.00	    12.000
  35.020        122.50	    12.124
  35.040        140.83	    13.000
  35.060        106.67	    11.314
  35.080        103.33	    11.136
  35.100        104.17	    11.180
  35.120         96.67	    10.770
  35.140         91.67	    10.488
  35.160        100.83	    11.000
  35.180         95.00	    10.677
  35.200         89.17	    10.344
  35.220        100.83	    11.000
  35.240         95.83	    10.724
  35.260         85.00	    10.100
  35.280        105.00	    11.225
  35.300         84.17	    10.050
  35.320        115.00	    11.747
  35.340        120.00	    12.000
  35.360        117.50	    11.874
  35.380        126.67	    12.329
  35.400        134.17	    12.689
  35.420        187.50	    15.000
  35.440        190.83	    15.133
  35.460        178.33	    14.629
  35.480        144.17	    13.153
  35.500        163.33	    14.000
  35.520        160.83	    13.892
  35.540        134.17	    12.689
  35.560        120.00	    12.000
  35.580        120.00	    12.000
  35.600        105.00	    11.225
  35.620         92.50	    10.536
  35.640         78.33	     9.695
  35.660         77.50	     9.644
  35.680         85.00	    10.100
  35.700         80.00	     9.798
  35.720         86.67	    10.198
  35.740         79.17	     9.747
  35.760         89.17	    10.344
  35.780         72.50	     9.327
  35.800         66.67	     8.944
  35.820         71.67	     9.274
  35.840         75.00	     9.487
  35.860         85.83	    10.149
  35.880         91.67	    10.488
  35.900         95.00	    10.677
  35.920         94.17	    10.630
  35.940        107.50	    11.358
  35.960        119.17	    11.958
  35.980        140.83	    13.000
  36.000        141.67	    13.038
  36.020        139.17	    12.923
  36.040        135.00	    12.728
  36.060        155.00	    13.638
  36.080        114.17	    11.705
  36.100        100.00	    10.954
  36.120        120.83	    12.042
  36.140        109.17	    11.446
  36.160         84.17	    10.050
  36.180         85.00	    10.100
  36.200         70.83	     9.220
  36.220         82.50	     9.950
  36.240         65.00	     8.832
  36.260         72.50	     9.327
  36.280         73.33	     9.381
  36.300         75.00	     9.487
  36.320         80.00	     9.798
  36.340         67.50	     9.000
  36.360         96.67	    10.770
  36.380        104.17	    11.180
  36.400        170.83	    14.318
  36.420        210.83	    15.906
  36.440        296.67	    18.868
  36.460        365.00	    20.928
  36.480        309.17	    19.261
  36.500        200.83	    15.524
  36.520        215.00	    16.062
  36.540        244.17	    17.117
  36.560        230.83	    16.643
  36.580        195.83	    15.330
  36.600        147.50	    13.304
  36.620        125.83	    12.288
  36.640         88.33	    10.296
  36.660        121.67	    12.083
  36.680        120.00	    12.000
  36.700        114.17	    11.705
  36.720         85.00	    10.100
  36.740         87.50	    10.247
  36.760         87.50	    10.247
  36.780         68.33	     9.055
  36.800         69.17	     9.110
  36.820         70.00	     9.165
  36.840         73.33	     9.381
  36.860         80.83	     9.849
  36.880         70.00	     9.165
  36.900         70.83	     9.220
  36.920         69.17	     9.110
  36.940         57.50	     8.307
  36.960         65.83	     8.888
  36.980         55.00	     8.124
  37.000         65.00	     8.832
  37.020         80.00	     9.798
  37.040         68.33	     9.055
  37.060         85.83	    10.149
  37.080         95.00	    10.677
  37.100         74.17	     9.434
  37.120         65.83	     8.888
  37.140         85.00	    10.100
  37.160         72.50	     9.327
  37.180         77.50	     9.644
  37.200         79.17	     9.747
  37.220         74.17	     9.434
  37.240         95.83	    10.724
  37.260         91.67	    10.488
  37.280         87.50	    10.247
  37.300         85.00	    10.100
  37.320         85.00	    10.100
  37.340         85.00	    10.100
  37.360        105.00	    11.225
  37.380         76.67	     9.592
  37.400         84.17	    10.050
  37.420         65.83	     8.888
  37.440         85.83	    10.149
  37.460         82.50	     9.950
  37.480         95.83	    10.724
  37.500        100.83	    11.000
  37.520        110.00	    11.489
  37.540        106.67	    11.314
  37.560        130.00	    12.490
  37.580        111.67	    11.576
  37.600        103.33	    11.136
  37.620         92.50	    10.536
  37.640         98.33	    10.863
  37.660         98.33	    10.863
  37.680         94.17	    10.630
  37.700         81.67	     9.899
  37.720         82.50	     9.950
  37.740         79.17	     9.747
  37.760         60.83	     8.544
  37.780         66.67	     8.944
  37.800         65.83	     8.888
  37.820         66.67	     8.944
  37.840         55.83	     8.185
  37.860         53.33	     8.000
  37.880         48.33	     7.616
  37.900         45.00	     7.348
  37.920         46.67	     7.483
  37.940         40.00	     6.928
  37.960         45.00	     7.348
  37.980         43.33	     7.211
  38.000         55.00	     8.124
  38.020         44.17	     7.280
  38.040         38.33	     6.782
  38.060         32.50	     6.245
  38.080         48.33	     7.616
  38.100         32.50	     6.245
  38.120         41.67	     7.071
  38.140         51.67	     7.874
  38.160         43.33	     7.211
  38.180         40.83	     7.000
  38.200         46.67	     7.483
  38.220         42.50	     7.141
  38.240         41.67	     7.071
  38.260         42.50	     7.141
  38.280         49.17	     7.681
  38.300         39.17	     6.856
  38.320         44.17	     7.280
  38.340         44.17	     7.280
  38.360         52.50	     7.937
  38.380         41.67	     7.071
  38.400         49.17	     7.681
  38.420         55.83	     8.185
  38.440         59.17	     8.426
  38.460         55.83	     8.185
  38.480         61.67	     8.602
  38.500         72.50	     9.327
  38.520         71.67	     9.274
  38.540         66.67	     8.944
  38.560         80.83	     9.849
  38.580         66.67	     8.944
  38.600         71.67	     9.274
  38.620         67.50	     9.000
  38.640         60.00	     8.485
  38.660         65.83	     8.888
  38.680         70.83	     9.220
  38.700         88.33	    10.296
  38.720         89.17	    10.344
  38.740         93.33	    10.583
  38.760         92.50	    10.536
  38.780         52.50	     7.937
  38.800         57.50	     8.307
  38.820         62.50	     8.660
  38.840         67.50	     9.000
  38.860         60.00	     8.485
  38.880         57.50	     8.307
  38.900         47.50	     7.550
  38.920         52.50	     7.937
  38.940         53.33	     8.000
  38.960         51.67	     7.874
  38.980         53.33	     8.000
  39.000         43.33	     7.211
  39.020         64.17	     8.775
  39.040         62.50	     8.660
  39.060         38.33	     6.782
  39.080         65.00	     8.832
  39.100         52.50	     7.937
  39.120         52.50	     7.937
  39.140         45.83	     7.416
  39.160         45.83	     7.416
  39.180         51.67	     7.874
  39.200         45.83	     7.416
  39.220         40.00	     6.928
  39.240         54.17	     8.062
  39.260         65.83	     8.888
  39.280         77.50	     9.644
  39.300         80.83	     9.849
  39.320         94.17	    10.630
  39.340        112.50	    11.619
  39.360        158.33	    13.784
  39.380        185.83	    14.933
  39.400        162.50	    13.964
  39.420        125.00	    12.247
  39.440        112.50	    11.619
  39.460        128.33	    12.410
  39.480        124.17	    12.207
  39.500        121.67	    12.083
  39.520        104.17	    11.180
  39.540         55.83	     8.185
  39.560         84.17	    10.050
  39.580         80.83	     9.849
  39.600         90.00	    10.392
  39.620         88.33	    10.296
  39.640         61.67	     8.602
  39.660         68.33	     9.055
  39.680         68.33	     9.055
  39.700         60.00	     8.485
  39.720         68.33	     9.055
  39.740         71.67	     9.274
  39.760         44.17	     7.280
  39.780         61.67	     8.602
  39.800         56.67	     8.246
  39.820         47.50	     7.550
  39.840         60.00	     8.485
  39.860         70.00	     9.165
  39.880         61.67	     8.602
  39.900         69.17	     9.110
  39.920         49.17	     7.681
  39.940         55.00	     8.124
  39.960         54.17	     8.062
  39.980         55.83	     8.185
  40.000         66.67	     8.944
  40.020         71.67	     9.274
  40.040         64.17	     8.775
  40.060         52.50	     7.937
  40.080         60.83	     8.544
  40.100         65.00	     8.832
  40.120         53.33	     8.000
  40.140         70.00	     9.165
  40.160        112.50	    11.619
  40.180        160.83	    13.892
  40.200        195.00	    15.297
  40.220        217.50	    16.155
  40.240        163.33	    14.000
  40.260        121.67	    12.083
  40.280        115.83	    11.790
  40.300        125.83	    12.288
  40.320        135.83	    12.767
  40.340        127.50	    12.369
  40.360         91.67	    10.488
  40.380         62.50	     8.660
  40.400         74.17	     9.434
  40.420         51.67	     7.874
  40.440         60.00	     8.485
  40.460         51.67	     7.874
  40.480         57.50	     8.307
  40.500         40.00	     6.928
  40.520         49.17	     7.681
  40.540         52.50	     7.937
  40.560         61.67	     8.602
  40.580         55.00	     8.124
  40.600         54.17	     8.062
  40.620         55.00	     8.124
  40.640         50.83	     7.810
  40.660         50.83	     7.810
  40.680         50.00	     7.746
  40.700         57.50	     8.307
  40.720         49.17	     7.681
  40.740         64.17	     8.775
  40.760         50.83	     7.810
  40.780         60.00	     8.485
  40.800         48.33	     7.616
  40.820         46.67	     7.483
  40.840         67.50	     9.000
  40.860         56.67	     8.246
  40.880         55.83	     8.185
  40.900         60.83	     8.544
  40.920         59.17	     8.426
  40.940         49.17	     7.681
  40.960         49.17	     7.681
  40.980         53.33	     8.000
  41.000         50.00	     7.746
  41.020         55.83	     8.185
  41.040         53.33	     8.000
  41.060         46.67	     7.483
  41.080         60.00	     8.485
  41.100         50.00	     7.746
  41.120         70.00	     9.165
  41.140         61.67	     8.602
  41.160         57.50	     8.307
  41.180         80.00	     9.798
  41.200         73.33	     9.381
  41.220         56.67	     8.246
  41.240         78.33	     9.695
  41.260         60.00	     8.485
  41.280         68.33	     9.055
  41.300         69.17	     9.110
  41.320         60.83	     8.544
  41.340         61.67	     8.602
  41.360         55.00	     8.124
  41.380         58.33	     8.367
  41.400         65.83	     8.888
  41.420         55.83	     8.185
  41.440         56.67	     8.246
  41.460         43.33	     7.211
  41.480         51.67	     7.874
  41.500         65.00	     8.832
  41.520         74.17	     9.434
  41.540         58.33	     8.367
  41.560         58.33	     8.367
  41.580         55.83	     8.185
  41.600         86.67	    10.198
  41.620         82.50	     9.950
  41.640         78.33	     9.695
  41.660         94.17	    10.630
  41.680         72.50	     9.327
  41.700         84.17	    10.050
  41.720         82.50	     9.950
  41.740         93.33	    10.583
  41.760         67.50	     9.000
  41.780         76.67	     9.592
  41.800         75.83	     9.539
  41.820         87.50	    10.247
  41.840         86.67	    10.198
  41.860         83.33	    10.000
  41.880        103.33	    11.136
  41.900         83.33	    10.000
  41.920         92.50	    10.536
  41.940         90.00	    10.392
  41.960         98.33	    10.863
  41.980         84.17	    10.050
  42.000         69.17	     9.110
  42.020         58.33	     8.367
  42.040         75.83	     9.539
  42.060         73.33	     9.381
  42.080         74.17	     9.434
  42.100         71.67	     9.274
  42.120         88.33	    10.296
  42.140         72.50	     9.327
  42.160         83.33	    10.000
  42.180         80.83	     9.849
  42.200         79.17	     9.747
  42.220         95.83	    10.724
  42.240         82.50	     9.950
  42.260         85.00	    10.100
  42.280        110.83	    11.533
  42.300        131.67	    12.570
  42.320        205.83	    15.716
  42.340        275.00	    18.166
  42.360        442.50	    23.043
  42.380        487.50	    24.187
  42.400        370.00	    21.071
  42.420        259.17	    17.635
  42.440        208.33	    15.811
  42.460        223.33	    16.371
  42.480        240.00	    16.971
  42.500        256.67	    17.550
  42.520        188.33	    15.033
  42.540        145.83	    13.229
  42.560         99.17	    10.909
  42.580         87.50	    10.247
  42.600         87.50	    10.247
  42.620         75.83	     9.539
  42.640         70.00	     9.165
  42.660         95.83	    10.724
  42.680         80.00	     9.798
  42.700         72.50	     9.327
  42.720         69.17	     9.110
  42.740         72.50	     9.327
  42.760         76.67	     9.592
  42.780         97.50	    10.817
  42.800         80.83	     9.849
  42.820         90.00	    10.392
  42.840         86.67	    10.198
  42.860         84.17	    10.050
  42.880         91.67	    10.488
  42.900        102.50	    11.091
  42.920         90.00	    10.392
  42.940         82.50	     9.950
  42.960         93.33	    10.583
  42.980        111.67	    11.576
  43.000         95.00	    10.677
  43.020         83.33	    10.000
  43.040         96.67	    10.770
  43.060        112.50	    11.619
  43.080        102.50	    11.091
  43.100        133.33	    12.649
  43.120        111.67	    11.576
  43.140        135.00	    12.728
  43.160        124.17	    12.207
  43.180        153.33	    13.565
  43.200        128.33	    12.410
  43.220        138.33	    12.884
  43.240        156.67	    13.711
  43.260        161.67	    13.928
  43.280        160.83	    13.892
  43.300        205.00	    15.684
  43.320        200.00	    15.492
  43.340        203.33	    15.620
  43.360        191.67	    15.166
  43.380        220.83	    16.279
  43.400        229.17	    16.583
  43.420        222.50	    16.340
  43.440        225.83	    16.462
  43.460        229.17	    16.583
  43.480        231.67	    16.673
  43.500        225.83	    16.462
  43.520        210.00	    15.875
  43.540        228.33	    16.553
  43.560        218.33	    16.186
  43.580        190.83	    15.133
  43.600        185.83	    14.933
  43.620        177.50	    14.595
  43.640        187.50	    15.000
  43.660        136.67	    12.806
  43.680        148.33	    13.342
  43.700        144.17	    13.153
  43.720        139.17	    12.923
  43.740        139.17	    12.923
  43.760        113.33	    11.662
  43.780        126.67	    12.329
  43.800        110.83	    11.533
  43.820        103.33	    11.136
  43.840        101.67	    11.045
  43.860        109.17	    11.446
  43.880         93.33	    10.583
  43.900        100.83	    11.000
  43.920         89.17	    10.344
  43.940         85.83	    10.149
  43.960         90.00	    10.392
  43.980         70.83	     9.220
  44.000         87.50	    10.247
  44.020         83.33	    10.000
  44.040         75.83	     9.539
  44.060         70.83	     9.220
  44.080         65.00	     8.832
  44.100         78.33	     9.695
  44.120         76.67	     9.592
  44.140         78.33	     9.695
  44.160         68.33	     9.055
  44.180         56.67	     8.246
  44.200         57.50	     8.307
  44.220         71.67	     9.274
  44.240         65.00	     8.832
  44.260         70.83	     9.220
  44.280         55.83	     8.185
  44.300         47.50	     7.550
  44.320         50.00	     7.746
  44.340         51.67	     7.874
  44.360         63.33	     8.718
  44.380         49.17	     7.681
  44.400         64.17	     8.775
  44.420         41.67	     7.071
  44.440         45.00	     7.348
  44.460         43.33	     7.211
  44.480         56.67	     8.246
  44.500         65.83	     8.888
  44.520         55.83	     8.185
  44.540         62.50	     8.660
  44.560         55.00	     8.124
  44.580         56.67	     8.246
  44.600         55.00	     8.124
  44.620         55.83	     8.185
  44.640         60.83	     8.544
  44.660         65.83	     8.888
  44.680         65.83	     8.888
  44.700         68.33	     9.055
  44.720         67.50	     9.000
  44.740         75.00	     9.487
  44.760         70.83	     9.220
  44.780         95.83	    10.724
  44.800         85.00	    10.100
  44.820         90.00	    10.392
  44.840         73.33	     9.381
  44.860         76.67	     9.592
  44.880         81.67	     9.899
  44.900         70.83	     9.220
  44.920         77.50	     9.644
  44.940         85.00	    10.100
  44.960         76.67	     9.592
  44.980         77.50	     9.644
  45.000         79.17	     9.747
  45.020        100.83	    11.000
  45.040        112.50	    11.619
  45.060         91.67	    10.488
  45.080         82.50	     9.950
  45.100        100.83	    11.000
  45.120         86.67	    10.198
  45.140         92.50	    10.536
  45.160         94.17	    10.630
  45.180         91.67	    10.488
  45.200         92.50	    10.536
  45.220        106.67	    11.314
  45.240        113.33	    11.662
  45.260        120.83	    12.042
  45.280        147.50	    13.304
  45.300        166.67	    14.142
  45.320        168.33	    14.213
  45.340        175.83	    14.526
  45.360        209.17	    15.843
  45.380        255.83	    17.521
  45.400        319.17	    19.570
  45.420        305.83	    19.157
  45.440        355.00	    20.640
  45.460        360.83	    20.809
  45.480        372.50	    21.142
  45.500        371.67	    21.119
  45.520        373.33	    21.166
  45.540        367.50	    21.000
  45.560        321.67	    19.647
  45.580        272.50	    18.083
  45.600        269.17	    17.972
  45.620        206.67	    15.748
  45.640        199.17	    15.460
  45.660        212.50	    15.969
  45.680        224.17	    16.401
  45.700        239.17	    16.941
  45.720        237.50	    16.882
  45.740        181.67	    14.765
  45.760        145.83	    13.229
  45.780        105.00	    11.225
  45.800        110.83	    11.533
  45.820        143.33	    13.115
  45.840        135.00	    12.728
  45.860        118.33	    11.916
  45.880         92.50	    10.536
  45.900         90.83	    10.440
  45.920         93.33	    10.583
  45.940        111.67	    11.576
  45.960        121.67	    12.083
  45.980        105.83	    11.269
  46.000         91.67	    10.488
  46.020         79.17	     9.747
  46.040         80.83	     9.849
  46.060        109.17	    11.446
  46.080        145.00	    13.191
  46.100        103.33	    11.136
  46.120        107.50	    11.358
  46.140         74.17	     9.434
  46.160         54.17	     8.062
  46.180         76.67	     9.592
  46.200         75.00	     9.487
  46.220         80.00	     9.798
  46.240         76.67	     9.592
  46.260         49.17	     7.681
  46.280         37.50	     6.708
  46.300         45.00	     7.348
  46.320         37.50	     6.708
  46.340         42.50	     7.141
  46.360         45.83	     7.416
  46.380         37.50	     6.708
  46.400         46.67	     7.483
  46.420         43.33	     7.211
  46.440         52.50	     7.937
  46.460         55.00	     8.124
  46.480         54.17	     8.062
  46.500         54.17	     8.062
  46.520         50.83	     7.810
  46.540         40.83	     7.000
  46.560         43.33	     7.211
  46.580         50.83	     7.810
  46.600         50.00	     7.746
  46.620         49.17	     7.681
  46.640         32.50	     6.245
  46.660         44.17	     7.280
  46.680         43.33	     7.211
  46.700         40.00	     6.928
  46.720         50.83	     7.810
  46.740         45.00	     7.348
  46.760         35.83	     6.557
  46.780         52.50	     7.937
  46.800         54.17	     8.062
  46.820         41.67	     7.071
  46.840         51.67	     7.874
  46.860         41.67	     7.071
  46.880         58.33	     8.367
  46.900         52.50	     7.937
  46.920         42.50	     7.141
  46.940         53.33	     8.000
  46.960         51.67	     7.874
  46.980         55.00	     8.124
  47.000         64.17	     8.775
  47.020         67.50	     9.000
  47.040         75.83	     9.539
  47.060        103.33	    11.136
  47.080        109.17	    11.446
  47.100         81.67	     9.899
  47.120         87.50	    10.247
  47.140         70.00	     9.165
  47.160         79.17	     9.747
  47.180         74.17	     9.434
  47.200         50.83	     7.810
  47.220         55.83	     8.185
  47.240         64.17	     8.775
  47.260         50.83	     7.810
  47.280         53.33	     8.000
  47.300         48.33	     7.616
  47.320         44.17	     7.280
  47.340         36.67	     6.633
  47.360         39.17	     6.856
  47.380         35.00	     6.481
  47.400         36.67	     6.633
  47.420         46.67	     7.483
  47.440         32.50	     6.245
  47.460         40.83	     7.000
  47.480         40.00	     6.928
  47.500         43.33	     7.211
  47.520         41.67	     7.071
  47.540         31.67	     6.164
  47.560         43.33	     7.211
  47.580         32.50	     6.245
  47.600         51.67	     7.874
  47.620         32.50	     6.245
  47.640         48.33	     7.616
  47.660         41.67	     7.071
  47.680         32.50	     6.245
  47.700         36.67	     6.633
  47.720         40.00	     6.928
  47.740         46.67	     7.483
  47.760         46.67	     7.483
  47.780         49.17	     7.681
  47.800         58.33	     8.367
  47.820         61.67	     8.602
  47.840         44.17	     7.280
  47.860         50.83	     7.810
  47.880         74.17	     9.434
  47.900         51.67	     7.874
  47.920         62.50	     8.660
  47.940         75.83	     9.539
  47.960         66.67	     8.944
  47.980         73.33	     9.381
  48.000         66.67	     8.944
  48.020         85.00	    10.100
  48.040        101.67	    11.045
  48.060        105.83	    11.269
  48.080         96.67	    10.770
  48.100         89.17	    10.344
  48.120         87.50	    10.247
  48.140         92.50	    10.536
  48.160         88.33	    10.296
  48.180         92.50	    10.536
  48.200         62.50	     8.660
  48.220         70.00	     9.165
  48.240         75.00	     9.487
  48.260         61.67	     8.602
  48.280         70.00	     9.165
  48.300         57.50	     8.307
  48.320         54.17	     8.062
  48.340         45.00	     7.348
  48.360         60.83	     8.544
  48.380         51.67	     7.874
  48.400         53.33	     8.000
  48.420         66.67	     8.944
  48.440         55.00	     8.124
  48.460         53.33	     8.000
  48.480         59.17	     8.426
  48.500         50.83	     7.810
  48.520         51.67	     7.874
  48.540         60.83	     8.544
  48.560         43.33	     7.211
  48.580         56.67	     8.246
  48.600         35.83	     6.557
  48.620         51.67	     7.874
  48.640         45.83	     7.416
  48.660         50.00	     7.746
  48.680         52.50	     7.937
  48.700         49.17	     7.681
  48.720         55.00	     8.124
  48.740         43.33	     7.211
  48.760         45.83	     7.416
  48.780         50.83	     7.810
  48.800         48.33	     7.616
  48.820         38.33	     6.782
  48.840         49.17	     7.681
  48.860         46.67	     7.483
  48.880         42.50	     7.141
  48.900         53.33	     8.000
  48.920         57.50	     8.307
  48.940         49.17	     7.681
  48.960         54.17	     8.062
  48.980         55.00	     8.124
  49.000         52.50	     7.937
  49.020         40.83	     7.000
  49.040         56.67	     8.246
  49.060         45.83	     7.416
  49.080         60.00	     8.485
  49.100         79.17	     9.747
  49.120         91.67	    10.488
  49.140         90.83	    10.440
  49.160         86.67	    10.198
  49.180         75.00	     9.487
  49.200         67.50	     9.000
  49.220         67.50	     9.000
  49.240         65.83	     8.888
  49.260         71.67	     9.274
  49.280         67.50	     9.000
  49.300         67.50	     9.000
  49.320         61.67	     8.602
  49.340         55.00	     8.124
  49.360         55.00	     8.124
  49.380         44.17	     7.280
  49.400         65.83	     8.888
  49.420         53.33	     8.000
  49.440         63.33	     8.718
  49.460         76.67	     9.592
  49.480         53.33	     8.000
  49.500         58.33	     8.367
  49.520         53.33	     8.000
  49.540         54.17	     8.062
  49.560         61.67	     8.602
  49.580         48.33	     7.616
  49.600         54.17	     8.062
  49.620         75.00	     9.487
  49.640         75.00	     9.487
  49.660         65.00	     8.832
  49.680         75.83	     9.539
  49.700         78.33	     9.695
  49.720         77.50	     9.644
  49.740         70.83	     9.220
  49.760         80.83	     9.849
  49.780         63.33	     8.718
  49.800         85.83	    10.149
  49.820         75.83	     9.539
  49.840         95.83	    10.724
  49.860        105.83	    11.269
  49.880         91.67	    10.488
  49.900         99.17	    10.909
  49.920        101.67	    11.045
  49.940        107.50	    11.358
  49.960        122.50	    12.124
  49.980        151.67	    13.491
  50.000        220.83	    16.279
  50.020        335.83	    20.075
  50.040        400.83	    21.932
  50.060        511.67	    24.779
  50.080        521.67	    25.020
  50.100        382.50	    21.424
  50.120        238.33	    16.912
  50.140        218.33	    16.186
  50.160        241.67	    17.029
  50.180        305.83	    19.157
  50.200        280.00	    18.330
  50.220        272.50	    18.083
  50.240        179.17	    14.663
  50.260        123.33	    12.166
  50.280        100.00	    10.954
  50.300        100.00	    10.954
  50.320         93.33	    10.583
  50.340         93.33	    10.583
  50.360        100.83	    11.000
  50.380         98.33	    10.863
  50.400         93.33	    10.583
  50.420         93.33	    10.583
  50.440         96.67	    10.770
  50.460        107.50	    11.358
  50.480        115.83	    11.790
  50.500         98.33	    10.863
  50.520        101.67	    11.045
  50.540         96.67	    10.770
  50.560        109.17	    11.446
  50.580         97.50	    10.817
  50.600        109.17	    11.446
  50.620        107.50	    11.358
  50.640        102.50	    11.091
  50.660        103.33	    11.136
  50.680         89.17	    10.344
  50.700         82.50	     9.950
  50.720         71.67	     9.274
  50.740         71.67	     9.274
  50.760         67.50	     9.000
  50.780         81.67	     9.899
  50.800         81.67	     9.899
  50.820         78.33	     9.695
  50.840         57.50	     8.307
  50.860         64.17	     8.775
  50.880         57.50	     8.307
  50.900         47.50	     7.550
  50.920         54.17	     8.062
  50.940         66.67	     8.944
  50.960         53.33	     8.000
  50.980         72.50	     9.327
  51.000         80.83	     9.849
  51.020        130.00	    12.490
  51.040        220.83	    16.279
  51.060        193.33	    15.232
  51.080        112.50	    11.619
  51.100         97.50	    10.817
  51.120         95.83	    10.724
  51.140         92.50	    10.536
  51.160        109.17	    11.446
  51.180        152.50	    13.528
  51.200        126.67	    12.329
  51.220         83.33	    10.000
  51.240         74.17	     9.434
  51.260         67.50	     9.000
  51.280         59.17	     8.426
  51.300         52.50	     7.937
  51.320         70.83	     9.220
  51.340         62.50	     8.660
  51.360         55.83	     8.185
  51.380         50.00	     7.746
  51.400         53.33	     8.000
  51.420         52.50	     7.937
  51.440         42.50	     7.141
  51.460         44.17	     7.280
  51.480         49.17	     7.681
  51.500         39.17	     6.856
  51.520         44.17	     7.280
  51.540         42.50	     7.141
  51.560         35.00	     6.481
  51.580         48.33	     7.616
  51.600         46.67	     7.483
  51.620         44.17	     7.280
  51.640         42.50	     7.141
  51.660         39.17	     6.856
  51.680         39.17	     6.856
  51.700         46.67	     7.483
  51.720         33.33	     6.325
  51.740         40.00	     6.928
  51.760         35.00	     6.481
  51.780         35.00	     6.481
  51.800         38.33	     6.782
  51.820         41.67	     7.071
  51.840         40.83	     7.000
  51.860         33.33	     6.325
  51.880         48.33	     7.616
  51.900         32.50	     6.245
  51.920         40.83	     7.000
  51.940         40.83	     7.000
  51.960         45.00	     7.348
  51.980         40.00	     6.928
  52.000         49.17	     7.681
  52.020         50.83	     7.810
  52.040         60.83	     8.544
  52.060         60.00	     8.485
  52.080         61.67	     8.602
  52.100         58.33	     8.367
  52.120         56.67	     8.246
  52.140         51.67	     7.874
  52.160         53.33	     8.000
  52.180         54.17	     8.062
  52.200         54.17	     8.062
  52.220         46.67	     7.483
  52.240         40.83	     7.000
  52.260         51.67	     7.874
  52.280         47.50	     7.550
  52.300         50.00	     7.746
  52.320         55.83	     8.185
  52.340         48.33	     7.616
  52.360         59.17	     8.426
  52.380         70.83	     9.220
  52.400         65.83	     8.888
  52.420         50.83	     7.810
  52.440         54.17	     8.062
  52.460         55.00	     8.124
  52.480         54.17	     8.062
  52.500         51.67	     7.874
  52.520         42.50	     7.141
  52.540         47.50	     7.550
  52.560         55.83	     8.185
  52.580         68.33	     9.055
  52.600         48.33	     7.616
  52.620         40.00	     6.928
  52.640         40.00	     6.928
  52.660         60.00	     8.485
  52.680         39.17	     6.856
  52.700         50.83	     7.810
  52.720         41.67	     7.071
  52.740         53.33	     8.000
  52.760         60.83	     8.544
  52.780         58.33	     8.367
  52.800         57.50	     8.307
  52.820         53.33	     8.000
  52.840         50.00	     7.746
  52.860         55.83	     8.185
  52.880         40.83	     7.000
  52.900         55.83	     8.185
  52.920         57.50	     8.307
  52.940         50.83	     7.810
  52.960         47.50	     7.550
  52.980         58.33	     8.367
  53.000         56.67	     8.246
  53.020         62.50	     8.660
  53.040         67.50	     9.000
  53.060         64.17	     8.775
  53.080         75.00	     9.487
  53.100         60.00	     8.485
  53.120         67.50	     9.000
  53.140         65.00	     8.832
  53.160         75.83	     9.539
  53.180         77.50	     9.644
  53.200         72.50	     9.327
  53.220         48.33	     7.616
  53.240         51.67	     7.874
  53.260         58.33	     8.367
  53.280         45.83	     7.416
  53.300         50.00	     7.746
  53.320         43.33	     7.211
  53.340         54.17	     8.062
  53.360         60.00	     8.485
  53.380         42.50	     7.141
  53.400         48.33	     7.616
  53.420         54.17	     8.062
  53.440         40.83	     7.000
  53.460         49.17	     7.681
  53.480         52.50	     7.937
  53.500         55.83	     8.185
  53.520         57.50	     8.307
  53.540         53.33	     8.000
  53.560         46.67	     7.483
  53.580         52.50	     7.937
  53.600         60.00	     8.485
  53.620         53.33	     8.000
  53.640         61.67	     8.602
  53.660         60.00	     8.485
  53.680         54.17	     8.062
  53.700         35.83	     6.557
  53.720         43.33	     7.211
  53.740         50.83	     7.810
  53.760         51.67	     7.874
  53.780         50.83	     7.810
  53.800         40.83	     7.000
  53.820         50.00	     7.746
  53.840         49.17	     7.681
  53.860         45.83	     7.416
  53.880         42.50	     7.141
  53.900         39.17	     6.856
  53.920         40.00	     6.928
  53.940         40.00	     6.928
  53.960         38.33	     6.782
  53.980         33.33	     6.325
  54.000         50.00	     7.746
  54.020         40.00	     6.928
  54.040         47.50	     7.550
  54.060         42.50	     7.141
  54.080         37.50	     6.708
  54.100         43.33	     7.211
  54.120         40.00	     6.928
  54.140         45.00	     7.348
  54.160         47.50	     7.550
  54.180         50.00	     7.746
  54.200         66.67	     8.944
  54.220         52.50	     7.937
  54.240         75.83	     9.539
  54.260         99.17	    10.909
  54.280         78.33	     9.695
  54.300         66.67	     8.944
  54.320         69.17	     9.110
  54.340         50.83	     7.810
  54.360         60.83	     8.544
  54.380         56.67	     8.246
  54.400         62.50	     8.660
  54.420         68.33	     9.055
  54.440         72.50	     9.327
  54.460         64.17	     8.775
  54.480         65.83	     8.888
  54.500         56.67	     8.246
  54.520         49.17	     7.681
  54.540         57.50	     8.307
  54.560         60.00	     8.485
  54.580         65.83	     8.888
  54.600         69.17	     9.110
  54.620         55.83	     8.185
  54.640         70.83	     9.220
  54.660         69.17	     9.110
  54.680         67.50	     9.000
  54.700         89.17	    10.344
  54.720        108.33	    11.402
  54.740        129.17	    12.450
  54.760        163.33	    14.000
  54.780        169.17	    14.248
  54.800        158.33	    13.784
  54.820        137.50	    12.845
  54.840        103.33	    11.136
  54.860         72.50	     9.327
  54.880         85.00	    10.100
  54.900         93.33	    10.583
  54.920        120.83	    12.042
  54.940        113.33	    11.662
  54.960         89.17	    10.344
  54.980        100.83	    11.000
  55.000         73.33	     9.381
  55.020         56.67	     8.246
  55.040         50.83	     7.810
  55.060         45.83	     7.416
  55.080         70.00	     9.165
  55.100         61.67	     8.602
  55.120         67.50	     9.000
  55.140         66.67	     8.944
  55.160         46.67	     7.483
  55.180         69.17	     9.110
  55.200         75.00	     9.487
  55.220         81.67	     9.899
  55.240         70.00	     9.165
  55.260         90.00	    10.392
  55.280         80.00	     9.798
  55.300         59.17	     8.426
  55.320         66.67	     8.944
  55.340         87.50	    10.247
  55.360         62.50	     8.660
  55.380         69.17	     9.110
  55.400         65.83	     8.888
  55.420         57.50	     8.307
  55.440         61.67	     8.602
  55.460         55.00	     8.124
  55.480         52.50	     7.937
  55.500         64.17	     8.775
  55.520         50.83	     7.810
  55.540         55.83	     8.185
  55.560         72.50	     9.327
  55.580         60.00	     8.485
  55.600         60.83	     8.544
  55.620         59.17	     8.426
  55.640         68.33	     9.055
  55.660         72.50	     9.327
  55.680         82.50	     9.950
  55.700         79.17	     9.747
  55.720         83.33	    10.000
  55.740         86.67	    10.198
  55.760         77.50	     9.644
  55.780         84.17	    10.050
  55.800         70.83	     9.220
  55.820         70.83	     9.220
  55.840         80.83	     9.849
  55.860         61.67	     8.602
  55.880         79.17	     9.747
  55.900         53.33	     8.000
  55.920         79.17	     9.747
  55.940         48.33	     7.616
  55.960         51.67	     7.874
  55.980         64.17	     8.775
  56.000         61.67	     8.602
  56.020         55.00	     8.124
  56.040         56.67	     8.246
  56.060         48.33	     7.616
  56.080         56.67	     8.246
  56.100         46.67	     7.483
  56.120         59.17	     8.426
  56.140         53.33	     8.000
  56.160         52.50	     7.937
  56.180         42.50	     7.141
  56.200         47.50	     7.550
  56.220         50.83	     7.810
  56.240         46.67	     7.483
  56.260         48.33	     7.616
  56.280         43.33	     7.211
  56.300         40.83	     7.000
  56.320         50.00	     7.746
  56.340         48.33	     7.616
  56.360         45.83	     7.416
  56.380         53.33	     8.000
  56.400         49.17	     7.681
  56.420         43.33	     7.211
  56.440         37.50	     6.708
  56.460         45.00	     7.348
  56.480         55.00	     8.124
  56.500         50.00	     7.746
  56.520         50.83	     7.810
  56.540         39.17	     6.856
  56.560         40.00	     6.928
  56.580         45.83	     7.416
  56.600         45.00	     7.348
  56.620         37.50	     6.708
  56.640         49.17	     7.681
  56.660         47.50	     7.550
  56.680         51.67	     7.874
  56.700         47.50	     7.550
  56.720         54.17	     8.062
  56.740         36.67	     6.633
  56.760         45.00	     7.348
  56.780         39.17	     6.856
  56.800         58.33	     8.367
  56.820         50.83	     7.810
  56.840         53.33	     8.000
  56.860         45.00	     7.348
  56.880         63.33	     8.718
  56.900         50.83	     7.810
  56.920         48.33	     7.616
  56.940         45.83	     7.416
  56.960         36.67	     6.633
  56.980         48.33	     7.616
  57.000         43.33	     7.211
  57.020         46.67	     7.483
  57.040         50.83	     7.810
  57.060         57.50	     8.307
  57.080         46.67	     7.483
  57.100         49.17	     7.681
  57.120         40.00	     6.928
  57.140         50.83	     7.810
  57.160         49.17	     7.681
  57.180         47.50	     7.550
  57.200         40.83	     7.000
  57.220         33.33	     6.325
  57.240         44.17	     7.280
  57.260         50.00	     7.746
  57.280         40.00	     6.928
  57.300         45.83	     7.416
  57.320         50.00	     7.746
  57.340         48.33	     7.616
  57.360         37.50	     6.708
  57.380         49.17	     7.681
  57.400         34.17	     6.403
  57.420         43.33	     7.211
  57.440         59.17	     8.426
  57.460         41.67	     7.071
  57.480         36.67	     6.633
  57.500         45.83	     7.416
  57.520         37.50	     6.708
  57.540         53.33	     8.000
  57.560         33.33	     6.325
  57.580         50.00	     7.746
  57.600         40.83	     7.000
  57.620         43.33	     7.211
  57.640         35.83	     6.557
  57.660         54.17	     8.062
  57.680         52.50	     7.937
  57.700         45.83	     7.416
  57.720         54.17	     8.062
  57.740         34.17	     6.403
  57.760         54.17	     8.062
  57.780         45.83	     7.416
  57.800         36.67	     6.633
  57.820         41.67	     7.071
  57.840         36.67	     6.633
  57.860         49.17	     7.681
  57.880         37.50	     6.708
  57.900         46.67	     7.483
  57.920         45.83	     7.416
  57.940         54.17	     8.062
  57.960         50.83	     7.810
  57.980         57.50	     8.307
  58.000         49.17	     7.681
  58.020         50.83	     7.810
  58.040         47.50	     7.550
  58.060         62.50	     8.660
  58.080         61.67	     8.602
  58.100         47.50	     7.550
  58.120         61.67	     8.602
  58.140         59.17	     8.426
  58.160         50.00	     7.746
  58.180         50.83	     7.810
  58.200         56.67	     8.246
  58.220         55.83	     8.185
  58.240         51.67	     7.874
  58.260         49.17	     7.681
  58.280         49.17	     7.681
  58.300         48.33	     7.616
  58.320         45.83	     7.416
  58.340         48.33	     7.616
  58.360         46.67	     7.483
  58.380         50.00	     7.746
  58.400         44.17	     7.280
  58.420         46.67	     7.483
  58.440         37.50	     6.708
  58.460         50.00	     7.746
  58.480         55.00	     8.124
  58.500         56.67	     8.246
  58.520         43.33	     7.211
  58.540         70.00	     9.165
  58.560         50.00	     7.746
  58.580         61.67	     8.602
  58.600         51.67	     7.874
  58.620         58.33	     8.367
  58.640         57.50	     8.307
  58.660         58.33	     8.367
  58.680         73.33	     9.381
  58.700         56.67	     8.246
  58.720         62.50	     8.660
  58.740         60.83	     8.544
  58.760         55.00	     8.124
  58.780         64.17	     8.775
  58.800         61.67	     8.602
  58.820         67.50	     9.000
  58.840         65.00	     8.832
  58.860         58.33	     8.367
  58.880         50.00	     7.746
  58.900         63.33	     8.718
  58.920         70.83	     9.220
  58.940         56.67	     8.246
  58.960         62.50	     8.660
  58.980         68.33	     9.055
  59.000         65.00	     8.832
  59.020         68.33	     9.055
  59.040         63.33	     8.718
  59.060         66.67	     8.944
  59.080         75.83	     9.539
  59.100         66.67	     8.944
  59.120         70.83	     9.220
  59.140         69.17	     9.110
  59.160         62.50	     8.660
  59.180         68.33	     9.055
  59.200         70.83	     9.220
  59.220         70.00	     9.165
  59.240         60.83	     8.544
  59.260         57.50	     8.307
  59.280         64.17	     8.775
  59.300         70.00	     9.165
  59.320         55.83	     8.185
  59.340         68.33	     9.055
  59.360         75.83	     9.539
  59.380         60.83	     8.544
  59.400         65.83	     8.888
  59.420         57.50	     8.307
  59.440         59.17	     8.426
  59.460         60.00	     8.485
  59.480         62.50	     8.660
  59.500         66.67	     8.944
  59.520         50.83	     7.810
  59.540         50.83	     7.810
  59.560         60.83	     8.544
  59.580         70.00	     9.165
  59.600         46.67	     7.483
  59.620         49.17	     7.681
  59.640         67.50	     9.000
  59.660         75.83	     9.539
  59.680         55.83	     8.185
  59.700         83.33	    10.000
  59.720         71.67	     9.274
  59.740        103.33	    11.136
  59.760         95.83	    10.724
  59.780        140.83	    13.000
  59.800        166.67	    14.142
  59.820        221.67	    16.310
  59.840        302.50	    19.053
  59.860        372.50	    21.142
  59.880        391.67	    21.679
  59.900        326.67	    19.799
  59.920        235.00	    16.793
  59.940        183.33	    14.832
  59.960        145.00	    13.191
  59.980        152.50	    13.528
  60.000        173.33	    14.422
  60.020        197.50	    15.395
  60.040        202.50	    15.588
  60.060        195.00	    15.297
  60.080        175.00	    14.491
  60.100        103.33	    11.136
  60.120         89.17	    10.344
  60.140         75.00	     9.487
  60.160         75.83	     9.539
  60.180         67.50	     9.000
  60.200         50.83	     7.810
  60.220         55.83	     8.185
  60.240         60.83	     8.544
  60.260         55.83	     8.185
  60.280         55.83	     8.185
  60.300         57.50	     8.307
  60.320         57.50	     8.307
  60.340         45.83	     7.416
  60.360         56.67	     8.246
  60.380         45.83	     7.416
  60.400         63.33	     8.718
  60.420         70.83	     9.220
  60.440         58.33	     8.367
  60.460         54.17	     8.062
  60.480         52.50	     7.937
  60.500         71.67	     9.274
  60.520         59.17	     8.426
  60.540         57.50	     8.307
  60.560         70.00	     9.165
  60.580         64.17	     8.775
  60.600         56.67	     8.246
  60.620         60.00	     8.485
  60.640         66.67	     8.944
  60.660         81.67	     9.899
  60.680         66.67	     8.944
  60.700         74.17	     9.434
  60.720         69.17	     9.110
  60.740         82.50	     9.950
  60.760         80.00	     9.798
  60.780         89.17	    10.344
  60.800         74.17	     9.434
  60.820         52.50	     7.937
  60.840         86.67	    10.198
  60.860         60.83	     8.544
  60.880         80.00	     9.798
  60.900         85.00	    10.100
  60.920         64.17	     8.775
  60.940         80.83	     9.849
  60.960         70.83	     9.220
  60.980         69.17	     9.110
  61.000         60.00	     8.485
  61.020         64.17	     8.775
  61.040         60.00	     8.485
  61.060         66.67	     8.944
  61.080         56.67	     8.246
  61.100         74.17	     9.434
  61.120         50.00	     7.746
  61.140         52.50	     7.937
  61.160         64.17	     8.775
  61.180         73.33	     9.381
  61.200         70.83	     9.220
  61.220         55.00	     8.124
  61.240         68.33	     9.055
  61.260         74.17	     9.434
  61.280         62.50	     8.660
  61.300         61.67	     8.602
  61.320         89.17	    10.344
  61.340         92.50	    10.536
  61.360        100.00	    10.954
  61.380        100.00	    10.954
  61.400        115.00	    11.747
  61.420         91.67	    10.488
  61.440         82.50	     9.950
  61.460         75.00	     9.487
  61.480         87.50	    10.247
  61.500         83.33	    10.000
  61.520         85.83	    10.149
  61.540         83.33	    10.000
  61.560         90.83	    10.440
  61.580         85.83	    10.149
  61.600         75.83	     9.539
  61.620         94.17	    10.630
  61.640         74.17	     9.434
  61.660         62.50	     8.660
  61.680         66.67	     8.944
  61.700         69.17	     9.110
  61.720         75.00	     9.487
  61.740         60.00	     8.485
  61.760         62.50	     8.660
  61.780         63.33	     8.718
  61.800         70.00	     9.165
  61.820         59.17	     8.426
  61.840         50.00	     7.746
  61.860         61.67	     8.602
  61.880         47.50	     7.550
  61.900         40.83	     7.000
  61.920         52.50	     7.937
  61.940         57.50	     8.307
  61.960         45.83	     7.416
  61.980         45.00	     7.348
  62.000         44.17	     7.280
  62.020         55.00	     8.124
  62.040         57.50	     8.307
  62.060         44.17	     7.280
  62.080         52.50	     7.937
  62.100         40.83	     7.000
  62.120         45.00	     7.348
  62.140         39.17	     6.856
  62.160         41.67	     7.071
  62.180         36.67	     6.633
  62.200         40.00	     6.928
  62.220         33.33	     6.325
  62.240         46.67	     7.483
  62.260         45.83	     7.416
  62.280         43.33	     7.211
  62.300         45.83	     7.416
  62.320         38.33	     6.782
  62.340         50.83	     7.810
  62.360         40.83	     7.000
  62.380         37.50	     6.708
  62.400         28.33	     5.831
  62.420         48.33	     7.616
  62.440         49.17	     7.681
  62.460         47.50	     7.550
  62.480         47.50	     7.550
  62.500         46.67	     7.483
  62.520         43.33	     7.211
  62.540         42.50	     7.141
  62.560         39.17	     6.856
  62.580         35.83	     6.557
  62.600         44.17	     7.280
  62.620         53.33	     8.000
  62.640         40.00	     6.928
  62.660         45.00	     7.348
  62.680         47.50	     7.550
  62.700         53.33	     8.000
  62.720         47.50	     7.550
  62.740         53.33	     8.000
  62.760         62.50	     8.660
  62.780         43.33	     7.211
  62.800         49.17	     7.681
  62.820         46.67	     7.483
  62.840         55.83	     8.185
  62.860         45.83	     7.416
  62.880         45.00	     7.348
  62.900         35.83	     6.557
  62.920         41.67	     7.071
  62.940         33.33	     6.325
  62.960         47.50	     7.550
  62.980         49.17	     7.681
  63.000         44.17	     7.280
  63.020         41.67	     7.071
  63.040         53.33	     8.000
  63.060         51.67	     7.874
  63.080         45.83	     7.416
  63.100         45.00	     7.348
  63.120         45.00	     7.348
  63.140         40.00	     6.928
  63.160         45.83	     7.416
  63.180         49.17	     7.681
  63.200         50.83	     7.810
  63.220         46.67	     7.483
  63.240         31.67	     6.164
  63.260         46.67	     7.483
  63.280         48.33	     7.616
  63.300         50.00	     7.746
  63.320         55.83	     8.185
  63.340         59.17	     8.426
  63.360         59.17	     8.426
  63.380         49.17	     7.681
  63.400         52.50	     7.937
  63.420         62.50	     8.660
  63.440         54.17	     8.062
  63.460         57.50	     8.307
  63.480         50.83	     7.810
  63.500         61.67	     8.602
  63.520         52.50	     7.937
  63.540         52.50	     7.937
  63.560         50.83	     7.810
  63.580         60.83	     8.544
  63.600         49.17	     7.681
  63.620         55.83	     8.185
  63.640         53.33	     8.000
  63.660         62.50	     8.660
  63.680         51.67	     7.874
  63.700         57.50	     8.307
  63.720         64.17	     8.775
  63.740         48.33	     7.616
  63.760         65.83	     8.888
  63.780         59.17	     8.426
  63.800         58.33	     8.367
  63.820         60.83	     8.544
  63.840         58.33	     8.367
  63.860         63.33	     8.718
  63.880         63.33	     8.718
  63.900         76.67	     9.592
  63.920         81.67	     9.899
  63.940         89.17	    10.344
  63.960         92.50	    10.536
  63.980         73.33	     9.381
  64.000         65.83	     8.888
  64.020         87.50	    10.247
  64.040         68.33	     9.055
  64.060         74.17	     9.434
  64.080         64.17	     8.775
  64.100         74.17	     9.434
  64.120         81.67	     9.899
  64.140         71.67	     9.274
  64.160         66.67	     8.944
  64.180         63.33	     8.718
  64.200         57.50	     8.307
  64.220         45.83	     7.416
  64.240         55.00	     8.124
  64.260         59.17	     8.426
  64.280         42.50	     7.141
  64.300         51.67	     7.874
  64.320         54.17	     8.062
  64.340         54.17	     8.062
  64.360         48.33	     7.616
  64.380         49.17	     7.681
  64.400         58.33	     8.367
  64.420         48.33	     7.616
  64.440         52.50	     7.937
  64.460         61.67	     8.602
  64.480         64.17	     8.775
  64.500         33.33	     6.325
  64.520         65.00	     8.832
  64.540         64.17	     8.775
  64.560         57.50	     8.307
  64.580         51.67	     7.874
  64.600         53.33	     8.000
  64.620         54.17	     8.062
  64.640         66.67	     8.944
  64.660         66.67	     8.944
  64.680         63.33	     8.718
  64.700         52.50	     7.937
  64.720         82.50	     9.950
  64.740         56.67	     8.246
  64.760         63.33	     8.718
  64.780         60.83	     8.544
  64.800         64.17	     8.775
  64.820         58.33	     8.367
  64.840         56.67	     8.246
  64.860         65.83	     8.888
  64.880         48.33	     7.616
  64.900         63.33	     8.718
  64.920         62.50	     8.660
  64.940         51.67	     7.874
  64.960         59.17	     8.426
  64.980         65.00	     8.832
  65.000         46.67	     7.483
