
Filename:
	C:\Program Files\Thermo Electron\WinXRD\Datafiles\F_HERMAN\FIEN\G24_FT.raw

File Created:
	October 04, 2019 - 02:29 PM

Specimen Id:
	G24 FT RT

Specimen Name:
	

Specimen Description:
	

Comment:
Scan Type: 2Theta Scan
Start Angle: 2 deg.
Stop Angle: 65 deg.
Num Points: 3151
Step Size: 0.02 deg.
Scan Rate: 1.000000
Scan Mode: Continuous
Wavelength: 1.540562
\Kalpha1: 1.540562	\Kalpha2: 1.544390	\Kbeta: 1.392218

Optics:
		Detector:
			 Type: Fixed Slits
		Tube: 
			 Type: Fixed Slits


Datas:
 Pos [deg]       Rate [CPS]      ESD [-]

Range 1 ---> Iteration 1
   2.000        880.00	    32.496
   2.020        970.83	    34.132
   2.040        947.50	    33.719
   2.060        866.67	    32.249
   2.080        878.33	    32.465
   2.100        900.00	    32.863
   2.120        921.67	    33.257
   2.140        861.67	    32.156
   2.160        824.17	    31.448
   2.180        842.50	    31.796
   2.200        835.00	    31.654
   2.220        770.83	    30.414
   2.240        836.67	    31.686
   2.260        830.00	    31.559
   2.280        768.33	    30.364
   2.300        808.33	    31.145
   2.320        777.50	    30.545
   2.340        765.83	    30.315
   2.360        760.00	    30.199
   2.380        765.00	    30.299
   2.400        720.00	    29.394
   2.420        744.17	    29.883
   2.440        713.33	    29.257
   2.460        725.83	    29.513
   2.480        697.50	    28.931
   2.500        684.17	    28.653
   2.520        697.50	    28.931
   2.540        668.33	    28.320
   2.560        644.17	    27.803
   2.580        706.67	    29.120
   2.600        637.50	    27.659
   2.620        623.33	    27.350
   2.640        613.33	    27.129
   2.660        607.50	    27.000
   2.680        580.00	    26.382
   2.700        624.17	    27.368
   2.720        570.83	    26.173
   2.740        603.33	    26.907
   2.760        657.50	    28.089
   2.780        612.50	    27.111
   2.800        615.00	    27.166
   2.820        607.50	    27.000
   2.840        596.67	    26.758
   2.860        600.00	    26.833
   2.880        545.83	    25.593
   2.900        568.33	    26.115
   2.920        569.17	    26.134
   2.940        595.83	    26.739
   2.960        561.67	    25.962
   2.980        563.33	    26.000
   3.000        534.17	    25.318
   3.020        539.17	    25.436
   3.040        565.00	    26.038
   3.060        537.50	    25.397
   3.080        541.67	    25.495
   3.100        568.33	    26.115
   3.120        518.33	    24.940
   3.140        550.00	    25.690
   3.160        501.67	    24.536
   3.180        497.50	    24.434
   3.200        497.50	    24.434
   3.220        539.17	    25.436
   3.240        517.50	    24.920
   3.260        485.83	    24.145
   3.280        490.00	    24.249
   3.300        510.83	    24.759
   3.320        477.50	    23.937
   3.340        464.17	    23.601
   3.360        457.50	    23.431
   3.380        507.50	    24.678
   3.400        472.50	    23.812
   3.420        445.00	    23.108
   3.440        481.67	    24.042
   3.460        481.67	    24.042
   3.480        450.83	    23.259
   3.500        423.33	    22.539
   3.520        458.33	    23.452
   3.540        435.00	    22.847
   3.560        416.67	    22.361
   3.580        433.33	    22.804
   3.600        450.00	    23.238
   3.620        396.67	    21.817
   3.640        446.67	    23.152
   3.660        420.00	    22.450
   3.680        465.83	    23.643
   3.700        420.83	    22.472
   3.720        388.33	    21.587
   3.740        413.33	    22.271
   3.760        409.17	    22.159
   3.780        375.00	    21.213
   3.800        389.17	    21.610
   3.820        446.67	    23.152
   3.840        395.00	    21.772
   3.860        386.67	    21.541
   3.880        369.17	    21.048
   3.900        423.33	    22.539
   3.920        379.17	    21.331
   3.940        386.67	    21.541
   3.960        400.00	    21.909
   3.980        420.00	    22.450
   4.000        360.83	    20.809
   4.020        385.00	    21.494
   4.040        378.33	    21.307
   4.060        345.00	    20.347
   4.080        360.83	    20.809
   4.100        370.00	    21.071
   4.120        391.67	    21.679
   4.140        380.00	    21.354
   4.160        390.00	    21.633
   4.180        341.67	    20.248
   4.200        350.00	    20.494
   4.220        380.00	    21.354
   4.240        353.33	    20.591
   4.260        390.83	    21.656
   4.280        364.17	    20.905
   4.300        357.50	    20.712
   4.320        355.83	    20.664
   4.340        345.00	    20.347
   4.360        335.00	    20.050
   4.380        345.00	    20.347
   4.400        331.67	    19.950
   4.420        329.17	    19.875
   4.440        343.33	    20.298
   4.460        343.33	    20.298
   4.480        347.50	    20.421
   4.500        333.33	    20.000
   4.520        367.50	    21.000
   4.540        327.50	    19.824
   4.560        325.00	    19.748
   4.580        333.33	    20.000
   4.600        317.50	    19.519
   4.620        301.67	    19.026
   4.640        275.00	    18.166
   4.660        311.67	    19.339
   4.680        329.17	    19.875
   4.700        307.50	    19.209
   4.720        296.67	    18.868
   4.740        310.00	    19.287
   4.760        296.67	    18.868
   4.780        300.83	    19.000
   4.800        275.83	    18.193
   4.820        278.33	    18.276
   4.840        292.50	    18.735
   4.860        294.17	    18.788
   4.880        291.67	    18.708
   4.900        278.33	    18.276
   4.920        285.00	    18.493
   4.940        296.67	    18.868
   4.960        318.33	    19.545
   4.980        305.00	    19.131
   5.000        300.00	    18.974
   5.020        308.33	    19.235
   5.040        294.17	    18.788
   5.060        262.50	    17.748
   5.080        273.33	    18.111
   5.100        295.00	    18.815
   5.120        291.67	    18.708
   5.140        263.33	    17.776
   5.160        300.83	    19.000
   5.180        278.33	    18.276
   5.200        268.33	    17.944
   5.220        255.83	    17.521
   5.240        261.67	    17.720
   5.260        285.00	    18.493
   5.280        274.17	    18.138
   5.300        311.67	    19.339
   5.320        307.50	    19.209
   5.340        293.33	    18.762
   5.360        290.83	    18.682
   5.380        307.50	    19.209
   5.400        274.17	    18.138
   5.420        323.33	    19.698
   5.440        277.50	    18.248
   5.460        276.67	    18.221
   5.480        324.17	    19.723
   5.500        305.83	    19.157
   5.520        329.17	    19.875
   5.540        343.33	    20.298
   5.560        370.83	    21.095
   5.580        365.00	    20.928
   5.600        423.33	    22.539
   5.620        425.83	    22.605
   5.640        500.83	    24.515
   5.660        512.50	    24.799
   5.680        572.50	    26.211
   5.700        672.50	    28.408
   5.720        739.17	    29.783
   5.740        855.83	    32.047
   5.760        845.00	    31.843
   5.780        890.83	    32.696
   5.800        797.50	    30.935
   5.820        724.17	    29.479
   5.840        639.17	    27.695
   5.860        578.33	    26.344
   5.880        559.17	    25.904
   5.900        601.67	    26.870
   5.920        610.00	    27.055
   5.940        645.83	    27.839
   5.960        708.33	    29.155
   5.980        776.67	    30.529
   6.000        760.83	    30.216
   6.020        691.67	    28.810
   6.040        707.50	    29.138
   6.060        651.67	    27.964
   6.080        583.33	    26.458
   6.100        429.17	    22.694
   6.120        369.17	    21.048
   6.140        317.50	    19.519
   6.160        329.17	    19.875
   6.180        272.50	    18.083
   6.200        299.17	    18.947
   6.220        309.17	    19.261
   6.240        275.83	    18.193
   6.260        286.67	    18.547
   6.280        293.33	    18.762
   6.300        236.67	    16.852
   6.320        266.67	    17.889
   6.340        238.33	    16.912
   6.360        268.33	    17.944
   6.380        275.00	    18.166
   6.400        281.67	    18.385
   6.420        266.67	    17.889
   6.440        246.67	    17.205
   6.460        250.00	    17.321
   6.480        256.67	    17.550
   6.500        262.50	    17.748
   6.520        218.33	    16.186
   6.540        265.83	    17.861
   6.560        242.50	    17.059
   6.580        230.83	    16.643
   6.600        253.33	    17.436
   6.620        218.33	    16.186
   6.640        227.50	    16.523
   6.660        233.33	    16.733
   6.680        245.83	    17.176
   6.700        249.17	    17.292
   6.720        203.33	    15.620
   6.740        228.33	    16.553
   6.760        258.33	    17.607
   6.780        226.67	    16.492
   6.800        225.83	    16.462
   6.820        224.17	    16.401
   6.840        215.83	    16.093
   6.860        227.50	    16.523
   6.880        238.33	    16.912
   6.900        245.83	    17.176
   6.920        211.67	    15.937
   6.940        211.67	    15.937
   6.960        239.17	    16.941
   6.980        220.00	    16.248
   7.000        230.83	    16.643
   7.020        215.83	    16.093
   7.040        230.00	    16.613
   7.060        213.33	    16.000
   7.080        217.50	    16.155
   7.100        240.83	    17.000
   7.120        219.17	    16.217
   7.140        233.33	    16.733
   7.160        229.17	    16.583
   7.180        225.00	    16.432
   7.200        228.33	    16.553
   7.220        199.17	    15.460
   7.240        206.67	    15.748
   7.260        195.83	    15.330
   7.280        235.00	    16.793
   7.300        230.83	    16.643
   7.320        210.83	    15.906
   7.340        209.17	    15.843
   7.360        185.00	    14.900
   7.380        187.50	    15.000
   7.400        220.00	    16.248
   7.420        215.83	    16.093
   7.440        196.67	    15.362
   7.460        204.17	    15.652
   7.480        214.17	    16.031
   7.500        201.67	    15.556
   7.520        189.17	    15.067
   7.540        204.17	    15.652
   7.560        179.17	    14.663
   7.580        194.17	    15.264
   7.600        215.00	    16.062
   7.620        204.17	    15.652
   7.640        188.33	    15.033
   7.660        230.00	    16.613
   7.680        184.17	    14.866
   7.700        190.00	    15.100
   7.720        212.50	    15.969
   7.740        226.67	    16.492
   7.760        224.17	    16.401
   7.780        195.00	    15.297
   7.800        201.67	    15.556
   7.820        185.00	    14.900
   7.840        192.50	    15.199
   7.860        181.67	    14.765
   7.880        164.17	    14.036
   7.900        218.33	    16.186
   7.920        195.83	    15.330
   7.940        180.83	    14.731
   7.960        210.83	    15.906
   7.980        176.67	    14.560
   8.000        194.17	    15.264
   8.020        175.00	    14.491
   8.040        220.83	    16.279
   8.060        186.67	    14.967
   8.080        219.17	    16.217
   8.100        185.00	    14.900
   8.120        204.17	    15.652
   8.140        225.83	    16.462
   8.160        212.50	    15.969
   8.180        219.17	    16.217
   8.200        203.33	    15.620
   8.220        216.67	    16.125
   8.240        216.67	    16.125
   8.260        249.17	    17.292
   8.280        215.83	    16.093
   8.300        261.67	    17.720
   8.320        257.50	    17.578
   8.340        260.83	    17.692
   8.360        235.00	    16.793
   8.380        260.83	    17.692
   8.400        323.33	    19.698
   8.420        307.50	    19.209
   8.440        324.17	    19.723
   8.460        323.33	    19.698
   8.480        351.67	    20.543
   8.500        394.17	    21.749
   8.520        444.17	    23.087
   8.540        483.33	    24.083
   8.560        605.83	    26.963
   8.580        765.00	    30.299
   8.600        883.33	    32.558
   8.620        995.83	    34.569
   8.640        957.50	    33.897
   8.660       1066.67	    35.777
   8.680       1118.33	    36.633
   8.700       1227.50	    38.380
   8.720       1168.33	    37.443
   8.740        890.83	    32.696
   8.760        530.83	    25.239
   8.780        360.83	    20.809
   8.800        279.17	    18.303
   8.820        212.50	    15.969
   8.840        232.50	    16.703
   8.860        238.33	    16.912
   8.880        241.67	    17.029
   8.900        234.17	    16.763
   8.920        214.17	    16.031
   8.940        219.17	    16.217
   8.960        205.00	    15.684
   8.980        207.50	    15.780
   9.000        274.17	    18.138
   9.020        308.33	    19.235
   9.040        268.33	    17.944
   9.060        257.50	    17.578
   9.080        201.67	    15.556
   9.100        186.67	    14.967
   9.120        185.00	    14.900
   9.140        236.67	    16.852
   9.160        204.17	    15.652
   9.180        242.50	    17.059
   9.200        253.33	    17.436
   9.220        286.67	    18.547
   9.240        350.00	    20.494
   9.260        447.50	    23.173
   9.280        460.00	    23.495
   9.300        362.50	    20.857
   9.320        271.67	    18.055
   9.340        225.00	    16.432
   9.360        180.00	    14.697
   9.380        142.50	    13.077
   9.400        164.17	    14.036
   9.420        148.33	    13.342
   9.440        145.00	    13.191
   9.460        148.33	    13.342
   9.480        166.67	    14.142
   9.500        189.17	    15.067
   9.520        155.83	    13.675
   9.540        136.67	    12.806
   9.560        155.00	    13.638
   9.580        160.00	    13.856
   9.600        146.67	    13.266
   9.620        165.00	    14.071
   9.640        165.83	    14.107
   9.660        145.83	    13.229
   9.680        145.83	    13.229
   9.700        140.83	    13.000
   9.720        154.17	    13.601
   9.740        128.33	    12.410
   9.760        129.17	    12.450
   9.780        148.33	    13.342
   9.800        121.67	    12.083
   9.820        150.83	    13.454
   9.840        125.00	    12.247
   9.860        121.67	    12.083
   9.880        137.50	    12.845
   9.900        133.33	    12.649
   9.920        135.83	    12.767
   9.940        136.67	    12.806
   9.960        138.33	    12.884
   9.980        125.83	    12.288
  10.000        134.17	    12.689
  10.020        130.00	    12.490
  10.040        125.83	    12.288
  10.060        129.17	    12.450
  10.080        149.17	    13.379
  10.100        145.83	    13.229
  10.120        120.83	    12.042
  10.140        137.50	    12.845
  10.160        116.67	    11.832
  10.180        140.83	    13.000
  10.200        145.00	    13.191
  10.220        156.67	    13.711
  10.240        172.50	    14.387
  10.260        169.17	    14.248
  10.280        200.00	    15.492
  10.300        220.83	    16.279
  10.320        228.33	    16.553
  10.340        278.33	    18.276
  10.360        381.67	    21.401
  10.380        354.17	    20.616
  10.400        250.83	    17.349
  10.420        187.50	    15.000
  10.440        139.17	    12.923
  10.460        128.33	    12.410
  10.480        125.00	    12.247
  10.500        127.50	    12.369
  10.520        119.17	    11.958
  10.540        120.83	    12.042
  10.560        160.83	    13.892
  10.580        117.50	    11.874
  10.600        140.00	    12.961
  10.620        119.17	    11.958
  10.640        102.50	    11.091
  10.660        115.00	    11.747
  10.680        106.67	    11.314
  10.700         92.50	    10.536
  10.720        120.00	    12.000
  10.740        120.00	    12.000
  10.760        112.50	    11.619
  10.780        119.17	    11.958
  10.800        122.50	    12.124
  10.820        124.17	    12.207
  10.840        135.83	    12.767
  10.860        133.33	    12.649
  10.880        137.50	    12.845
  10.900        108.33	    11.402
  10.920        120.00	    12.000
  10.940        121.67	    12.083
  10.960        101.67	    11.045
  10.980        132.50	    12.610
  11.000        110.83	    11.533
  11.020        144.17	    13.153
  11.040        104.17	    11.180
  11.060        115.00	    11.747
  11.080        120.00	    12.000
  11.100        138.33	    12.884
  11.120        138.33	    12.884
  11.140        116.67	    11.832
  11.160        112.50	    11.619
  11.180        110.00	    11.489
  11.200        125.00	    12.247
  11.220        115.00	    11.747
  11.240        125.00	    12.247
  11.260        118.33	    11.916
  11.280        133.33	    12.649
  11.300         95.83	    10.724
  11.320        144.17	    13.153
  11.340        138.33	    12.884
  11.360        125.00	    12.247
  11.380        119.17	    11.958
  11.400        113.33	    11.662
  11.420        145.00	    13.191
  11.440        136.67	    12.806
  11.460        114.17	    11.705
  11.480        127.50	    12.369
  11.500        138.33	    12.884
  11.520        131.67	    12.570
  11.540        150.83	    13.454
  11.560        137.50	    12.845
  11.580        128.33	    12.410
  11.600        135.83	    12.767
  11.620        142.50	    13.077
  11.640        147.50	    13.304
  11.660        140.00	    12.961
  11.680        146.67	    13.266
  11.700        157.50	    13.748
  11.720        153.33	    13.565
  11.740        184.17	    14.866
  11.760        190.83	    15.133
  11.780        189.17	    15.067
  11.800        210.83	    15.906
  11.820        243.33	    17.088
  11.840        232.50	    16.703
  11.860        266.67	    17.889
  11.880        347.50	    20.421
  11.900        453.33	    23.324
  11.920        629.17	    27.477
  11.940        828.33	    31.528
  11.960       1141.67	    37.014
  11.980       1487.50	    42.249
  12.000       1862.50	    47.276
  12.020       1912.50	    47.906
  12.040       1760.83	    45.967
  12.060       1266.67	    38.987
  12.080        838.33	    31.718
  12.100        621.67	    27.313
  12.120        580.00	    26.382
  12.140        627.50	    27.441
  12.160        716.67	    29.326
  12.180        761.67	    30.232
  12.200        687.50	    28.723
  12.220        622.50	    27.331
  12.240        612.50	    27.111
  12.260        640.00	    27.713
  12.280        747.50	    29.950
  12.300        837.50	    31.702
  12.320        919.17	    33.211
  12.340        770.00	    30.397
  12.360        563.33	    26.000
  12.380        380.83	    21.378
  12.400        230.00	    16.613
  12.420        160.83	    13.892
  12.440        165.83	    14.107
  12.460        151.67	    13.491
  12.480        137.50	    12.845
  12.500        129.17	    12.450
  12.520        145.00	    13.191
  12.540        139.17	    12.923
  12.560        119.17	    11.958
  12.580        136.67	    12.806
  12.600        124.17	    12.207
  12.620        108.33	    11.402
  12.640        129.17	    12.450
  12.660        118.33	    11.916
  12.680        130.00	    12.490
  12.700        123.33	    12.166
  12.720        110.00	    11.489
  12.740        111.67	    11.576
  12.760        121.67	    12.083
  12.780         97.50	    10.817
  12.800        124.17	    12.207
  12.820         97.50	    10.817
  12.840        100.00	    10.954
  12.860        105.00	    11.225
  12.880        110.00	    11.489
  12.900        113.33	    11.662
  12.920         97.50	    10.817
  12.940        117.50	    11.874
  12.960         96.67	    10.770
  12.980        116.67	    11.832
  13.000        100.00	    10.954
  13.020        116.67	    11.832
  13.040         95.83	    10.724
  13.060        110.83	    11.533
  13.080         95.00	    10.677
  13.100        105.00	    11.225
  13.120        123.33	    12.166
  13.140        103.33	    11.136
  13.160        115.83	    11.790
  13.180        114.17	    11.705
  13.200        124.17	    12.207
  13.220        116.67	    11.832
  13.240        125.83	    12.288
  13.260        102.50	    11.091
  13.280        101.67	    11.045
  13.300        115.83	    11.790
  13.320        115.83	    11.790
  13.340        127.50	    12.369
  13.360        115.83	    11.790
  13.380        105.83	    11.269
  13.400        113.33	    11.662
  13.420        101.67	    11.045
  13.440        110.00	    11.489
  13.460        117.50	    11.874
  13.480        106.67	    11.314
  13.500        105.00	    11.225
  13.520        112.50	    11.619
  13.540        108.33	    11.402
  13.560        107.50	    11.358
  13.580         96.67	    10.770
  13.600         85.00	    10.100
  13.620         96.67	    10.770
  13.640        106.67	    11.314
  13.660        118.33	    11.916
  13.680        117.50	    11.874
  13.700        115.83	    11.790
  13.720        135.83	    12.767
  13.740         98.33	    10.863
  13.760         95.83	    10.724
  13.780        100.00	    10.954
  13.800        114.17	    11.705
  13.820         98.33	    10.863
  13.840        100.00	    10.954
  13.860        135.83	    12.767
  13.880        136.67	    12.806
  13.900        124.17	    12.207
  13.920        110.00	    11.489
  13.940        102.50	    11.091
  13.960         80.83	     9.849
  13.980         72.50	     9.327
  14.000         87.50	    10.247
  14.020         98.33	    10.863
  14.040         80.83	     9.849
  14.060         86.67	    10.198
  14.080         89.17	    10.344
  14.100        100.83	    11.000
  14.120         92.50	    10.536
  14.140         84.17	    10.050
  14.160         72.50	     9.327
  14.180         75.83	     9.539
  14.200         88.33	    10.296
  14.220         85.83	    10.149
  14.240         65.83	     8.888
  14.260         75.00	     9.487
  14.280         76.67	     9.592
  14.300         81.67	     9.899
  14.320         70.00	     9.165
  14.340         90.00	    10.392
  14.360         75.83	     9.539
  14.380         80.00	     9.798
  14.400         70.00	     9.165
  14.420         80.00	     9.798
  14.440         68.33	     9.055
  14.460         78.33	     9.695
  14.480         77.50	     9.644
  14.500         87.50	    10.247
  14.520         80.00	     9.798
  14.540         70.83	     9.220
  14.560         81.67	     9.899
  14.580         87.50	    10.247
  14.600         64.17	     8.775
  14.620         60.00	     8.485
  14.640         81.67	     9.899
  14.660         68.33	     9.055
  14.680         72.50	     9.327
  14.700         75.83	     9.539
  14.720         66.67	     8.944
  14.740         70.83	     9.220
  14.760         87.50	    10.247
  14.780         98.33	    10.863
  14.800         80.83	     9.849
  14.820        101.67	    11.045
  14.840         78.33	     9.695
  14.860        100.83	    11.000
  14.880         80.00	     9.798
  14.900         79.17	     9.747
  14.920         90.83	    10.440
  14.940         70.00	     9.165
  14.960         92.50	    10.536
  14.980         85.00	    10.100
  15.000         75.83	     9.539
  15.020         81.67	     9.899
  15.040         85.00	    10.100
  15.060         64.17	     8.775
  15.080         84.17	    10.050
  15.100         83.33	    10.000
  15.120         65.00	     8.832
  15.140         72.50	     9.327
  15.160         79.17	     9.747
  15.180         72.50	     9.327
  15.200         93.33	    10.583
  15.220         70.83	     9.220
  15.240         70.83	     9.220
  15.260         97.50	    10.817
  15.280         80.00	     9.798
  15.300         68.33	     9.055
  15.320         77.50	     9.644
  15.340         75.83	     9.539
  15.360         76.67	     9.592
  15.380         77.50	     9.644
  15.400         81.67	     9.899
  15.420         68.33	     9.055
  15.440         75.00	     9.487
  15.460         68.33	     9.055
  15.480         86.67	    10.198
  15.500         77.50	     9.644
  15.520         75.83	     9.539
  15.540         80.00	     9.798
  15.560         64.17	     8.775
  15.580         83.33	    10.000
  15.600         81.67	     9.899
  15.620         85.00	    10.100
  15.640         85.83	    10.149
  15.660         73.33	     9.381
  15.680         82.50	     9.950
  15.700         76.67	     9.592
  15.720         82.50	     9.950
  15.740         82.50	     9.950
  15.760         71.67	     9.274
  15.780         84.17	    10.050
  15.800         70.83	     9.220
  15.820         56.67	     8.246
  15.840         69.17	     9.110
  15.860         71.67	     9.274
  15.880         75.83	     9.539
  15.900         76.67	     9.592
  15.920         71.67	     9.274
  15.940         64.17	     8.775
  15.960         63.33	     8.718
  15.980         72.50	     9.327
  16.000         70.00	     9.165
  16.020         74.17	     9.434
  16.040         69.17	     9.110
  16.060         60.83	     8.544
  16.080         76.67	     9.592
  16.100         71.67	     9.274
  16.120         63.33	     8.718
  16.140         62.50	     8.660
  16.160         69.17	     9.110
  16.180         65.00	     8.832
  16.200         73.33	     9.381
  16.220         84.17	    10.050
  16.240         75.83	     9.539
  16.260         83.33	    10.000
  16.280         65.83	     8.888
  16.300         74.17	     9.434
  16.320         84.17	    10.050
  16.340         73.33	     9.381
  16.360         56.67	     8.246
  16.380         75.83	     9.539
  16.400         62.50	     8.660
  16.420         68.33	     9.055
  16.440         60.00	     8.485
  16.460         65.00	     8.832
  16.480         66.67	     8.944
  16.500         73.33	     9.381
  16.520         64.17	     8.775
  16.540         69.17	     9.110
  16.560         69.17	     9.110
  16.580         69.17	     9.110
  16.600         80.83	     9.849
  16.620         70.00	     9.165
  16.640         58.33	     8.367
  16.660         74.17	     9.434
  16.680         65.83	     8.888
  16.700         63.33	     8.718
  16.720         66.67	     8.944
  16.740         88.33	    10.296
  16.760         77.50	     9.644
  16.780         75.83	     9.539
  16.800         78.33	     9.695
  16.820         81.67	     9.899
  16.840         64.17	     8.775
  16.860         69.17	     9.110
  16.880         72.50	     9.327
  16.900         61.67	     8.602
  16.920         71.67	     9.274
  16.940         62.50	     8.660
  16.960         58.33	     8.367
  16.980         70.00	     9.165
  17.000         70.83	     9.220
  17.020         69.17	     9.110
  17.040         56.67	     8.246
  17.060         70.00	     9.165
  17.080         60.83	     8.544
  17.100         73.33	     9.381
  17.120         85.00	    10.100
  17.140         70.83	     9.220
  17.160         88.33	    10.296
  17.180         67.50	     9.000
  17.200         77.50	     9.644
  17.220         83.33	    10.000
  17.240         96.67	    10.770
  17.260         81.67	     9.899
  17.280         95.83	    10.724
  17.300         82.50	     9.950
  17.320         95.83	    10.724
  17.340         78.33	     9.695
  17.360         62.50	     8.660
  17.380         82.50	     9.950
  17.400         81.67	     9.899
  17.420         74.17	     9.434
  17.440         68.33	     9.055
  17.460         94.17	    10.630
  17.480        109.17	    11.446
  17.500         95.00	    10.677
  17.520        113.33	    11.662
  17.540        120.00	    12.000
  17.560        142.50	    13.077
  17.580        168.33	    14.213
  17.600        230.00	    16.613
  17.620        283.33	    18.439
  17.640        370.83	    21.095
  17.660        341.67	    20.248
  17.680        295.00	    18.815
  17.700        255.83	    17.521
  17.720        170.83	    14.318
  17.740        135.00	    12.728
  17.760        117.50	    11.874
  17.780        108.33	    11.402
  17.800         90.00	    10.392
  17.820         85.00	    10.100
  17.840         92.50	    10.536
  17.860         94.17	    10.630
  17.880         70.83	     9.220
  17.900         75.00	     9.487
  17.920         95.00	    10.677
  17.940         81.67	     9.899
  17.960         75.00	     9.487
  17.980         80.83	     9.849
  18.000         71.67	     9.274
  18.020         83.33	    10.000
  18.040         71.67	     9.274
  18.060         61.67	     8.602
  18.080         75.83	     9.539
  18.100         80.00	     9.798
  18.120         88.33	    10.296
  18.140         82.50	     9.950
  18.160         80.00	     9.798
  18.180         85.83	    10.149
  18.200        101.67	    11.045
  18.220        113.33	    11.662
  18.240        138.33	    12.884
  18.260        162.50	    13.964
  18.280        157.50	    13.748
  18.300        178.33	    14.629
  18.320        164.17	    14.036
  18.340        214.17	    16.031
  18.360        234.17	    16.763
  18.380        275.00	    18.166
  18.400        304.17	    19.105
  18.420        285.83	    18.520
  18.440        227.50	    16.523
  18.460        209.17	    15.843
  18.480        179.17	    14.663
  18.500        196.67	    15.362
  18.520        197.50	    15.395
  18.540        184.17	    14.866
  18.560        222.50	    16.340
  18.580        276.67	    18.221
  18.600        332.50	    19.975
  18.620        322.50	    19.672
  18.640        302.50	    19.053
  18.660        217.50	    16.155
  18.680        181.67	    14.765
  18.700        139.17	    12.923
  18.720        120.00	    12.000
  18.740         99.17	    10.909
  18.760        115.83	    11.790
  18.780        125.00	    12.247
  18.800        103.33	    11.136
  18.820        112.50	    11.619
  18.840         81.67	     9.899
  18.860         85.83	    10.149
  18.880         73.33	     9.381
  18.900         85.83	    10.149
  18.920         80.83	     9.849
  18.940         83.33	    10.000
  18.960         87.50	    10.247
  18.980        110.83	    11.533
  19.000        106.67	    11.314
  19.020        105.83	    11.269
  19.040        113.33	    11.662
  19.060        105.83	    11.269
  19.080        104.17	    11.180
  19.100         89.17	    10.344
  19.120         99.17	    10.909
  19.140         85.00	    10.100
  19.160         86.67	    10.198
  19.180         85.83	    10.149
  19.200         95.83	    10.724
  19.220        103.33	    11.136
  19.240         89.17	    10.344
  19.260         96.67	    10.770
  19.280         88.33	    10.296
  19.300         65.83	     8.888
  19.320         82.50	     9.950
  19.340         92.50	    10.536
  19.360         93.33	    10.583
  19.380         73.33	     9.381
  19.400         81.67	     9.899
  19.420        111.67	    11.576
  19.440        102.50	    11.091
  19.460        115.00	    11.747
  19.480        105.00	    11.225
  19.500         89.17	    10.344
  19.520        120.83	    12.042
  19.540        115.83	    11.790
  19.560        115.00	    11.747
  19.580        111.67	    11.576
  19.600        122.50	    12.124
  19.620        110.83	    11.533
  19.640        133.33	    12.649
  19.660        133.33	    12.649
  19.680        125.83	    12.288
  19.700        135.00	    12.728
  19.720        140.00	    12.961
  19.740        115.00	    11.747
  19.760         94.17	    10.630
  19.780         80.83	     9.849
  19.800         93.33	    10.583
  19.820         88.33	    10.296
  19.840         90.83	    10.440
  19.860         81.67	     9.899
  19.880         93.33	    10.583
  19.900         90.00	    10.392
  19.920         70.83	     9.220
  19.940         94.17	    10.630
  19.960         85.83	    10.149
  19.980         84.17	    10.050
  20.000         71.67	     9.274
  20.020         66.67	     8.944
  20.040         65.83	     8.888
  20.060         61.67	     8.602
  20.080         88.33	    10.296
  20.100         70.83	     9.220
  20.120         76.67	     9.592
  20.140         82.50	     9.950
  20.160         78.33	     9.695
  20.180         73.33	     9.381
  20.200         79.17	     9.747
  20.220         95.00	    10.677
  20.240         91.67	    10.488
  20.260         92.50	    10.536
  20.280         68.33	     9.055
  20.300         65.00	     8.832
  20.320         89.17	    10.344
  20.340         72.50	     9.327
  20.360         75.83	     9.539
  20.380         83.33	    10.000
  20.400        100.83	    11.000
  20.420         95.00	    10.677
  20.440         88.33	    10.296
  20.460         72.50	     9.327
  20.480         85.00	    10.100
  20.500         92.50	    10.536
  20.520         89.17	    10.344
  20.540         90.83	    10.440
  20.560         86.67	    10.198
  20.580         95.83	    10.724
  20.600         81.67	     9.899
  20.620        125.83	    12.288
  20.640        200.83	    15.524
  20.660        279.17	    18.303
  20.680        320.00	    19.596
  20.700        323.33	    19.698
  20.720        225.83	    16.462
  20.740        204.17	    15.652
  20.760        169.17	    14.248
  20.780        132.50	    12.610
  20.800        105.00	    11.225
  20.820        115.83	    11.790
  20.840        119.17	    11.958
  20.860         95.83	    10.724
  20.880         82.50	     9.950
  20.900         89.17	    10.344
  20.920         88.33	    10.296
  20.940         83.33	    10.000
  20.960         92.50	    10.536
  20.980        109.17	    11.446
  21.000         70.00	     9.165
  21.020         81.67	     9.899
  21.040         85.83	    10.149
  21.060         80.00	     9.798
  21.080         80.00	     9.798
  21.100         75.00	     9.487
  21.120         74.17	     9.434
  21.140         69.17	     9.110
  21.160         71.67	     9.274
  21.180         65.83	     8.888
  21.200         82.50	     9.950
  21.220         71.67	     9.274
  21.240         73.33	     9.381
  21.260         76.67	     9.592
  21.280         65.00	     8.832
  21.300         65.00	     8.832
  21.320         71.67	     9.274
  21.340         90.00	    10.392
  21.360         77.50	     9.644
  21.380         79.17	     9.747
  21.400         79.17	     9.747
  21.420         95.00	    10.677
  21.440         78.33	     9.695
  21.460         75.83	     9.539
  21.480         60.00	     8.485
  21.500         66.67	     8.944
  21.520         82.50	     9.950
  21.540         69.17	     9.110
  21.560         71.67	     9.274
  21.580         82.50	     9.950
  21.600         69.17	     9.110
  21.620         81.67	     9.899
  21.640         76.67	     9.592
  21.660         84.17	    10.050
  21.680         77.50	     9.644
  21.700         90.00	    10.392
  21.720         82.50	     9.950
  21.740         85.00	    10.100
  21.760        102.50	    11.091
  21.780        171.67	    14.353
  21.800        250.00	    17.321
  21.820        341.67	    20.248
  21.840        450.00	    23.238
  21.860        576.67	    26.306
  21.880        520.00	    24.980
  21.900        368.33	    21.024
  21.920        319.17	    19.570
  21.940        222.50	    16.340
  21.960        155.83	    13.675
  21.980        117.50	    11.874
  22.000         96.67	    10.770
  22.020         97.50	    10.817
  22.040         95.83	    10.724
  22.060         67.50	     9.000
  22.080         86.67	    10.198
  22.100         75.00	     9.487
  22.120         93.33	    10.583
  22.140         99.17	    10.909
  22.160         79.17	     9.747
  22.180         78.33	     9.695
  22.200         66.67	     8.944
  22.220         85.00	    10.100
  22.240         65.83	     8.888
  22.260         55.00	     8.124
  22.280         83.33	    10.000
  22.300         71.67	     9.274
  22.320         70.00	     9.165
  22.340         66.67	     8.944
  22.360         73.33	     9.381
  22.380         67.50	     9.000
  22.400         60.00	     8.485
  22.420         79.17	     9.747
  22.440         77.50	     9.644
  22.460         64.17	     8.775
  22.480         71.67	     9.274
  22.500         65.00	     8.832
  22.520         85.00	    10.100
  22.540         88.33	    10.296
  22.560         70.00	     9.165
  22.580         75.83	     9.539
  22.600        100.00	    10.954
  22.620        151.67	    13.491
  22.640        188.33	    15.033
  22.660        150.83	    13.454
  22.680        187.50	    15.000
  22.700        139.17	    12.923
  22.720        150.00	    13.416
  22.740        125.00	    12.247
  22.760        120.83	    12.042
  22.780        112.50	    11.619
  22.800        105.00	    11.225
  22.820        108.33	    11.402
  22.840        106.67	    11.314
  22.860        106.67	    11.314
  22.880        104.17	    11.180
  22.900         96.67	    10.770
  22.920         93.33	    10.583
  22.940         87.50	    10.247
  22.960        104.17	    11.180
  22.980         91.67	    10.488
  23.000         88.33	    10.296
  23.020         87.50	    10.247
  23.040         80.83	     9.849
  23.060         71.67	     9.274
  23.080         83.33	    10.000
  23.100         72.50	     9.327
  23.120         80.00	     9.798
  23.140         75.83	     9.539
  23.160         72.50	     9.327
  23.180         72.50	     9.327
  23.200         68.33	     9.055
  23.220         76.67	     9.592
  23.240         72.50	     9.327
  23.260         98.33	    10.863
  23.280        100.83	    11.000
  23.300        103.33	    11.136
  23.320        111.67	    11.576
  23.340        135.83	    12.767
  23.360        140.00	    12.961
  23.380        142.50	    13.077
  23.400        170.00	    14.283
  23.420        170.00	    14.283
  23.440        142.50	    13.077
  23.460        120.00	    12.000
  23.480        124.17	    12.207
  23.500        105.00	    11.225
  23.520        104.17	    11.180
  23.540         89.17	    10.344
  23.560         95.00	    10.677
  23.580         87.50	    10.247
  23.600         86.67	    10.198
  23.620        103.33	    11.136
  23.640        114.17	    11.705
  23.660        109.17	    11.446
  23.680         97.50	    10.817
  23.700        105.83	    11.269
  23.720        106.67	    11.314
  23.740         98.33	    10.863
  23.760        113.33	    11.662
  23.780        106.67	    11.314
  23.800         98.33	    10.863
  23.820        105.00	    11.225
  23.840        104.17	    11.180
  23.860        105.83	    11.269
  23.880        107.50	    11.358
  23.900         86.67	    10.198
  23.920        100.00	    10.954
  23.940        110.00	    11.489
  23.960        113.33	    11.662
  23.980        157.50	    13.748
  24.000        134.17	    12.689
  24.020        120.00	    12.000
  24.040        123.33	    12.166
  24.060        136.67	    12.806
  24.080        153.33	    13.565
  24.100        148.33	    13.342
  24.120        171.67	    14.353
  24.140        162.50	    13.964
  24.160        137.50	    12.845
  24.180        151.67	    13.491
  24.200        130.00	    12.490
  24.220        126.67	    12.329
  24.240        157.50	    13.748
  24.260        142.50	    13.077
  24.280        150.00	    13.416
  24.300        154.17	    13.601
  24.320        245.83	    17.176
  24.340        335.83	    20.075
  24.360        492.50	    24.310
  24.380        690.00	    28.775
  24.400        790.83	    30.806
  24.420        887.50	    32.634
  24.440        966.67	    34.059
  24.460        985.00	    34.380
  24.480        839.17	    31.733
  24.500        755.83	    30.116
  24.520        667.50	    28.302
  24.540        488.33	    24.207
  24.560        420.00	    22.450
  24.580        325.83	    19.774
  24.600        301.67	    19.026
  24.620        349.17	    20.469
  24.640        366.67	    20.976
  24.660        326.67	    19.799
  24.680        350.00	    20.494
  24.700        336.67	    20.100
  24.720        314.17	    19.416
  24.740        291.67	    18.708
  24.760        261.67	    17.720
  24.780        228.33	    16.553
  24.800        251.67	    17.378
  24.820        232.50	    16.703
  24.840        220.00	    16.248
  24.860        235.00	    16.793
  24.880        304.17	    19.105
  24.900        301.67	    19.026
  24.920        325.00	    19.748
  24.940        388.33	    21.587
  24.960        513.33	    24.819
  24.980        538.33	    25.417
  25.000        480.00	    24.000
  25.020        406.67	    22.091
  25.040        369.17	    21.048
  25.060        275.83	    18.193
  25.080        222.50	    16.340
  25.100        170.83	    14.318
  25.120        157.50	    13.748
  25.140        160.83	    13.892
  25.160        140.83	    13.000
  25.180        152.50	    13.528
  25.200        156.67	    13.711
  25.220        137.50	    12.845
  25.240        165.83	    14.107
  25.260        155.83	    13.675
  25.280        160.00	    13.856
  25.300        158.33	    13.784
  25.320        171.67	    14.353
  25.340        156.67	    13.711
  25.360        176.67	    14.560
  25.380        166.67	    14.142
  25.400        155.83	    13.675
  25.420        147.50	    13.304
  25.440        136.67	    12.806
  25.460        148.33	    13.342
  25.480        121.67	    12.083
  25.500        105.83	    11.269
  25.520        114.17	    11.705
  25.540        108.33	    11.402
  25.560        102.50	    11.091
  25.580         99.17	    10.909
  25.600         87.50	    10.247
  25.620        100.00	    10.954
  25.640         85.00	    10.100
  25.660        100.00	    10.954
  25.680        100.83	    11.000
  25.700         97.50	    10.817
  25.720         93.33	    10.583
  25.740        105.00	    11.225
  25.760         86.67	    10.198
  25.780         95.00	    10.677
  25.800         96.67	    10.770
  25.820         95.00	    10.677
  25.840         87.50	    10.247
  25.860         81.67	     9.899
  25.880         67.50	     9.000
  25.900         82.50	     9.950
  25.920         90.83	    10.440
  25.940         88.33	    10.296
  25.960         98.33	    10.863
  25.980         90.83	    10.440
  26.000        105.00	    11.225
  26.020         98.33	    10.863
  26.040         95.83	    10.724
  26.060        100.83	    11.000
  26.080        111.67	    11.576
  26.100        121.67	    12.083
  26.120        128.33	    12.410
  26.140        155.00	    13.638
  26.160        148.33	    13.342
  26.180        148.33	    13.342
  26.200        162.50	    13.964
  26.220        197.50	    15.395
  26.240        195.00	    15.297
  26.260        216.67	    16.125
  26.280        197.50	    15.395
  26.300        240.83	    17.000
  26.320        248.33	    17.263
  26.340        267.50	    17.916
  26.360        299.17	    18.947
  26.380        330.00	    19.900
  26.400        478.33	    23.958
  26.420        827.50	    31.512
  26.440       1618.33	    44.068
  26.460       2361.67	    53.235
  26.480       2366.67	    53.292
  26.500       1785.00	    46.282
  26.520       1475.83	    42.083
  26.540       1462.50	    41.893
  26.560       1034.17	    35.228
  26.580        617.50	    27.221
  26.600        474.17	    23.854
  26.620        452.50	    23.302
  26.640        599.17	    26.814
  26.660        633.33	    27.568
  26.680        681.67	    28.601
  26.700        808.33	    31.145
  26.720        731.67	    29.631
  26.740        690.83	    28.792
  26.760        575.00	    26.268
  26.780        444.17	    23.087
  26.800        345.00	    20.347
  26.820        285.83	    18.520
  26.840        193.33	    15.232
  26.860        138.33	    12.884
  26.880        157.50	    13.748
  26.900        141.67	    13.038
  26.920        112.50	    11.619
  26.940        108.33	    11.402
  26.960        116.67	    11.832
  26.980        100.00	    10.954
  27.000        120.83	    12.042
  27.020        115.00	    11.747
  27.040        126.67	    12.329
  27.060        140.83	    13.000
  27.080        130.00	    12.490
  27.100        130.83	    12.530
  27.120        136.67	    12.806
  27.140        105.83	    11.269
  27.160        117.50	    11.874
  27.180        116.67	    11.832
  27.200        130.00	    12.490
  27.220        125.00	    12.247
  27.240        176.67	    14.560
  27.260        302.50	    19.053
  27.280        500.83	    24.515
  27.300        553.33	    25.768
  27.320        415.00	    22.316
  27.340        449.17	    23.216
  27.360        412.50	    22.249
  27.380        325.00	    19.748
  27.400        260.83	    17.692
  27.420        187.50	    15.000
  27.440        121.67	    12.083
  27.460        137.50	    12.845
  27.480        149.17	    13.379
  27.500        148.33	    13.342
  27.520        185.00	    14.900
  27.540        222.50	    16.340
  27.560        252.50	    17.407
  27.580        302.50	    19.053
  27.600        365.83	    20.952
  27.620        480.83	    24.021
  27.640        474.17	    23.854
  27.660        447.50	    23.173
  27.680        381.67	    21.401
  27.700        422.50	    22.517
  27.720        594.17	    26.702
  27.740        635.83	    27.622
  27.760        638.33	    27.677
  27.780        479.17	    23.979
  27.800        479.17	    23.979
  27.820        460.83	    23.516
  27.840        366.67	    20.976
  27.860        262.50	    17.748
  27.880        220.83	    16.279
  27.900        175.00	    14.491
  27.920        195.83	    15.330
  27.940        198.33	    15.427
  27.960        234.17	    16.763
  27.980        220.83	    16.279
  28.000        201.67	    15.556
  28.020        164.17	    14.036
  28.040        172.50	    14.387
  28.060        163.33	    14.000
  28.080        136.67	    12.806
  28.100        162.50	    13.964
  28.120        159.17	    13.820
  28.140        140.83	    13.000
  28.160        133.33	    12.649
  28.180        140.00	    12.961
  28.200        130.83	    12.530
  28.220        105.83	    11.269
  28.240         96.67	    10.770
  28.260         95.00	    10.677
  28.280         90.83	    10.440
  28.300         89.17	    10.344
  28.320        108.33	    11.402
  28.340        152.50	    13.528
  28.360        171.67	    14.353
  28.380        211.67	    15.937
  28.400        257.50	    17.578
  28.420        304.17	    19.105
  28.440        335.83	    20.075
  28.460        345.83	    20.372
  28.480        275.00	    18.166
  28.500        228.33	    16.553
  28.520        243.33	    17.088
  28.540        174.17	    14.457
  28.560        178.33	    14.629
  28.580        152.50	    13.528
  28.600        140.83	    13.000
  28.620        108.33	    11.402
  28.640        111.67	    11.576
  28.660        107.50	    11.358
  28.680         82.50	     9.950
  28.700         86.67	    10.198
  28.720         74.17	     9.434
  28.740         66.67	     8.944
  28.760         52.50	     7.937
  28.780         70.00	     9.165
  28.800         62.50	     8.660
  28.820         60.83	     8.544
  28.840         63.33	     8.718
  28.860         62.50	     8.660
  28.880         55.00	     8.124
  28.900         70.83	     9.220
  28.920         68.33	     9.055
  28.940         56.67	     8.246
  28.960         64.17	     8.775
  28.980         61.67	     8.602
  29.000         73.33	     9.381
  29.020         55.00	     8.124
  29.040         72.50	     9.327
  29.060         63.33	     8.718
  29.080         65.83	     8.888
  29.100         65.83	     8.888
  29.120         83.33	    10.000
  29.140         77.50	     9.644
  29.160         71.67	     9.274
  29.180         56.67	     8.246
  29.200         87.50	    10.247
  29.220        145.83	    13.229
  29.240        178.33	    14.629
  29.260        161.67	    13.928
  29.280        152.50	    13.528
  29.300        148.33	    13.342
  29.320        127.50	    12.369
  29.340        115.00	    11.747
  29.360        111.67	    11.576
  29.380        105.00	    11.225
  29.400         88.33	    10.296
  29.420         93.33	    10.583
  29.440        113.33	    11.662
  29.460         84.17	    10.050
  29.480         89.17	    10.344
  29.500         97.50	    10.817
  29.520         89.17	    10.344
  29.540        100.00	    10.954
  29.560         93.33	    10.583
  29.580         94.17	    10.630
  29.600        125.00	    12.247
  29.620        123.33	    12.166
  29.640        160.83	    13.892
  29.660        169.17	    14.248
  29.680        206.67	    15.748
  29.700        181.67	    14.765
  29.720        190.00	    15.100
  29.740        175.00	    14.491
  29.760        184.17	    14.866
  29.780        157.50	    13.748
  29.800        127.50	    12.369
  29.820        119.17	    11.958
  29.840        126.67	    12.329
  29.860        126.67	    12.329
  29.880        133.33	    12.649
  29.900        156.67	    13.711
  29.920        151.67	    13.491
  29.940        165.83	    14.107
  29.960        133.33	    12.649
  29.980        147.50	    13.304
  30.000        139.17	    12.923
  30.020        123.33	    12.166
  30.040        145.83	    13.229
  30.060        172.50	    14.387
  30.080        209.17	    15.843
  30.100        152.50	    13.528
  30.120        127.50	    12.369
  30.140        118.33	    11.916
  30.160        152.50	    13.528
  30.180        130.00	    12.490
  30.200        105.00	    11.225
  30.220        129.17	    12.450
  30.240        118.33	    11.916
  30.260        145.83	    13.229
  30.280        129.17	    12.450
  30.300        147.50	    13.304
  30.320        159.17	    13.820
  30.340        136.67	    12.806
  30.360        135.00	    12.728
  30.380        130.83	    12.530
  30.400        113.33	    11.662
  30.420         83.33	    10.000
  30.440         73.33	     9.381
  30.460         77.50	     9.644
  30.480         74.17	     9.434
  30.500         76.67	     9.592
  30.520         63.33	     8.718
  30.540         54.17	     8.062
  30.560         86.67	    10.198
  30.580         70.00	     9.165
  30.600        117.50	    11.874
  30.620        120.83	    12.042
  30.640        159.17	    13.820
  30.660        187.50	    15.000
  30.680        192.50	    15.199
  30.700        165.83	    14.107
  30.720        160.00	    13.856
  30.740        163.33	    14.000
  30.760        148.33	    13.342
  30.780        115.83	    11.790
  30.800        114.17	    11.705
  30.820         94.17	    10.630
  30.840         94.17	    10.630
  30.860         93.33	    10.583
  30.880         99.17	    10.909
  30.900        114.17	    11.705
  30.920        105.83	    11.269
  30.940        108.33	    11.402
  30.960        111.67	    11.576
  30.980        125.83	    12.288
  31.000        145.00	    13.191
  31.020        149.17	    13.379
  31.040        165.00	    14.071
  31.060        188.33	    15.033
  31.080        200.83	    15.524
  31.100        168.33	    14.213
  31.120        151.67	    13.491
  31.140        156.67	    13.711
  31.160        132.50	    12.610
  31.180        109.17	    11.446
  31.200        130.00	    12.490
  31.220        113.33	    11.662
  31.240         97.50	    10.817
  31.260        117.50	    11.874
  31.280         93.33	    10.583
  31.300         94.17	    10.630
  31.320        100.83	    11.000
  31.340        120.83	    12.042
  31.360        104.17	    11.180
  31.380        113.33	    11.662
  31.400        139.17	    12.923
  31.420        148.33	    13.342
  31.440         98.33	    10.863
  31.460        116.67	    11.832
  31.480        104.17	    11.180
  31.500         83.33	    10.000
  31.520         76.67	     9.592
  31.540         67.50	     9.000
  31.560         62.50	     8.660
  31.580         43.33	     7.211
  31.600         59.17	     8.426
  31.620         63.33	     8.718
  31.640         75.83	     9.539
  31.660         73.33	     9.381
  31.680         71.67	     9.274
  31.700         80.83	     9.849
  31.720         75.00	     9.487
  31.740         66.67	     8.944
  31.760         83.33	    10.000
  31.780         77.50	     9.644
  31.800         73.33	     9.381
  31.820         79.17	     9.747
  31.840         78.33	     9.695
  31.860        100.00	    10.954
  31.880         85.00	    10.100
  31.900         80.83	     9.849
  31.920         98.33	    10.863
  31.940        110.83	    11.533
  31.960        101.67	    11.045
  31.980         87.50	    10.247
  32.000         83.33	    10.000
  32.020         91.67	    10.488
  32.040         89.17	    10.344
  32.060         79.17	     9.747
  32.080         60.00	     8.485
  32.100         85.00	    10.100
  32.120         68.33	     9.055
  32.140         89.17	    10.344
  32.160         87.50	    10.247
  32.180         62.50	     8.660
  32.200         72.50	     9.327
  32.220         46.67	     7.483
  32.240         78.33	     9.695
  32.260         71.67	     9.274
  32.280         53.33	     8.000
  32.300         55.00	     8.124
  32.320         50.83	     7.810
  32.340         55.83	     8.185
  32.360         50.83	     7.810
  32.380         50.83	     7.810
  32.400         53.33	     8.000
  32.420         51.67	     7.874
  32.440         42.50	     7.141
  32.460         53.33	     8.000
  32.480         51.67	     7.874
  32.500         58.33	     8.367
  32.520         53.33	     8.000
  32.540         50.83	     7.810
  32.560         65.83	     8.888
  32.580         49.17	     7.681
  32.600         60.00	     8.485
  32.620         59.17	     8.426
  32.640         55.83	     8.185
  32.660         45.00	     7.348
  32.680         68.33	     9.055
  32.700         47.50	     7.550
  32.720         50.83	     7.810
  32.740         56.67	     8.246
  32.760         70.83	     9.220
  32.780         75.00	     9.487
  32.800         65.83	     8.888
  32.820         78.33	     9.695
  32.840         87.50	    10.247
  32.860        113.33	    11.662
  32.880        119.17	    11.958
  32.900        100.00	    10.954
  32.920        115.00	    11.747
  32.940        131.67	    12.570
  32.960         97.50	    10.817
  32.980         81.67	     9.899
  33.000         91.67	    10.488
  33.020         88.33	    10.296
  33.040         71.67	     9.274
  33.060         73.33	     9.381
  33.080         65.83	     8.888
  33.100         60.00	     8.485
  33.120         56.67	     8.246
  33.140         78.33	     9.695
  33.160         69.17	     9.110
  33.180         58.33	     8.367
  33.200         63.33	     8.718
  33.220         65.83	     8.888
  33.240         55.83	     8.185
  33.260        109.17	    11.446
  33.280        128.33	    12.410
  33.300        152.50	    13.528
  33.320        188.33	    15.033
  33.340        136.67	    12.806
  33.360        104.17	    11.180
  33.380        124.17	    12.207
  33.400        107.50	    11.358
  33.420         83.33	    10.000
  33.440         63.33	     8.718
  33.460         72.50	     9.327
  33.480         75.83	     9.539
  33.500         72.50	     9.327
  33.520         61.67	     8.602
  33.540         75.83	     9.539
  33.560         61.67	     8.602
  33.580         78.33	     9.695
  33.600         52.50	     7.937
  33.620         76.67	     9.592
  33.640        119.17	    11.958
  33.660         93.33	    10.583
  33.680        106.67	    11.314
  33.700         88.33	    10.296
  33.720         95.00	    10.677
  33.740         95.00	    10.677
  33.760         90.83	    10.440
  33.780         83.33	    10.000
  33.800         88.33	    10.296
  33.820         83.33	    10.000
  33.840         75.00	     9.487
  33.860         95.00	    10.677
  33.880         80.00	     9.798
  33.900         87.50	    10.247
  33.920         85.00	    10.100
  33.940         80.83	     9.849
  33.960         80.00	     9.798
  33.980         78.33	     9.695
  34.000         71.67	     9.274
  34.020         74.17	     9.434
  34.040         66.67	     8.944
  34.060         82.50	     9.950
  34.080         51.67	     7.874
  34.100         57.50	     8.307
  34.120         75.00	     9.487
  34.140         79.17	     9.747
  34.160         93.33	    10.583
  34.180         95.00	    10.677
  34.200         90.83	    10.440
  34.220        104.17	    11.180
  34.240         99.17	    10.909
  34.260         99.17	    10.909
  34.280        106.67	    11.314
  34.300        149.17	    13.379
  34.320        176.67	    14.560
  34.340        188.33	    15.033
  34.360        328.33	    19.849
  34.380        378.33	    21.307
  34.400        318.33	    19.545
  34.420        200.00	    15.492
  34.440        213.33	    16.000
  34.460        238.33	    16.912
  34.480        247.50	    17.234
  34.500        125.83	    12.288
  34.520        131.67	    12.570
  34.540         97.50	    10.817
  34.560        106.67	    11.314
  34.580        112.50	    11.619
  34.600        116.67	    11.832
  34.620        107.50	    11.358
  34.640        121.67	    12.083
  34.660        128.33	    12.410
  34.680        122.50	    12.124
  34.700        147.50	    13.304
  34.720        153.33	    13.565
  34.740        157.50	    13.748
  34.760        196.67	    15.362
  34.780        202.50	    15.588
  34.800        190.00	    15.100
  34.820        209.17	    15.843
  34.840        204.17	    15.652
  34.860        184.17	    14.866
  34.880        191.67	    15.166
  34.900        160.83	    13.892
  34.920        160.00	    13.856
  34.940        157.50	    13.748
  34.960        145.00	    13.191
  34.980        134.17	    12.689
  35.000        125.00	    12.247
  35.020        125.00	    12.247
  35.040        127.50	    12.369
  35.060        130.83	    12.530
  35.080        130.83	    12.530
  35.100        159.17	    13.820
  35.120        135.00	    12.728
  35.140        110.00	    11.489
  35.160        134.17	    12.689
  35.180        139.17	    12.923
  35.200        145.00	    13.191
  35.220        130.00	    12.490
  35.240        175.83	    14.526
  35.260        194.17	    15.264
  35.280        245.00	    17.146
  35.300        313.33	    19.391
  35.320        351.67	    20.543
  35.340        376.67	    21.260
  35.360        429.17	    22.694
  35.380        470.00	    23.749
  35.400        468.33	    23.707
  35.420        400.83	    21.932
  35.440        355.00	    20.640
  35.460        305.83	    19.157
  35.480        319.17	    19.570
  35.500        341.67	    20.248
  35.520        304.17	    19.105
  35.540        195.83	    15.330
  35.560        168.33	    14.213
  35.580        187.50	    15.000
  35.600        170.00	    14.283
  35.620        160.00	    13.856
  35.640        134.17	    12.689
  35.660        116.67	    11.832
  35.680        117.50	    11.874
  35.700        107.50	    11.358
  35.720        105.00	    11.225
  35.740        110.00	    11.489
  35.760         94.17	    10.630
  35.780         96.67	    10.770
  35.800         99.17	    10.909
  35.820        103.33	    11.136
  35.840         90.00	    10.392
  35.860        125.83	    12.288
  35.880        105.83	    11.269
  35.900        117.50	    11.874
  35.920        127.50	    12.369
  35.940        123.33	    12.166
  35.960        130.83	    12.530
  35.980        100.83	    11.000
  36.000         99.17	    10.909
  36.020        102.50	    11.091
  36.040         97.50	    10.817
  36.060         88.33	    10.296
  36.080         70.83	     9.220
  36.100         80.83	     9.849
  36.120         70.83	     9.220
  36.140         86.67	    10.198
  36.160         85.83	    10.149
  36.180         79.17	     9.747
  36.200         85.00	    10.100
  36.220         90.00	    10.392
  36.240         90.83	    10.440
  36.260         97.50	    10.817
  36.280        151.67	    13.491
  36.300        160.00	    13.856
  36.320        175.83	    14.526
  36.340        242.50	    17.059
  36.360        391.67	    21.679
  36.380        421.67	    22.494
  36.400        309.17	    19.261
  36.420        221.67	    16.310
  36.440        227.50	    16.523
  36.460        263.33	    17.776
  36.480        273.33	    18.111
  36.500        223.33	    16.371
  36.520        154.17	    13.601
  36.540        166.67	    14.142
  36.560        171.67	    14.353
  36.580        180.83	    14.731
  36.600        175.00	    14.491
  36.620        151.67	    13.491
  36.640        116.67	    11.832
  36.660        112.50	    11.619
  36.680        110.00	    11.489
  36.700        120.00	    12.000
  36.720        100.00	    10.954
  36.740         74.17	     9.434
  36.760         78.33	     9.695
  36.780         86.67	    10.198
  36.800         84.17	    10.050
  36.820         74.17	     9.434
  36.840         85.83	    10.149
  36.860         67.50	     9.000
  36.880         93.33	    10.583
  36.900         87.50	    10.247
  36.920         94.17	    10.630
  36.940        102.50	    11.091
  36.960         91.67	    10.488
  36.980         98.33	    10.863
  37.000         99.17	    10.909
  37.020         96.67	    10.770
  37.040        100.00	    10.954
  37.060        107.50	    11.358
  37.080         88.33	    10.296
  37.100        100.00	    10.954
  37.120        124.17	    12.207
  37.140        100.83	    11.000
  37.160        110.00	    11.489
  37.180        124.17	    12.207
  37.200        120.83	    12.042
  37.220        104.17	    11.180
  37.240         99.17	    10.909
  37.260        108.33	    11.402
  37.280        120.00	    12.000
  37.300        110.83	    11.533
  37.320         95.83	    10.724
  37.340        120.83	    12.042
  37.360        108.33	    11.402
  37.380        106.67	    11.314
  37.400        102.50	    11.091
  37.420        118.33	    11.916
  37.440        140.00	    12.961
  37.460        114.17	    11.705
  37.480        123.33	    12.166
  37.500        135.00	    12.728
  37.520        118.33	    11.916
  37.540        140.83	    13.000
  37.560        130.83	    12.530
  37.580        111.67	    11.576
  37.600         89.17	    10.344
  37.620        105.83	    11.269
  37.640         72.50	     9.327
  37.660         84.17	    10.050
  37.680         70.83	     9.220
  37.700         73.33	     9.381
  37.720         63.33	     8.718
  37.740         54.17	     8.062
  37.760         61.67	     8.602
  37.780         66.67	     8.944
  37.800         49.17	     7.681
  37.820         58.33	     8.367
  37.840         53.33	     8.000
  37.860         56.67	     8.246
  37.880         47.50	     7.550
  37.900         43.33	     7.211
  37.920         52.50	     7.937
  37.940         50.83	     7.810
  37.960         47.50	     7.550
  37.980         42.50	     7.141
  38.000         42.50	     7.141
  38.020         47.50	     7.550
  38.040         46.67	     7.483
  38.060         53.33	     8.000
  38.080         47.50	     7.550
  38.100         46.67	     7.483
  38.120         42.50	     7.141
  38.140         48.33	     7.616
  38.160         61.67	     8.602
  38.180         57.50	     8.307
  38.200         50.83	     7.810
  38.220         48.33	     7.616
  38.240         70.83	     9.220
  38.260         90.83	    10.440
  38.280         89.17	    10.344
  38.300        104.17	    11.180
  38.320         76.67	     9.592
  38.340         87.50	    10.247
  38.360         76.67	     9.592
  38.380         79.17	     9.747
  38.400         72.50	     9.327
  38.420         58.33	     8.367
  38.440         73.33	     9.381
  38.460         63.33	     8.718
  38.480         64.17	     8.775
  38.500         61.67	     8.602
  38.520         55.83	     8.185
  38.540         71.67	     9.274
  38.560         58.33	     8.367
  38.580         70.00	     9.165
  38.600         69.17	     9.110
  38.620         62.50	     8.660
  38.640         76.67	     9.592
  38.660         87.50	    10.247
  38.680         94.17	    10.630
  38.700         87.50	    10.247
  38.720         76.67	     9.592
  38.740         70.83	     9.220
  38.760         72.50	     9.327
  38.780         65.00	     8.832
  38.800         89.17	    10.344
  38.820         75.00	     9.487
  38.840         84.17	    10.050
  38.860         90.00	    10.392
  38.880        134.17	    12.689
  38.900        165.83	    14.107
  38.920        159.17	    13.820
  38.940         75.83	     9.539
  38.960         94.17	    10.630
  38.980         84.17	    10.050
  39.000        131.67	    12.570
  39.020        103.33	    11.136
  39.040         82.50	     9.950
  39.060         65.83	     8.888
  39.080         77.50	     9.644
  39.100         65.83	     8.888
  39.120         60.00	     8.485
  39.140         60.00	     8.485
  39.160         43.33	     7.211
  39.180         52.50	     7.937
  39.200         88.33	    10.296
  39.220         84.17	    10.050
  39.240        114.17	    11.705
  39.260        169.17	    14.248
  39.280        226.67	    16.492
  39.300        206.67	    15.748
  39.320        157.50	    13.748
  39.340        140.83	    13.000
  39.360        135.83	    12.767
  39.380        150.00	    13.416
  39.400        157.50	    13.748
  39.420        143.33	    13.115
  39.440        125.00	    12.247
  39.460        101.67	    11.045
  39.480        125.83	    12.288
  39.500        113.33	    11.662
  39.520         88.33	    10.296
  39.540        100.83	    11.000
  39.560         90.83	    10.440
  39.580         93.33	    10.583
  39.600         77.50	     9.644
  39.620         77.50	     9.644
  39.640         92.50	    10.536
  39.660         65.83	     8.888
  39.680         66.67	     8.944
  39.700         68.33	     9.055
  39.720         80.83	     9.849
  39.740         62.50	     8.660
  39.760         53.33	     8.000
  39.780         62.50	     8.660
  39.800         69.17	     9.110
  39.820         79.17	     9.747
  39.840         69.17	     9.110
  39.860         60.83	     8.544
  39.880         57.50	     8.307
  39.900         60.00	     8.485
  39.920         43.33	     7.211
  39.940         61.67	     8.602
  39.960         58.33	     8.367
  39.980         45.00	     7.348
  40.000         61.67	     8.602
  40.020         68.33	     9.055
  40.040         65.83	     8.888
  40.060         70.83	     9.220
  40.080         96.67	    10.770
  40.100        118.33	    11.916
  40.120        145.83	    13.229
  40.140        140.83	    13.000
  40.160         88.33	    10.296
  40.180         90.00	    10.392
  40.200         96.67	    10.770
  40.220         93.33	    10.583
  40.240         97.50	    10.817
  40.260         85.00	    10.100
  40.280         62.50	     8.660
  40.300         65.00	     8.832
  40.320         55.00	     8.124
  40.340         62.50	     8.660
  40.360         56.67	     8.246
  40.380         45.00	     7.348
  40.400         55.00	     8.124
  40.420         50.83	     7.810
  40.440         42.50	     7.141
  40.460         55.83	     8.185
  40.480         47.50	     7.550
  40.500         59.17	     8.426
  40.520         45.00	     7.348
  40.540         64.17	     8.775
  40.560         53.33	     8.000
  40.580         52.50	     7.937
  40.600         53.33	     8.000
  40.620         65.00	     8.832
  40.640         63.33	     8.718
  40.660         55.00	     8.124
  40.680         69.17	     9.110
  40.700         63.33	     8.718
  40.720         70.83	     9.220
  40.740         69.17	     9.110
  40.760         73.33	     9.381
  40.780         70.83	     9.220
  40.800         76.67	     9.592
  40.820         69.17	     9.110
  40.840         65.00	     8.832
  40.860         76.67	     9.592
  40.880         67.50	     9.000
  40.900         68.33	     9.055
  40.920         67.50	     9.000
  40.940         69.17	     9.110
  40.960         75.00	     9.487
  40.980         63.33	     8.718
  41.000         59.17	     8.426
  41.020         69.17	     9.110
  41.040         65.00	     8.832
  41.060         65.83	     8.888
  41.080         74.17	     9.434
  41.100         70.83	     9.220
  41.120         62.50	     8.660
  41.140         67.50	     9.000
  41.160         70.83	     9.220
  41.180         68.33	     9.055
  41.200         63.33	     8.718
  41.220         86.67	    10.198
  41.240         54.17	     8.062
  41.260         55.83	     8.185
  41.280         64.17	     8.775
  41.300         60.00	     8.485
  41.320         69.17	     9.110
  41.340         57.50	     8.307
  41.360         78.33	     9.695
  41.380         73.33	     9.381
  41.400         68.33	     9.055
  41.420         97.50	    10.817
  41.440        113.33	    11.662
  41.460        130.00	    12.490
  41.480        136.67	    12.806
  41.500        139.17	    12.923
  41.520        147.50	    13.304
  41.540        171.67	    14.353
  41.560        161.67	    13.928
  41.580        134.17	    12.689
  41.600        112.50	    11.619
  41.620        113.33	    11.662
  41.640        112.50	    11.619
  41.660        126.67	    12.329
  41.680        101.67	    11.045
  41.700        100.00	    10.954
  41.720        104.17	    11.180
  41.740        110.83	    11.533
  41.760        114.17	    11.705
  41.780        132.50	    12.610
  41.800        131.67	    12.570
  41.820        138.33	    12.884
  41.840        118.33	    11.916
  41.860        122.50	    12.124
  41.880        102.50	    11.091
  41.900         97.50	    10.817
  41.920         99.17	    10.909
  41.940         95.00	    10.677
  41.960         93.33	    10.583
  41.980         89.17	    10.344
  42.000         64.17	     8.775
  42.020         70.83	     9.220
  42.040         80.00	     9.798
  42.060         75.83	     9.539
  42.080         89.17	    10.344
  42.100         90.83	    10.440
  42.120        105.83	    11.269
  42.140         89.17	    10.344
  42.160         90.00	    10.392
  42.180         94.17	    10.630
  42.200        106.67	    11.314
  42.220        120.00	    12.000
  42.240        150.83	    13.454
  42.260        186.67	    14.967
  42.280        215.00	    16.062
  42.300        222.50	    16.340
  42.320        161.67	    13.928
  42.340        142.50	    13.077
  42.360        135.00	    12.728
  42.380        137.50	    12.845
  42.400        121.67	    12.083
  42.420        113.33	    11.662
  42.440         96.67	    10.770
  42.460         73.33	     9.381
  42.480         82.50	     9.950
  42.500         80.00	     9.798
  42.520         77.50	     9.644
  42.540         75.00	     9.487
  42.560         84.17	    10.050
  42.580         70.83	     9.220
  42.600         55.83	     8.185
  42.620         82.50	     9.950
  42.640         60.00	     8.485
  42.660         67.50	     9.000
  42.680         63.33	     8.718
  42.700         68.33	     9.055
  42.720         60.00	     8.485
  42.740         71.67	     9.274
  42.760         61.67	     8.602
  42.780         80.00	     9.798
  42.800         58.33	     8.367
  42.820         56.67	     8.246
  42.840         50.00	     7.746
  42.860         67.50	     9.000
  42.880         45.83	     7.416
  42.900         53.33	     8.000
  42.920         48.33	     7.616
  42.940         46.67	     7.483
  42.960         49.17	     7.681
  42.980         50.83	     7.810
  43.000         57.50	     8.307
  43.020         36.67	     6.633
  43.040         43.33	     7.211
  43.060         50.83	     7.810
  43.080         53.33	     8.000
  43.100         45.83	     7.416
  43.120         54.17	     8.062
  43.140         45.00	     7.348
  43.160         41.67	     7.071
  43.180         43.33	     7.211
  43.200         39.17	     6.856
  43.220         42.50	     7.141
  43.240         32.50	     6.245
  43.260         49.17	     7.681
  43.280         48.33	     7.616
  43.300         45.00	     7.348
  43.320         40.83	     7.000
  43.340         45.83	     7.416
  43.360         46.67	     7.483
  43.380         63.33	     8.718
  43.400         44.17	     7.280
  43.420         49.17	     7.681
  43.440         48.33	     7.616
  43.460         61.67	     8.602
  43.480         47.50	     7.550
  43.500         54.17	     8.062
  43.520         52.50	     7.937
  43.540         67.50	     9.000
  43.560         61.67	     8.602
  43.580         57.50	     8.307
  43.600         65.00	     8.832
  43.620         47.50	     7.550
  43.640         53.33	     8.000
  43.660         59.17	     8.426
  43.680         65.00	     8.832
  43.700         62.50	     8.660
  43.720         40.83	     7.000
  43.740         53.33	     8.000
  43.760         44.17	     7.280
  43.780         53.33	     8.000
  43.800         50.83	     7.810
  43.820         44.17	     7.280
  43.840         55.83	     8.185
  43.860         48.33	     7.616
  43.880         49.17	     7.681
  43.900         49.17	     7.681
  43.920         65.83	     8.888
  43.940         58.33	     8.367
  43.960         58.33	     8.367
  43.980         63.33	     8.718
  44.000         56.67	     8.246
  44.020         68.33	     9.055
  44.040         67.50	     9.000
  44.060         63.33	     8.718
  44.080         65.83	     8.888
  44.100         73.33	     9.381
  44.120         66.67	     8.944
  44.140         65.83	     8.888
  44.160         89.17	    10.344
  44.180         70.83	     9.220
  44.200         75.00	     9.487
  44.220         62.50	     8.660
  44.240         69.17	     9.110
  44.260         80.83	     9.849
  44.280         66.67	     8.944
  44.300         57.50	     8.307
  44.320         72.50	     9.327
  44.340         60.00	     8.485
  44.360         70.83	     9.220
  44.380         64.17	     8.775
  44.400         51.67	     7.874
  44.420         74.17	     9.434
  44.440         57.50	     8.307
  44.460         69.17	     9.110
  44.480         61.67	     8.602
  44.500         60.83	     8.544
  44.520         68.33	     9.055
  44.540         65.83	     8.888
  44.560         65.00	     8.832
  44.580         69.17	     9.110
  44.600         80.83	     9.849
  44.620         84.17	    10.050
  44.640         70.00	     9.165
  44.660         84.17	    10.050
  44.680         75.83	     9.539
  44.700         80.00	     9.798
  44.720         86.67	    10.198
  44.740         96.67	    10.770
  44.760        118.33	    11.916
  44.780        101.67	    11.045
  44.800        103.33	    11.136
  44.820        110.83	    11.533
  44.840        102.50	    11.091
  44.860         81.67	     9.899
  44.880         93.33	    10.583
  44.900        106.67	    11.314
  44.920         96.67	    10.770
  44.940         88.33	    10.296
  44.960        113.33	    11.662
  44.980         94.17	    10.630
  45.000         88.33	    10.296
  45.020         96.67	    10.770
  45.040         80.00	     9.798
  45.060         95.00	    10.677
  45.080         98.33	    10.863
  45.100         68.33	     9.055
  45.120         80.83	     9.849
  45.140         79.17	     9.747
  45.160        110.83	    11.533
  45.180        117.50	    11.874
  45.200        112.50	    11.619
  45.220        114.17	    11.705
  45.240        112.50	    11.619
  45.260        129.17	    12.450
  45.280        142.50	    13.077
  45.300        150.00	    13.416
  45.320        182.50	    14.799
  45.340        209.17	    15.843
  45.360        200.00	    15.492
  45.380        213.33	    16.000
  45.400        251.67	    17.378
  45.420        238.33	    16.912
  45.440        238.33	    16.912
  45.460        221.67	    16.310
  45.480        205.00	    15.684
  45.500        198.33	    15.427
  45.520        170.83	    14.318
  45.540        146.67	    13.266
  45.560        143.33	    13.115
  45.580        139.17	    12.923
  45.600        136.67	    12.806
  45.620        146.67	    13.266
  45.640        130.00	    12.490
  45.660         92.50	    10.536
  45.680         73.33	     9.381
  45.700         62.50	     8.660
  45.720         64.17	     8.775
  45.740         90.83	    10.440
  45.760         75.83	     9.539
  45.780         55.83	     8.185
  45.800         58.33	     8.367
  45.820         58.33	     8.367
  45.840         64.17	     8.775
  45.860         67.50	     9.000
  45.880         59.17	     8.426
  45.900         65.00	     8.832
  45.920         64.17	     8.775
  45.940         49.17	     7.681
  45.960         70.83	     9.220
  45.980         58.33	     8.367
  46.000         68.33	     9.055
  46.020         57.50	     8.307
  46.040         55.00	     8.124
  46.060         56.67	     8.246
  46.080         55.00	     8.124
  46.100         45.83	     7.416
  46.120         45.83	     7.416
  46.140         46.67	     7.483
  46.160         45.83	     7.416
  46.180         35.83	     6.557
  46.200         43.33	     7.211
  46.220         41.67	     7.071
  46.240         39.17	     6.856
  46.260         37.50	     6.708
  46.280         36.67	     6.633
  46.300         41.67	     7.071
  46.320         38.33	     6.782
  46.340         41.67	     7.071
  46.360         35.00	     6.481
  46.380         48.33	     7.616
  46.400         35.00	     6.481
  46.420         47.50	     7.550
  46.440         40.83	     7.000
  46.460         50.83	     7.810
  46.480         45.83	     7.416
  46.500         40.83	     7.000
  46.520         50.83	     7.810
  46.540         39.17	     6.856
  46.560         36.67	     6.633
  46.580         35.00	     6.481
  46.600         33.33	     6.325
  46.620         41.67	     7.071
  46.640         42.50	     7.141
  46.660         36.67	     6.633
  46.680         33.33	     6.325
  46.700         41.67	     7.071
  46.720         36.67	     6.633
  46.740         27.50	     5.745
  46.760         28.33	     5.831
  46.780         43.33	     7.211
  46.800         35.00	     6.481
  46.820         45.00	     7.348
  46.840         36.67	     6.633
  46.860         38.33	     6.782
  46.880         52.50	     7.937
  46.900         47.50	     7.550
  46.920         53.33	     8.000
  46.940         55.83	     8.185
  46.960         68.33	     9.055
  46.980         70.83	     9.220
  47.000         66.67	     8.944
  47.020         74.17	     9.434
  47.040         80.00	     9.798
  47.060         79.17	     9.747
  47.080         50.00	     7.746
  47.100         45.00	     7.348
  47.120         45.00	     7.348
  47.140         50.83	     7.810
  47.160         54.17	     8.062
  47.180         56.67	     8.246
  47.200         42.50	     7.141
  47.220         53.33	     8.000
  47.240         50.83	     7.810
  47.260         45.00	     7.348
  47.280         35.00	     6.481
  47.300         39.17	     6.856
  47.320         38.33	     6.782
  47.340         40.00	     6.928
  47.360         38.33	     6.782
  47.380         43.33	     7.211
  47.400         45.00	     7.348
  47.420         45.83	     7.416
  47.440         52.50	     7.937
  47.460         45.83	     7.416
  47.480         50.83	     7.810
  47.500         53.33	     8.000
  47.520         64.17	     8.775
  47.540         61.67	     8.602
  47.560         83.33	    10.000
  47.580         81.67	     9.899
  47.600         65.83	     8.888
  47.620         88.33	    10.296
  47.640         71.67	     9.274
  47.660         78.33	     9.695
  47.680         87.50	    10.247
  47.700         66.67	     8.944
  47.720         73.33	     9.381
  47.740         63.33	     8.718
  47.760         73.33	     9.381
  47.780         73.33	     9.381
  47.800         60.83	     8.544
  47.820         65.83	     8.888
  47.840         70.00	     9.165
  47.860         57.50	     8.307
  47.880         56.67	     8.246
  47.900         58.33	     8.367
  47.920         54.17	     8.062
  47.940         67.50	     9.000
  47.960         58.33	     8.367
  47.980         79.17	     9.747
  48.000         79.17	     9.747
  48.020         64.17	     8.775
  48.040         58.33	     8.367
  48.060         50.83	     7.810
  48.080         78.33	     9.695
  48.100         55.83	     8.185
  48.120         64.17	     8.775
  48.140         65.83	     8.888
  48.160         61.67	     8.602
  48.180         62.50	     8.660
  48.200         52.50	     7.937
  48.220         87.50	    10.247
  48.240         78.33	     9.695
  48.260         76.67	     9.592
  48.280         63.33	     8.718
  48.300         71.67	     9.274
  48.320         65.83	     8.888
  48.340         71.67	     9.274
  48.360         78.33	     9.695
  48.380         82.50	     9.950
  48.400         56.67	     8.246
  48.420         67.50	     9.000
  48.440         82.50	     9.950
  48.460         75.00	     9.487
  48.480         74.17	     9.434
  48.500         79.17	     9.747
  48.520         75.83	     9.539
  48.540         65.00	     8.832
  48.560         80.00	     9.798
  48.580         65.00	     8.832
  48.600         79.17	     9.747
  48.620         58.33	     8.367
  48.640         74.17	     9.434
  48.660         64.17	     8.775
  48.680         60.00	     8.485
  48.700         61.67	     8.602
  48.720         49.17	     7.681
  48.740         53.33	     8.000
  48.760         42.50	     7.141
  48.780         50.00	     7.746
  48.800         50.83	     7.810
  48.820         54.17	     8.062
  48.840         50.83	     7.810
  48.860         42.50	     7.141
  48.880         58.33	     8.367
  48.900         50.00	     7.746
  48.920         40.00	     6.928
  48.940         59.17	     8.426
  48.960         67.50	     9.000
  48.980         56.67	     8.246
  49.000         60.83	     8.544
  49.020         70.00	     9.165
  49.040        103.33	    11.136
  49.060        131.67	    12.570
  49.080        125.83	    12.288
  49.100         77.50	     9.644
  49.120         53.33	     8.000
  49.140         58.33	     8.367
  49.160         73.33	     9.381
  49.180         82.50	     9.950
  49.200         95.83	    10.724
  49.220         65.00	     8.832
  49.240         60.83	     8.544
  49.260         53.33	     8.000
  49.280         55.83	     8.185
  49.300         47.50	     7.550
  49.320         50.00	     7.746
  49.340         53.33	     8.000
  49.360         59.17	     8.426
  49.380         59.17	     8.426
  49.400         65.00	     8.832
  49.420         68.33	     9.055
  49.440         71.67	     9.274
  49.460         74.17	     9.434
  49.480         71.67	     9.274
  49.500         76.67	     9.592
  49.520         72.50	     9.327
  49.540         83.33	    10.000
  49.560        100.83	    11.000
  49.580        105.00	    11.225
  49.600         95.00	    10.677
  49.620        110.00	    11.489
  49.640         89.17	    10.344
  49.660        127.50	    12.369
  49.680         90.00	    10.392
  49.700         96.67	    10.770
  49.720        111.67	    11.576
  49.740        147.50	    13.304
  49.760        172.50	    14.387
  49.780        117.50	    11.874
  49.800        120.00	    12.000
  49.820        108.33	    11.402
  49.840        103.33	    11.136
  49.860        105.83	    11.269
  49.880        149.17	    13.379
  49.900        180.00	    14.697
  49.920        220.83	    16.279
  49.940        249.17	    17.292
  49.960        289.17	    18.628
  49.980        293.33	    18.762
  50.000        224.17	    16.401
  50.020        162.50	    13.964
  50.040        135.83	    12.767
  50.060        160.00	    13.856
  50.080        193.33	    15.232
  50.100        182.50	    14.799
  50.120        163.33	    14.000
  50.140        140.83	    13.000
  50.160        105.83	    11.269
  50.180         85.00	    10.100
  50.200         93.33	    10.583
  50.220         80.83	     9.849
  50.240         64.17	     8.775
  50.260         66.67	     8.944
  50.280         60.00	     8.485
  50.300         52.50	     7.937
  50.320         61.67	     8.602
  50.340         74.17	     9.434
  50.360         88.33	    10.296
  50.380         70.00	     9.165
  50.400         76.67	     9.592
  50.420         75.00	     9.487
  50.440         84.17	    10.050
  50.460         89.17	    10.344
  50.480         86.67	    10.198
  50.500         87.50	    10.247
  50.520         78.33	     9.695
  50.540         73.33	     9.381
  50.560         61.67	     8.602
  50.580         76.67	     9.592
  50.600         57.50	     8.307
  50.620         55.83	     8.185
  50.640         53.33	     8.000
  50.660         40.83	     7.000
  50.680         54.17	     8.062
  50.700         42.50	     7.141
  50.720         40.00	     6.928
  50.740         54.17	     8.062
  50.760         47.50	     7.550
  50.780         50.83	     7.810
  50.800         42.50	     7.141
  50.820         42.50	     7.141
  50.840         52.50	     7.937
  50.860         53.33	     8.000
  50.880         50.83	     7.810
  50.900         68.33	     9.055
  50.920         70.83	     9.220
  50.940         82.50	     9.950
  50.960         98.33	    10.863
  50.980         74.17	     9.434
  51.000         82.50	     9.950
  51.020         91.67	    10.488
  51.040         94.17	    10.630
  51.060        115.83	    11.790
  51.080        112.50	    11.619
  51.100         87.50	    10.247
  51.120         90.83	    10.440
  51.140         84.17	    10.050
  51.160         86.67	    10.198
  51.180         71.67	     9.274
  51.200         71.67	     9.274
  51.220         65.00	     8.832
  51.240         58.33	     8.367
  51.260         48.33	     7.616
  51.280         44.17	     7.280
  51.300         54.17	     8.062
  51.320         57.50	     8.307
  51.340         66.67	     8.944
  51.360         47.50	     7.550
  51.380         40.00	     6.928
  51.400         50.00	     7.746
  51.420         36.67	     6.633
  51.440         44.17	     7.280
  51.460         50.83	     7.810
  51.480         43.33	     7.211
  51.500         42.50	     7.141
  51.520         43.33	     7.211
  51.540         35.00	     6.481
  51.560         33.33	     6.325
  51.580         43.33	     7.211
  51.600         42.50	     7.141
  51.620         28.33	     5.831
  51.640         26.67	     5.657
  51.660         42.50	     7.141
  51.680         29.17	     5.916
  51.700         38.33	     6.782
  51.720         40.00	     6.928
  51.740         38.33	     6.782
  51.760         46.67	     7.483
  51.780         40.00	     6.928
  51.800         49.17	     7.681
  51.820         42.50	     7.141
  51.840         63.33	     8.718
  51.860         53.33	     8.000
  51.880         45.00	     7.348
  51.900         48.33	     7.616
  51.920         54.17	     8.062
  51.940         61.67	     8.602
  51.960         65.83	     8.888
  51.980         72.50	     9.327
  52.000         84.17	    10.050
  52.020        100.00	    10.954
  52.040         94.17	    10.630
  52.060         55.83	     8.185
  52.080         55.83	     8.185
  52.100         68.33	     9.055
  52.120         66.67	     8.944
  52.140         63.33	     8.718
  52.160         59.17	     8.426
  52.180         67.50	     9.000
  52.200         72.50	     9.327
  52.220         61.67	     8.602
  52.240         60.83	     8.544
  52.260         71.67	     9.274
  52.280         73.33	     9.381
  52.300         76.67	     9.592
  52.320         80.00	     9.798
  52.340         84.17	    10.050
  52.360         66.67	     8.944
  52.380         75.83	     9.539
  52.400         76.67	     9.592
  52.420         84.17	    10.050
  52.440         55.83	     8.185
  52.460         63.33	     8.718
  52.480         60.00	     8.485
  52.500         56.67	     8.246
  52.520         47.50	     7.550
  52.540         42.50	     7.141
  52.560         67.50	     9.000
  52.580         42.50	     7.141
  52.600         61.67	     8.602
  52.620         51.67	     7.874
  52.640         70.83	     9.220
  52.660         53.33	     8.000
  52.680         47.50	     7.550
  52.700         48.33	     7.616
  52.720         60.83	     8.544
  52.740         54.17	     8.062
  52.760         53.33	     8.000
  52.780         47.50	     7.550
  52.800         51.67	     7.874
  52.820         52.50	     7.937
  52.840         52.50	     7.937
  52.860         64.17	     8.775
  52.880         55.83	     8.185
  52.900         60.00	     8.485
  52.920         47.50	     7.550
  52.940         60.00	     8.485
  52.960         62.50	     8.660
  52.980         50.83	     7.810
  53.000         66.67	     8.944
  53.020         65.83	     8.888
  53.040         67.50	     9.000
  53.060         56.67	     8.246
  53.080         61.67	     8.602
  53.100         73.33	     9.381
  53.120         66.67	     8.944
  53.140         65.83	     8.888
  53.160         60.83	     8.544
  53.180         80.00	     9.798
  53.200         75.83	     9.539
  53.220         50.00	     7.746
  53.240         70.83	     9.220
  53.260         77.50	     9.644
  53.280         56.67	     8.246
  53.300         54.17	     8.062
  53.320         59.17	     8.426
  53.340         61.67	     8.602
  53.360         49.17	     7.681
  53.380         45.83	     7.416
  53.400         62.50	     8.660
  53.420         50.83	     7.810
  53.440         52.50	     7.937
  53.460         51.67	     7.874
  53.480         50.00	     7.746
  53.500         38.33	     6.782
  53.520         55.00	     8.124
  53.540         54.17	     8.062
  53.560         48.33	     7.616
  53.580         38.33	     6.782
  53.600         57.50	     8.307
  53.620         47.50	     7.550
  53.640         50.83	     7.810
  53.660         57.50	     8.307
  53.680         60.00	     8.485
  53.700         44.17	     7.280
  53.720         40.83	     7.000
  53.740         52.50	     7.937
  53.760         45.83	     7.416
  53.780         40.00	     6.928
  53.800         36.67	     6.633
  53.820         50.00	     7.746
  53.840         40.83	     7.000
  53.860         45.83	     7.416
  53.880         53.33	     8.000
  53.900         49.17	     7.681
  53.920         50.83	     7.810
  53.940         47.50	     7.550
  53.960         43.33	     7.211
  53.980         43.33	     7.211
  54.000         42.50	     7.141
  54.020         51.67	     7.874
  54.040         46.67	     7.483
  54.060         46.67	     7.483
  54.080         45.83	     7.416
  54.100         44.17	     7.280
  54.120         43.33	     7.211
  54.140         49.17	     7.681
  54.160         63.33	     8.718
  54.180         55.00	     8.124
  54.200         55.00	     8.124
  54.220         45.00	     7.348
  54.240         67.50	     9.000
  54.260         60.00	     8.485
  54.280         60.00	     8.485
  54.300         52.50	     7.937
  54.320         51.67	     7.874
  54.340         47.50	     7.550
  54.360         56.67	     8.246
  54.380         47.50	     7.550
  54.400         53.33	     8.000
  54.420         56.67	     8.246
  54.440         65.00	     8.832
  54.460         62.50	     8.660
  54.480         57.50	     8.307
  54.500         50.83	     7.810
  54.520         53.33	     8.000
  54.540         63.33	     8.718
  54.560         49.17	     7.681
  54.580         60.00	     8.485
  54.600         56.67	     8.246
  54.620         65.83	     8.888
  54.640         81.67	     9.899
  54.660         85.00	    10.100
  54.680         98.33	    10.863
  54.700        133.33	    12.649
  54.720        122.50	    12.124
  54.740        107.50	    11.358
  54.760         76.67	     9.592
  54.780         62.50	     8.660
  54.800         70.00	     9.165
  54.820         75.00	     9.487
  54.840         99.17	    10.909
  54.860         78.33	     9.695
  54.880         73.33	     9.381
  54.900         82.50	     9.950
  54.920         59.17	     8.426
  54.940         75.00	     9.487
  54.960         55.83	     8.185
  54.980         50.00	     7.746
  55.000         49.17	     7.681
  55.020         54.17	     8.062
  55.040         69.17	     9.110
  55.060         60.83	     8.544
  55.080         63.33	     8.718
  55.100         71.67	     9.274
  55.120         80.83	     9.849
  55.140         75.00	     9.487
  55.160         85.00	    10.100
  55.180         78.33	     9.695
  55.200         63.33	     8.718
  55.220         57.50	     8.307
  55.240         80.00	     9.798
  55.260         60.00	     8.485
  55.280         45.83	     7.416
  55.300         75.00	     9.487
  55.320         71.67	     9.274
  55.340         59.17	     8.426
  55.360         60.00	     8.485
  55.380         70.00	     9.165
  55.400         53.33	     8.000
  55.420         54.17	     8.062
  55.440         79.17	     9.747
  55.460         57.50	     8.307
  55.480         62.50	     8.660
  55.500         65.83	     8.888
  55.520         68.33	     9.055
  55.540         80.00	     9.798
  55.560         75.83	     9.539
  55.580         73.33	     9.381
  55.600         60.83	     8.544
  55.620         89.17	    10.344
  55.640         90.83	    10.440
  55.660         95.00	    10.677
  55.680         77.50	     9.644
  55.700         67.50	     9.000
  55.720         78.33	     9.695
  55.740         68.33	     9.055
  55.760         74.17	     9.434
  55.780         61.67	     8.602
  55.800         73.33	     9.381
  55.820         68.33	     9.055
  55.840         68.33	     9.055
  55.860         75.83	     9.539
  55.880         81.67	     9.899
  55.900         65.00	     8.832
  55.920         67.50	     9.000
  55.940         62.50	     8.660
  55.960         62.50	     8.660
  55.980         50.83	     7.810
  56.000         60.83	     8.544
  56.020         51.67	     7.874
  56.040         59.17	     8.426
  56.060         55.00	     8.124
  56.080         60.00	     8.485
  56.100         49.17	     7.681
  56.120         45.00	     7.348
  56.140         42.50	     7.141
  56.160         58.33	     8.367
  56.180         50.00	     7.746
  56.200         50.83	     7.810
  56.220         46.67	     7.483
  56.240         50.00	     7.746
  56.260         50.00	     7.746
  56.280         42.50	     7.141
  56.300         40.83	     7.000
  56.320         52.50	     7.937
  56.340         52.50	     7.937
  56.360         58.33	     8.367
  56.380         49.17	     7.681
  56.400         61.67	     8.602
  56.420         71.67	     9.274
  56.440         90.00	    10.392
  56.460        130.00	    12.490
  56.480        125.83	    12.288
  56.500         99.17	    10.909
  56.520         78.33	     9.695
  56.540         73.33	     9.381
  56.560         85.83	    10.149
  56.580         67.50	     9.000
  56.600         85.00	    10.100
  56.620        135.00	    12.728
  56.640         93.33	    10.583
  56.660         75.00	     9.487
  56.680         72.50	     9.327
  56.700         52.50	     7.937
  56.720         73.33	     9.381
  56.740         58.33	     8.367
  56.760         62.50	     8.660
  56.780         70.83	     9.220
  56.800         61.67	     8.602
  56.820         56.67	     8.246
  56.840         56.67	     8.246
  56.860         45.00	     7.348
  56.880         55.83	     8.185
  56.900         57.50	     8.307
  56.920         54.17	     8.062
  56.940         56.67	     8.246
  56.960         49.17	     7.681
  56.980         65.00	     8.832
  57.000         58.33	     8.367
  57.020         48.33	     7.616
  57.040         48.33	     7.616
  57.060         40.00	     6.928
  57.080         45.00	     7.348
  57.100         38.33	     6.782
  57.120         50.00	     7.746
  57.140         40.00	     6.928
  57.160         61.67	     8.602
  57.180         30.83	     6.083
  57.200         45.83	     7.416
  57.220         42.50	     7.141
  57.240         43.33	     7.211
  57.260         55.00	     8.124
  57.280         59.17	     8.426
  57.300         45.00	     7.348
  57.320         47.50	     7.550
  57.340         50.83	     7.810
  57.360         47.50	     7.550
  57.380         55.83	     8.185
  57.400         50.00	     7.746
  57.420         56.67	     8.246
  57.440         40.83	     7.000
  57.460         40.83	     7.000
  57.480         55.83	     8.185
  57.500         52.50	     7.937
  57.520         58.33	     8.367
  57.540         53.33	     8.000
  57.560         49.17	     7.681
  57.580         60.83	     8.544
  57.600         58.33	     8.367
  57.620         58.33	     8.367
  57.640         72.50	     9.327
  57.660         70.00	     9.165
  57.680         66.67	     8.944
  57.700         47.50	     7.550
  57.720         51.67	     7.874
  57.740         45.83	     7.416
  57.760         54.17	     8.062
  57.780         49.17	     7.681
  57.800         45.00	     7.348
  57.820         53.33	     8.000
  57.840         45.83	     7.416
  57.860         62.50	     8.660
  57.880         54.17	     8.062
  57.900         70.00	     9.165
  57.920         67.50	     9.000
  57.940         65.83	     8.888
  57.960         55.83	     8.185
  57.980         65.00	     8.832
  58.000         54.17	     8.062
  58.020         55.83	     8.185
  58.040         57.50	     8.307
  58.060         56.67	     8.246
  58.080         61.67	     8.602
  58.100         37.50	     6.708
  58.120         51.67	     7.874
  58.140         61.67	     8.602
  58.160         50.00	     7.746
  58.180         46.67	     7.483
  58.200         49.17	     7.681
  58.220         50.83	     7.810
  58.240         49.17	     7.681
  58.260         41.67	     7.071
  58.280         59.17	     8.426
  58.300         60.83	     8.544
  58.320         56.67	     8.246
  58.340         59.17	     8.426
  58.360         79.17	     9.747
  58.380         68.33	     9.055
  58.400         62.50	     8.660
  58.420         54.17	     8.062
  58.440         69.17	     9.110
  58.460         80.83	     9.849
  58.480         94.17	    10.630
  58.500         85.83	    10.149
  58.520        100.00	    10.954
  58.540         94.17	    10.630
  58.560         96.67	    10.770
  58.580         88.33	    10.296
  58.600         72.50	     9.327
  58.620         77.50	     9.644
  58.640         71.67	     9.274
  58.660         77.50	     9.644
  58.680         72.50	     9.327
  58.700         88.33	    10.296
  58.720         72.50	     9.327
  58.740         71.67	     9.274
  58.760         75.00	     9.487
  58.780         87.50	    10.247
  58.800         78.33	     9.695
  58.820         75.00	     9.487
  58.840         72.50	     9.327
  58.860         70.83	     9.220
  58.880         76.67	     9.592
  58.900         61.67	     8.602
  58.920         80.00	     9.798
  58.940         90.83	    10.440
  58.960         99.17	    10.909
  58.980        104.17	    11.180
  59.000         99.17	    10.909
  59.020        100.00	    10.954
  59.040         89.17	    10.344
  59.060        113.33	    11.662
  59.080         86.67	    10.198
  59.100         72.50	     9.327
  59.120         90.83	    10.440
  59.140         70.00	     9.165
  59.160         82.50	     9.950
  59.180         70.00	     9.165
  59.200         79.17	     9.747
  59.220         61.67	     8.602
  59.240         73.33	     9.381
  59.260         62.50	     8.660
  59.280         49.17	     7.681
  59.300         54.17	     8.062
  59.320         56.67	     8.246
  59.340         46.67	     7.483
  59.360         60.83	     8.544
  59.380         66.67	     8.944
  59.400         53.33	     8.000
  59.420         40.83	     7.000
  59.440         62.50	     8.660
  59.460         70.00	     9.165
  59.480         63.33	     8.718
  59.500         59.17	     8.426
  59.520         79.17	     9.747
  59.540         72.50	     9.327
  59.560         60.00	     8.485
  59.580         74.17	     9.434
  59.600         70.00	     9.165
  59.620         81.67	     9.899
  59.640         80.00	     9.798
  59.660         97.50	    10.817
  59.680        106.67	    11.314
  59.700         94.17	    10.630
  59.720        115.83	    11.790
  59.740        160.83	    13.892
  59.760        233.33	    16.733
  59.780        360.00	    20.785
  59.800        425.00	    22.583
  59.820        386.67	    21.541
  59.840        305.00	    19.131
  59.860        211.67	    15.937
  59.880        129.17	    12.450
  59.900        148.33	    13.342
  59.920        180.83	    14.731
  59.940        219.17	    16.217
  59.960        241.67	    17.029
  59.980        262.50	    17.748
  60.000        164.17	    14.036
  60.020        139.17	    12.923
  60.040        115.83	    11.790
  60.060         71.67	     9.274
  60.080         92.50	    10.536
  60.100         93.33	    10.583
  60.120         77.50	     9.644
  60.140         80.83	     9.849
  60.160         75.83	     9.539
  60.180         72.50	     9.327
  60.200         91.67	    10.488
  60.220         87.50	    10.247
  60.240        101.67	    11.045
  60.260         78.33	     9.695
  60.280         99.17	    10.909
  60.300         90.83	    10.440
  60.320         80.00	     9.798
  60.340         87.50	    10.247
  60.360         70.00	     9.165
  60.380         90.00	    10.392
  60.400         70.00	     9.165
  60.420         80.00	     9.798
  60.440         76.67	     9.592
  60.460         91.67	    10.488
  60.480         69.17	     9.110
  60.500         80.83	     9.849
  60.520         77.50	     9.644
  60.540         80.83	     9.849
  60.560         95.83	    10.724
  60.580         84.17	    10.050
  60.600         84.17	    10.050
  60.620         95.00	    10.677
  60.640         93.33	    10.583
  60.660         80.00	     9.798
  60.680        115.00	    11.747
  60.700         76.67	     9.592
  60.720         86.67	    10.198
  60.740        108.33	    11.402
  60.760         92.50	    10.536
  60.780         94.17	    10.630
  60.800         82.50	     9.950
  60.820         91.67	    10.488
  60.840         84.17	    10.050
  60.860         77.50	     9.644
  60.880         92.50	    10.536
  60.900         75.83	     9.539
  60.920         66.67	     8.944
  60.940         80.83	     9.849
  60.960         75.00	     9.487
  60.980         78.33	     9.695
  61.000         65.00	     8.832
  61.020         74.17	     9.434
  61.040         70.83	     9.220
  61.060         90.00	    10.392
  61.080         71.67	     9.274
  61.100         65.83	     8.888
  61.120         70.83	     9.220
  61.140         79.17	     9.747
  61.160         81.67	     9.899
  61.180         91.67	    10.488
  61.200         85.00	    10.100
  61.220         85.83	    10.149
  61.240         95.00	    10.677
  61.260        127.50	    12.369
  61.280         96.67	    10.770
  61.300        120.00	    12.000
  61.320        103.33	    11.136
  61.340        111.67	    11.576
  61.360         99.17	    10.909
  61.380        104.17	    11.180
  61.400         94.17	    10.630
  61.420        120.00	    12.000
  61.440        105.00	    11.225
  61.460        108.33	    11.402
  61.480        113.33	    11.662
  61.500         93.33	    10.583
  61.520         69.17	     9.110
  61.540         92.50	    10.536
  61.560         82.50	     9.950
  61.580         98.33	    10.863
  61.600         66.67	     8.944
  61.620         80.00	     9.798
  61.640         76.67	     9.592
  61.660         75.83	     9.539
  61.680         73.33	     9.381
  61.700         70.00	     9.165
  61.720         66.67	     8.944
  61.740         62.50	     8.660
  61.760         69.17	     9.110
  61.780         75.83	     9.539
  61.800         77.50	     9.644
  61.820         70.00	     9.165
  61.840         75.83	     9.539
  61.860         55.00	     8.124
  61.880         65.00	     8.832
  61.900         73.33	     9.381
  61.920         73.33	     9.381
  61.940         65.00	     8.832
  61.960         65.83	     8.888
  61.980         65.00	     8.832
  62.000         59.17	     8.426
  62.020         60.00	     8.485
  62.040         55.00	     8.124
  62.060         53.33	     8.000
  62.080         44.17	     7.280
  62.100         42.50	     7.141
  62.120         51.67	     7.874
  62.140         50.00	     7.746
  62.160         51.67	     7.874
  62.180         51.67	     7.874
  62.200         55.83	     8.185
  62.220         49.17	     7.681
  62.240         52.50	     7.937
  62.260         58.33	     8.367
  62.280         48.33	     7.616
  62.300         55.83	     8.185
  62.320         50.00	     7.746
  62.340         50.83	     7.810
  62.360         55.83	     8.185
  62.380         63.33	     8.718
  62.400         57.50	     8.307
  62.420         80.83	     9.849
  62.440         58.33	     8.367
  62.460         52.50	     7.937
  62.480         55.83	     8.185
  62.500         64.17	     8.775
  62.520         57.50	     8.307
  62.540         64.17	     8.775
  62.560         66.67	     8.944
  62.580         67.50	     9.000
  62.600         61.67	     8.602
  62.620         64.17	     8.775
  62.640         57.50	     8.307
  62.660         63.33	     8.718
  62.680         60.00	     8.485
  62.700         70.00	     9.165
  62.720         65.83	     8.888
  62.740         42.50	     7.141
  62.760         54.17	     8.062
  62.780         50.00	     7.746
  62.800         47.50	     7.550
  62.820         50.83	     7.810
  62.840         44.17	     7.280
  62.860         42.50	     7.141
  62.880         60.83	     8.544
  62.900         45.83	     7.416
  62.920         46.67	     7.483
  62.940         37.50	     6.708
  62.960         45.83	     7.416
  62.980         46.67	     7.483
  63.000         51.67	     7.874
  63.020         41.67	     7.071
  63.040         48.33	     7.616
  63.060         57.50	     8.307
  63.080         68.33	     9.055
  63.100         60.83	     8.544
  63.120         54.17	     8.062
  63.140         51.67	     7.874
  63.160         54.17	     8.062
  63.180         47.50	     7.550
  63.200         58.33	     8.367
  63.220         48.33	     7.616
  63.240         67.50	     9.000
  63.260         60.83	     8.544
  63.280         72.50	     9.327
  63.300         61.67	     8.602
  63.320         74.17	     9.434
  63.340         68.33	     9.055
  63.360         68.33	     9.055
  63.380         55.00	     8.124
  63.400         71.67	     9.274
  63.420         60.83	     8.544
  63.440         70.83	     9.220
  63.460         75.00	     9.487
  63.480         74.17	     9.434
  63.500         64.17	     8.775
  63.520         70.83	     9.220
  63.540         62.50	     8.660
  63.560         54.17	     8.062
  63.580         55.83	     8.185
  63.600         70.00	     9.165
  63.620         78.33	     9.695
  63.640         74.17	     9.434
  63.660         67.50	     9.000
  63.680         85.83	    10.149
  63.700         55.83	     8.185
  63.720         56.67	     8.246
  63.740         64.17	     8.775
  63.760         54.17	     8.062
  63.780         60.83	     8.544
  63.800         67.50	     9.000
  63.820         77.50	     9.644
  63.840         85.00	    10.100
  63.860         66.67	     8.944
  63.880         72.50	     9.327
  63.900         70.83	     9.220
  63.920         67.50	     9.000
  63.940         70.83	     9.220
  63.960         74.17	     9.434
  63.980         70.00	     9.165
  64.000         77.50	     9.644
  64.020         76.67	     9.592
  64.040         84.17	    10.050
  64.060         81.67	     9.899
  64.080         78.33	     9.695
  64.100         72.50	     9.327
  64.120         64.17	     8.775
  64.140         60.00	     8.485
  64.160         59.17	     8.426
  64.180         55.83	     8.185
  64.200         55.83	     8.185
  64.220         52.50	     7.937
  64.240         53.33	     8.000
  64.260         62.50	     8.660
  64.280         44.17	     7.280
  64.300         50.00	     7.746
  64.320         46.67	     7.483
  64.340         54.17	     8.062
  64.360         49.17	     7.681
  64.380         39.17	     6.856
  64.400         45.83	     7.416
  64.420         68.33	     9.055
  64.440         51.67	     7.874
  64.460         54.17	     8.062
  64.480         55.00	     8.124
  64.500         53.33	     8.000
  64.520         56.67	     8.246
  64.540         48.33	     7.616
  64.560         56.67	     8.246
  64.580         61.67	     8.602
  64.600         61.67	     8.602
  64.620         51.67	     7.874
  64.640         66.67	     8.944
  64.660         67.50	     9.000
  64.680         53.33	     8.000
  64.700         58.33	     8.367
  64.720         49.17	     7.681
  64.740         60.83	     8.544
  64.760         54.17	     8.062
  64.780         55.00	     8.124
  64.800         47.50	     7.550
  64.820         63.33	     8.718
  64.840         61.67	     8.602
  64.860         70.83	     9.220
  64.880         50.00	     7.746
  64.900         48.33	     7.616
  64.920         58.33	     8.367
  64.940         51.67	     7.874
  64.960         55.00	     8.124
  64.980         46.67	     7.483
  65.000         48.33	     7.616
