
Filename:
	C:\Program Files\Thermo Electron\WinXRD\Datafiles\F_HERMAN\FIEN\G25_RT.raw

File Created:
	January 30, 2020 - 03:28 PM

Specimen Id:
	G 25 RT

Specimen Name:
	

Specimen Description:
	

Comment:
Scan Type: 2Theta Scan
Start Angle: 3 deg.
Stop Angle: 65 deg.
Num Points: 3101
Step Size: 0.02 deg.
Scan Rate: 1.000000
Scan Mode: Continuous
Wavelength: 1.540562
\Kalpha1: 1.540562	\Kalpha2: 1.544390	\Kbeta: 1.392218

Optics:
		Detector:
			 Type: Fixed Slits
		Tube: 
			 Type: Fixed Slits


Datas:
 Pos [deg]       Rate [CPS]      ESD [-]

Range 1 ---> Iteration 1
   3.000        434.17	    22.825
   3.020        437.50	    22.913
   3.040        418.33	    22.405
   3.060        418.33	    22.405
   3.080        409.17	    22.159
   3.100        445.83	    23.130
   3.120        420.00	    22.450
   3.140        452.50	    23.302
   3.160        415.83	    22.338
   3.180        362.50	    20.857
   3.200        405.83	    22.068
   3.220        406.67	    22.091
   3.240        408.33	    22.136
   3.260        425.83	    22.605
   3.280        380.00	    21.354
   3.300        410.00	    22.181
   3.320        408.33	    22.136
   3.340        415.00	    22.316
   3.360        400.00	    21.909
   3.380        386.67	    21.541
   3.400        381.67	    21.401
   3.420        379.17	    21.331
   3.440        388.33	    21.587
   3.460        366.67	    20.976
   3.480        376.67	    21.260
   3.500        390.00	    21.633
   3.520        335.83	    20.075
   3.540        370.00	    21.071
   3.560        353.33	    20.591
   3.580        411.67	    22.226
   3.600        375.00	    21.213
   3.620        355.00	    20.640
   3.640        376.67	    21.260
   3.660        359.17	    20.761
   3.680        335.00	    20.050
   3.700        346.67	    20.396
   3.720        330.83	    19.925
   3.740        375.83	    21.237
   3.760        365.00	    20.928
   3.780        341.67	    20.248
   3.800        329.17	    19.875
   3.820        354.17	    20.616
   3.840        319.17	    19.570
   3.860        304.17	    19.105
   3.880        308.33	    19.235
   3.900        325.83	    19.774
   3.920        342.50	    20.273
   3.940        339.17	    20.174
   3.960        305.00	    19.131
   3.980        330.00	    19.900
   4.000        327.50	    19.824
   4.020        303.33	    19.079
   4.040        292.50	    18.735
   4.060        321.67	    19.647
   4.080        342.50	    20.273
   4.100        299.17	    18.947
   4.120        315.00	    19.442
   4.140        305.00	    19.131
   4.160        311.67	    19.339
   4.180        311.67	    19.339
   4.200        269.17	    17.972
   4.220        315.00	    19.442
   4.240        305.83	    19.157
   4.260        274.17	    18.138
   4.280        285.00	    18.493
   4.300        318.33	    19.545
   4.320        285.00	    18.493
   4.340        280.00	    18.330
   4.360        315.00	    19.442
   4.380        266.67	    17.889
   4.400        275.00	    18.166
   4.420        241.67	    17.029
   4.440        263.33	    17.776
   4.460        293.33	    18.762
   4.480        256.67	    17.550
   4.500        263.33	    17.776
   4.520        251.67	    17.378
   4.540        260.83	    17.692
   4.560        275.00	    18.166
   4.580        255.83	    17.521
   4.600        282.50	    18.412
   4.620        259.17	    17.635
   4.640        274.17	    18.138
   4.660        271.67	    18.055
   4.680        290.83	    18.682
   4.700        276.67	    18.221
   4.720        250.83	    17.349
   4.740        250.00	    17.321
   4.760        236.67	    16.852
   4.780        228.33	    16.553
   4.800        260.00	    17.664
   4.820        250.83	    17.349
   4.840        256.67	    17.550
   4.860        279.17	    18.303
   4.880        260.00	    17.664
   4.900        258.33	    17.607
   4.920        242.50	    17.059
   4.940        255.00	    17.493
   4.960        235.00	    16.793
   4.980        265.00	    17.833
   5.000        245.00	    17.146
   5.020        250.83	    17.349
   5.040        258.33	    17.607
   5.060        240.83	    17.000
   5.080        280.00	    18.330
   5.100        239.17	    16.941
   5.120        240.83	    17.000
   5.140        233.33	    16.733
   5.160        265.83	    17.861
   5.180        248.33	    17.263
   5.200        244.17	    17.117
   5.220        189.17	    15.067
   5.240        215.00	    16.062
   5.260        229.17	    16.583
   5.280        224.17	    16.401
   5.300        250.00	    17.321
   5.320        248.33	    17.263
   5.340        248.33	    17.263
   5.360        225.00	    16.432
   5.380        233.33	    16.733
   5.400        229.17	    16.583
   5.420        235.00	    16.793
   5.440        230.00	    16.613
   5.460        230.83	    16.643
   5.480        235.00	    16.793
   5.500        221.67	    16.310
   5.520        220.83	    16.279
   5.540        228.33	    16.553
   5.560        250.00	    17.321
   5.580        230.83	    16.643
   5.600        214.17	    16.031
   5.620        207.50	    15.780
   5.640        228.33	    16.553
   5.660        210.00	    15.875
   5.680        216.67	    16.125
   5.700        204.17	    15.652
   5.720        243.33	    17.088
   5.740        216.67	    16.125
   5.760        211.67	    15.937
   5.780        249.17	    17.292
   5.800        237.50	    16.882
   5.820        254.17	    17.464
   5.840        249.17	    17.292
   5.860        273.33	    18.111
   5.880        287.50	    18.574
   5.900        327.50	    19.824
   5.920        314.17	    19.416
   5.940        311.67	    19.339
   5.960        288.33	    18.601
   5.980        247.50	    17.234
   6.000        267.50	    17.916
   6.020        279.17	    18.303
   6.040        212.50	    15.969
   6.060        274.17	    18.138
   6.080        244.17	    17.117
   6.100        268.33	    17.944
   6.120        265.83	    17.861
   6.140        274.17	    18.138
   6.160        318.33	    19.545
   6.180        288.33	    18.601
   6.200        279.17	    18.303
   6.220        230.83	    16.643
   6.240        217.50	    16.155
   6.260        208.33	    15.811
   6.280        205.83	    15.716
   6.300        199.17	    15.460
   6.320        206.67	    15.748
   6.340        200.83	    15.524
   6.360        205.83	    15.716
   6.380        203.33	    15.620
   6.400        209.17	    15.843
   6.420        201.67	    15.556
   6.440        231.67	    16.673
   6.460        175.83	    14.526
   6.480        197.50	    15.395
   6.500        196.67	    15.362
   6.520        185.00	    14.900
   6.540        206.67	    15.748
   6.560        197.50	    15.395
   6.580        190.00	    15.100
   6.600        184.17	    14.866
   6.620        178.33	    14.629
   6.640        209.17	    15.843
   6.660        194.17	    15.264
   6.680        197.50	    15.395
   6.700        200.00	    15.492
   6.720        187.50	    15.000
   6.740        163.33	    14.000
   6.760        190.00	    15.100
   6.780        172.50	    14.387
   6.800        180.00	    14.697
   6.820        181.67	    14.765
   6.840        179.17	    14.663
   6.860        154.17	    13.601
   6.880        193.33	    15.232
   6.900        152.50	    13.528
   6.920        185.83	    14.933
   6.940        165.83	    14.107
   6.960        150.83	    13.454
   6.980        192.50	    15.199
   7.000        172.50	    14.387
   7.020        187.50	    15.000
   7.040        170.83	    14.318
   7.060        167.50	    14.177
   7.080        179.17	    14.663
   7.100        160.83	    13.892
   7.120        176.67	    14.560
   7.140        170.83	    14.318
   7.160        161.67	    13.928
   7.180        169.17	    14.248
   7.200        173.33	    14.422
   7.220        171.67	    14.353
   7.240        177.50	    14.595
   7.260        136.67	    12.806
   7.280        141.67	    13.038
   7.300        167.50	    14.177
   7.320        138.33	    12.884
   7.340        161.67	    13.928
   7.360        169.17	    14.248
   7.380        160.00	    13.856
   7.400        170.00	    14.283
   7.420        164.17	    14.036
   7.440        162.50	    13.964
   7.460        155.83	    13.675
   7.480        166.67	    14.142
   7.500        165.00	    14.071
   7.520        147.50	    13.304
   7.540        141.67	    13.038
   7.560        132.50	    12.610
   7.580        158.33	    13.784
   7.600        155.00	    13.638
   7.620        144.17	    13.153
   7.640        168.33	    14.213
   7.660        151.67	    13.491
   7.680        168.33	    14.213
   7.700        155.00	    13.638
   7.720        135.00	    12.728
   7.740        126.67	    12.329
   7.760        139.17	    12.923
   7.780        153.33	    13.565
   7.800        145.83	    13.229
   7.820        161.67	    13.928
   7.840        153.33	    13.565
   7.860        165.00	    14.071
   7.880        180.00	    14.697
   7.900        147.50	    13.304
   7.920        159.17	    13.820
   7.940        138.33	    12.884
   7.960        137.50	    12.845
   7.980        152.50	    13.528
   8.000        155.00	    13.638
   8.020        142.50	    13.077
   8.040        139.17	    12.923
   8.060        128.33	    12.410
   8.080        150.83	    13.454
   8.100        156.67	    13.711
   8.120        152.50	    13.528
   8.140        151.67	    13.491
   8.160        149.17	    13.379
   8.180        154.17	    13.601
   8.200        153.33	    13.565
   8.220        162.50	    13.964
   8.240        135.83	    12.767
   8.260        149.17	    13.379
   8.280        153.33	    13.565
   8.300        155.83	    13.675
   8.320        150.83	    13.454
   8.340        152.50	    13.528
   8.360        158.33	    13.784
   8.380        150.83	    13.454
   8.400        134.17	    12.689
   8.420        153.33	    13.565
   8.440        154.17	    13.601
   8.460        145.83	    13.229
   8.480        161.67	    13.928
   8.500        148.33	    13.342
   8.520        172.50	    14.387
   8.540        158.33	    13.784
   8.560        199.17	    15.460
   8.580        195.83	    15.330
   8.600        198.33	    15.427
   8.620        215.83	    16.093
   8.640        195.00	    15.297
   8.660        225.83	    16.462
   8.680        270.00	    18.000
   8.700        262.50	    17.748
   8.720        249.17	    17.292
   8.740        349.17	    20.469
   8.760        502.50	    24.556
   8.780        636.67	    27.641
   8.800        830.83	    31.575
   8.820        752.50	    30.050
   8.840        497.50	    24.434
   8.860        320.83	    19.621
   8.880        211.67	    15.937
   8.900        190.00	    15.100
   8.920        154.17	    13.601
   8.940        164.17	    14.036
   8.960        165.00	    14.071
   8.980        135.83	    12.767
   9.000        142.50	    13.077
   9.020        123.33	    12.166
   9.040        152.50	    13.528
   9.060        139.17	    12.923
   9.080        186.67	    14.967
   9.100        142.50	    13.077
   9.120        165.83	    14.107
   9.140        165.83	    14.107
   9.160        128.33	    12.410
   9.180        134.17	    12.689
   9.200        131.67	    12.570
   9.220        124.17	    12.207
   9.240        113.33	    11.662
   9.260        126.67	    12.329
   9.280        138.33	    12.884
   9.300        115.00	    11.747
   9.320        114.17	    11.705
   9.340        153.33	    13.565
   9.360        141.67	    13.038
   9.380        179.17	    14.663
   9.400        156.67	    13.711
   9.420        126.67	    12.329
   9.440        125.83	    12.288
   9.460        105.00	    11.225
   9.480        136.67	    12.806
   9.500        137.50	    12.845
   9.520        111.67	    11.576
   9.540        138.33	    12.884
   9.560         94.17	    10.630
   9.580        116.67	    11.832
   9.600        116.67	    11.832
   9.620        114.17	    11.705
   9.640        120.00	    12.000
   9.660        114.17	    11.705
   9.680        121.67	    12.083
   9.700        132.50	    12.610
   9.720        121.67	    12.083
   9.740        108.33	    11.402
   9.760         94.17	    10.630
   9.780        109.17	    11.446
   9.800        120.83	    12.042
   9.820        105.83	    11.269
   9.840         92.50	    10.536
   9.860        125.83	    12.288
   9.880        123.33	    12.166
   9.900        115.00	    11.747
   9.920        113.33	    11.662
   9.940        100.83	    11.000
   9.960        113.33	    11.662
   9.980        107.50	    11.358
  10.000        117.50	    11.874
  10.020        121.67	    12.083
  10.040        110.83	    11.533
  10.060        100.00	    10.954
  10.080        112.50	    11.619
  10.100         84.17	    10.050
  10.120        114.17	    11.705
  10.140        100.83	    11.000
  10.160        103.33	    11.136
  10.180        112.50	    11.619
  10.200        110.83	    11.533
  10.220         99.17	    10.909
  10.240        105.83	    11.269
  10.260        111.67	    11.576
  10.280        110.83	    11.533
  10.300        105.00	    11.225
  10.320        113.33	    11.662
  10.340        117.50	    11.874
  10.360        147.50	    13.304
  10.380        151.67	    13.491
  10.400        179.17	    14.663
  10.420        257.50	    17.578
  10.440        237.50	    16.882
  10.460        239.17	    16.941
  10.480        196.67	    15.362
  10.500        167.50	    14.177
  10.520        159.17	    13.820
  10.540        117.50	    11.874
  10.560        107.50	    11.358
  10.580         80.00	     9.798
  10.600        102.50	    11.091
  10.620        115.83	    11.790
  10.640         95.83	    10.724
  10.660         92.50	    10.536
  10.680        119.17	    11.958
  10.700        102.50	    11.091
  10.720        113.33	    11.662
  10.740         86.67	    10.198
  10.760        106.67	    11.314
  10.780        105.00	    11.225
  10.800         91.67	    10.488
  10.820        105.83	    11.269
  10.840         81.67	     9.899
  10.860        106.67	    11.314
  10.880        105.83	    11.269
  10.900        100.00	    10.954
  10.920        109.17	    11.446
  10.940        102.50	    11.091
  10.960        115.83	    11.790
  10.980        103.33	    11.136
  11.000         94.17	    10.630
  11.020         81.67	     9.899
  11.040         86.67	    10.198
  11.060         94.17	    10.630
  11.080        101.67	    11.045
  11.100        110.00	    11.489
  11.120         95.00	    10.677
  11.140         95.83	    10.724
  11.160         82.50	     9.950
  11.180         93.33	    10.583
  11.200        106.67	    11.314
  11.220         94.17	    10.630
  11.240        116.67	    11.832
  11.260         95.83	    10.724
  11.280        100.83	    11.000
  11.300        101.67	    11.045
  11.320         83.33	    10.000
  11.340        101.67	    11.045
  11.360         88.33	    10.296
  11.380        100.00	    10.954
  11.400        110.83	    11.533
  11.420         84.17	    10.050
  11.440         95.83	    10.724
  11.460         79.17	     9.747
  11.480         84.17	    10.050
  11.500         91.67	    10.488
  11.520         87.50	    10.247
  11.540         87.50	    10.247
  11.560         85.00	    10.100
  11.580         89.17	    10.344
  11.600        103.33	    11.136
  11.620         87.50	    10.247
  11.640         99.17	    10.909
  11.660         93.33	    10.583
  11.680         84.17	    10.050
  11.700         96.67	    10.770
  11.720         88.33	    10.296
  11.740         98.33	    10.863
  11.760         96.67	    10.770
  11.780         99.17	    10.909
  11.800        100.00	    10.954
  11.820         95.83	    10.724
  11.840         98.33	    10.863
  11.860        116.67	    11.832
  11.880        100.83	    11.000
  11.900        102.50	    11.091
  11.920        128.33	    12.410
  11.940        126.67	    12.329
  11.960        112.50	    11.619
  11.980        130.83	    12.530
  12.000        115.83	    11.790
  12.020        147.50	    13.304
  12.040        178.33	    14.629
  12.060        203.33	    15.620
  12.080        310.00	    19.287
  12.100        510.83	    24.759
  12.120        812.50	    31.225
  12.140        766.67	    30.332
  12.160        537.50	    25.397
  12.180        313.33	    19.391
  12.200        160.83	    13.892
  12.220        170.00	    14.283
  12.240        165.83	    14.107
  12.260        165.83	    14.107
  12.280        175.83	    14.526
  12.300        201.67	    15.556
  12.320        162.50	    13.964
  12.340        209.17	    15.843
  12.360        243.33	    17.088
  12.380        283.33	    18.439
  12.400        384.17	    21.471
  12.420        484.17	    24.104
  12.440        459.17	    23.473
  12.460        390.00	    21.633
  12.480        244.17	    17.117
  12.500        175.00	    14.491
  12.520        116.67	    11.832
  12.540        120.83	    12.042
  12.560         95.83	    10.724
  12.580         96.67	    10.770
  12.600         88.33	    10.296
  12.620         93.33	    10.583
  12.640         94.17	    10.630
  12.660         87.50	    10.247
  12.680         87.50	    10.247
  12.700         96.67	    10.770
  12.720         88.33	    10.296
  12.740         78.33	     9.695
  12.760         78.33	     9.695
  12.780         78.33	     9.695
  12.800         71.67	     9.274
  12.820         86.67	    10.198
  12.840         83.33	    10.000
  12.860         88.33	    10.296
  12.880         91.67	    10.488
  12.900         87.50	    10.247
  12.920         86.67	    10.198
  12.940         85.83	    10.149
  12.960         90.00	    10.392
  12.980        107.50	    11.358
  13.000         75.83	     9.539
  13.020         72.50	     9.327
  13.040         80.83	     9.849
  13.060         84.17	    10.050
  13.080         89.17	    10.344
  13.100         80.00	     9.798
  13.120         94.17	    10.630
  13.140         71.67	     9.274
  13.160         80.00	     9.798
  13.180         90.00	    10.392
  13.200         66.67	     8.944
  13.220         86.67	    10.198
  13.240         95.00	    10.677
  13.260         83.33	    10.000
  13.280         70.83	     9.220
  13.300         96.67	    10.770
  13.320         77.50	     9.644
  13.340         68.33	     9.055
  13.360         85.00	    10.100
  13.380         85.00	    10.100
  13.400         80.83	     9.849
  13.420         80.83	     9.849
  13.440         82.50	     9.950
  13.460         80.00	     9.798
  13.480         95.00	    10.677
  13.500         72.50	     9.327
  13.520         74.17	     9.434
  13.540         96.67	    10.770
  13.560        105.00	    11.225
  13.580         86.67	    10.198
  13.600         77.50	     9.644
  13.620         82.50	     9.950
  13.640         65.83	     8.888
  13.660         79.17	     9.747
  13.680         75.83	     9.539
  13.700         80.83	     9.849
  13.720         94.17	    10.630
  13.740        108.33	    11.402
  13.760        164.17	    14.036
  13.780        204.17	    15.652
  13.800        184.17	    14.866
  13.820        133.33	    12.649
  13.840        111.67	    11.576
  13.860         94.17	    10.630
  13.880         80.00	     9.798
  13.900         84.17	    10.050
  13.920         91.67	    10.488
  13.940         71.67	     9.274
  13.960         84.17	    10.050
  13.980         76.67	     9.592
  14.000         81.67	     9.899
  14.020         82.50	     9.950
  14.040         66.67	     8.944
  14.060         83.33	    10.000
  14.080         82.50	     9.950
  14.100         73.33	     9.381
  14.120         70.00	     9.165
  14.140         70.83	     9.220
  14.160         65.00	     8.832
  14.180         55.83	     8.185
  14.200         92.50	    10.536
  14.220         79.17	     9.747
  14.240         69.17	     9.110
  14.260         59.17	     8.426
  14.280         61.67	     8.602
  14.300         68.33	     9.055
  14.320         71.67	     9.274
  14.340         61.67	     8.602
  14.360         62.50	     8.660
  14.380         85.00	    10.100
  14.400         73.33	     9.381
  14.420         64.17	     8.775
  14.440         67.50	     9.000
  14.460         64.17	     8.775
  14.480         55.83	     8.185
  14.500         72.50	     9.327
  14.520         67.50	     9.000
  14.540         70.83	     9.220
  14.560         65.83	     8.888
  14.580         75.83	     9.539
  14.600         65.83	     8.888
  14.620         68.33	     9.055
  14.640         57.50	     8.307
  14.660         65.00	     8.832
  14.680         55.83	     8.185
  14.700         80.00	     9.798
  14.720         73.33	     9.381
  14.740         76.67	     9.592
  14.760         67.50	     9.000
  14.780         67.50	     9.000
  14.800         65.83	     8.888
  14.820         66.67	     8.944
  14.840         69.17	     9.110
  14.860         70.00	     9.165
  14.880         66.67	     8.944
  14.900         62.50	     8.660
  14.920         68.33	     9.055
  14.940         77.50	     9.644
  14.960         52.50	     7.937
  14.980         70.83	     9.220
  15.000         70.00	     9.165
  15.020         69.17	     9.110
  15.040         72.50	     9.327
  15.060         65.00	     8.832
  15.080         61.67	     8.602
  15.100         58.33	     8.367
  15.120         66.67	     8.944
  15.140         67.50	     9.000
  15.160         54.17	     8.062
  15.180         68.33	     9.055
  15.200         60.83	     8.544
  15.220         59.17	     8.426
  15.240         61.67	     8.602
  15.260         65.83	     8.888
  15.280         62.50	     8.660
  15.300         58.33	     8.367
  15.320         59.17	     8.426
  15.340         75.00	     9.487
  15.360         65.00	     8.832
  15.380         61.67	     8.602
  15.400         67.50	     9.000
  15.420         57.50	     8.307
  15.440         70.00	     9.165
  15.460         62.50	     8.660
  15.480         57.50	     8.307
  15.500         65.00	     8.832
  15.520         66.67	     8.944
  15.540         66.67	     8.944
  15.560         66.67	     8.944
  15.580         56.67	     8.246
  15.600         67.50	     9.000
  15.620         58.33	     8.367
  15.640         65.00	     8.832
  15.660         71.67	     9.274
  15.680         58.33	     8.367
  15.700         73.33	     9.381
  15.720         60.83	     8.544
  15.740         81.67	     9.899
  15.760         77.50	     9.644
  15.780         77.50	     9.644
  15.800         64.17	     8.775
  15.820         60.83	     8.544
  15.840         55.00	     8.124
  15.860         65.83	     8.888
  15.880         56.67	     8.246
  15.900         53.33	     8.000
  15.920         76.67	     9.592
  15.940         64.17	     8.775
  15.960         61.67	     8.602
  15.980         69.17	     9.110
  16.000         61.67	     8.602
  16.020         60.00	     8.485
  16.040         55.83	     8.185
  16.060         71.67	     9.274
  16.080         60.00	     8.485
  16.100         42.50	     7.141
  16.120         78.33	     9.695
  16.140         65.00	     8.832
  16.160         71.67	     9.274
  16.180         58.33	     8.367
  16.200         47.50	     7.550
  16.220         69.17	     9.110
  16.240         60.00	     8.485
  16.260         61.67	     8.602
  16.280         61.67	     8.602
  16.300         64.17	     8.775
  16.320         70.00	     9.165
  16.340         58.33	     8.367
  16.360         66.67	     8.944
  16.380         64.17	     8.775
  16.400         56.67	     8.246
  16.420         60.00	     8.485
  16.440         71.67	     9.274
  16.460         49.17	     7.681
  16.480         55.00	     8.124
  16.500         63.33	     8.718
  16.520         53.33	     8.000
  16.540         56.67	     8.246
  16.560         56.67	     8.246
  16.580         61.67	     8.602
  16.600         69.17	     9.110
  16.620         89.17	    10.344
  16.640         62.50	     8.660
  16.660         59.17	     8.426
  16.680         55.83	     8.185
  16.700         61.67	     8.602
  16.720         76.67	     9.592
  16.740         60.83	     8.544
  16.760         55.00	     8.124
  16.780         49.17	     7.681
  16.800         60.83	     8.544
  16.820         63.33	     8.718
  16.840         63.33	     8.718
  16.860         68.33	     9.055
  16.880         55.00	     8.124
  16.900         65.83	     8.888
  16.920         56.67	     8.246
  16.940         56.67	     8.246
  16.960         67.50	     9.000
  16.980         65.00	     8.832
  17.000         62.50	     8.660
  17.020         61.67	     8.602
  17.040         58.33	     8.367
  17.060         66.67	     8.944
  17.080         77.50	     9.644
  17.100         62.50	     8.660
  17.120         54.17	     8.062
  17.140         71.67	     9.274
  17.160         76.67	     9.592
  17.180         64.17	     8.775
  17.200         59.17	     8.426
  17.220         50.83	     7.810
  17.240         64.17	     8.775
  17.260         69.17	     9.110
  17.280         72.50	     9.327
  17.300         65.83	     8.888
  17.320         57.50	     8.307
  17.340         56.67	     8.246
  17.360         61.67	     8.602
  17.380         77.50	     9.644
  17.400         68.33	     9.055
  17.420         57.50	     8.307
  17.440         52.50	     7.937
  17.460         74.17	     9.434
  17.480         67.50	     9.000
  17.500         73.33	     9.381
  17.520         67.50	     9.000
  17.540         70.83	     9.220
  17.560         71.67	     9.274
  17.580         88.33	    10.296
  17.600         69.17	     9.110
  17.620        101.67	    11.045
  17.640         85.83	    10.149
  17.660        114.17	    11.705
  17.680        134.17	    12.689
  17.700        181.67	    14.765
  17.720        274.17	    18.138
  17.740        295.00	    18.815
  17.760        299.17	    18.947
  17.780        240.00	    16.971
  17.800        192.50	    15.199
  17.820        133.33	    12.649
  17.840        103.33	    11.136
  17.860         85.83	    10.149
  17.880         70.83	     9.220
  17.900         85.83	    10.149
  17.920         61.67	     8.602
  17.940         81.67	     9.899
  17.960         65.00	     8.832
  17.980         58.33	     8.367
  18.000         68.33	     9.055
  18.020         72.50	     9.327
  18.040         63.33	     8.718
  18.060         66.67	     8.944
  18.080         62.50	     8.660
  18.100         60.00	     8.485
  18.120         72.50	     9.327
  18.140         66.67	     8.944
  18.160         64.17	     8.775
  18.180         54.17	     8.062
  18.200         65.83	     8.888
  18.220         52.50	     7.937
  18.240         75.83	     9.539
  18.260         70.00	     9.165
  18.280         70.00	     9.165
  18.300         73.33	     9.381
  18.320         65.00	     8.832
  18.340         81.67	     9.899
  18.360         93.33	    10.583
  18.380         81.67	     9.899
  18.400         73.33	     9.381
  18.420         66.67	     8.944
  18.440         76.67	     9.592
  18.460         75.83	     9.539
  18.480         83.33	    10.000
  18.500        100.00	    10.954
  18.520         84.17	    10.050
  18.540         85.83	    10.149
  18.560         80.00	     9.798
  18.580         89.17	    10.344
  18.600         80.83	     9.849
  18.620         85.00	    10.100
  18.640         97.50	    10.817
  18.660         95.83	    10.724
  18.680        146.67	    13.266
  18.700        182.50	    14.799
  18.720        191.67	    15.166
  18.740        174.17	    14.457
  18.760        149.17	    13.379
  18.780        125.00	    12.247
  18.800         97.50	    10.817
  18.820         78.33	     9.695
  18.840         70.00	     9.165
  18.860         70.83	     9.220
  18.880         72.50	     9.327
  18.900         69.17	     9.110
  18.920         60.83	     8.544
  18.940         83.33	    10.000
  18.960         60.83	     8.544
  18.980         52.50	     7.937
  19.000         61.67	     8.602
  19.020         60.00	     8.485
  19.040         57.50	     8.307
  19.060         67.50	     9.000
  19.080         64.17	     8.775
  19.100         62.50	     8.660
  19.120         48.33	     7.616
  19.140         66.67	     8.944
  19.160         71.67	     9.274
  19.180         64.17	     8.775
  19.200         70.83	     9.220
  19.220         65.83	     8.888
  19.240         75.83	     9.539
  19.260         77.50	     9.644
  19.280         67.50	     9.000
  19.300         57.50	     8.307
  19.320         55.83	     8.185
  19.340         70.83	     9.220
  19.360         72.50	     9.327
  19.380         56.67	     8.246
  19.400         71.67	     9.274
  19.420         55.83	     8.185
  19.440         86.67	    10.198
  19.460         66.67	     8.944
  19.480         72.50	     9.327
  19.500         72.50	     9.327
  19.520         63.33	     8.718
  19.540         49.17	     7.681
  19.560         75.83	     9.539
  19.580         69.17	     9.110
  19.600         70.00	     9.165
  19.620         75.83	     9.539
  19.640         97.50	    10.817
  19.660         94.17	    10.630
  19.680         75.00	     9.487
  19.700         87.50	    10.247
  19.720         95.00	    10.677
  19.740         89.17	    10.344
  19.760        104.17	    11.180
  19.780         98.33	    10.863
  19.800        114.17	    11.705
  19.820        101.67	    11.045
  19.840         85.83	    10.149
  19.860         92.50	    10.536
  19.880         85.83	    10.149
  19.900         69.17	     9.110
  19.920         73.33	     9.381
  19.940         62.50	     8.660
  19.960         56.67	     8.246
  19.980         65.00	     8.832
  20.000         59.17	     8.426
  20.020         64.17	     8.775
  20.040         62.50	     8.660
  20.060         71.67	     9.274
  20.080         67.50	     9.000
  20.100         65.00	     8.832
  20.120         59.17	     8.426
  20.140         68.33	     9.055
  20.160         73.33	     9.381
  20.180         60.00	     8.485
  20.200         67.50	     9.000
  20.220         52.50	     7.937
  20.240         65.83	     8.888
  20.260         55.83	     8.185
  20.280         63.33	     8.718
  20.300         46.67	     7.483
  20.320         65.83	     8.888
  20.340         58.33	     8.367
  20.360         53.33	     8.000
  20.380         46.67	     7.483
  20.400         76.67	     9.592
  20.420         51.67	     7.874
  20.440         65.00	     8.832
  20.460         52.50	     7.937
  20.480         84.17	    10.050
  20.500         62.50	     8.660
  20.520         65.00	     8.832
  20.540         69.17	     9.110
  20.560         79.17	     9.747
  20.580         85.83	    10.149
  20.600         74.17	     9.434
  20.620         78.33	     9.695
  20.640         96.67	    10.770
  20.660         93.33	    10.583
  20.680        125.83	    12.288
  20.700        171.67	    14.353
  20.720        226.67	    16.492
  20.740        295.83	    18.841
  20.760        405.83	    22.068
  20.780        430.83	    22.738
  20.800        410.83	    22.204
  20.820        339.17	    20.174
  20.840        259.17	    17.635
  20.860        195.00	    15.297
  20.880        108.33	    11.402
  20.900         85.00	    10.100
  20.920         94.17	    10.630
  20.940         85.00	    10.100
  20.960        100.00	    10.954
  20.980        111.67	    11.576
  21.000         78.33	     9.695
  21.020         70.00	     9.165
  21.040         66.67	     8.944
  21.060         52.50	     7.937
  21.080         78.33	     9.695
  21.100         56.67	     8.246
  21.120         64.17	     8.775
  21.140         51.67	     7.874
  21.160         62.50	     8.660
  21.180         47.50	     7.550
  21.200         45.83	     7.416
  21.220         65.83	     8.888
  21.240         60.83	     8.544
  21.260         62.50	     8.660
  21.280         63.33	     8.718
  21.300         65.83	     8.888
  21.320         46.67	     7.483
  21.340         65.83	     8.888
  21.360         60.83	     8.544
  21.380         55.00	     8.124
  21.400         61.67	     8.602
  21.420         49.17	     7.681
  21.440         54.17	     8.062
  21.460         55.83	     8.185
  21.480         50.00	     7.746
  21.500         45.83	     7.416
  21.520         54.17	     8.062
  21.540         63.33	     8.718
  21.560         70.83	     9.220
  21.580         54.17	     8.062
  21.600         65.83	     8.888
  21.620         55.00	     8.124
  21.640         65.00	     8.832
  21.660         55.83	     8.185
  21.680         62.50	     8.660
  21.700         54.17	     8.062
  21.720         55.00	     8.124
  21.740         40.00	     6.928
  21.760         55.00	     8.124
  21.780         75.00	     9.487
  21.800         73.33	     9.381
  21.820         65.00	     8.832
  21.840        115.00	    11.747
  21.860         97.50	    10.817
  21.880         84.17	    10.050
  21.900        118.33	    11.916
  21.920        131.67	    12.570
  21.940        187.50	    15.000
  21.960        202.50	    15.588
  21.980        185.00	    14.900
  22.000        184.17	    14.866
  22.020        129.17	    12.450
  22.040        105.00	    11.225
  22.060         98.33	    10.863
  22.080         90.00	    10.392
  22.100         79.17	     9.747
  22.120         64.17	     8.775
  22.140         60.00	     8.485
  22.160         67.50	     9.000
  22.180         52.50	     7.937
  22.200         59.17	     8.426
  22.220         58.33	     8.367
  22.240         60.83	     8.544
  22.260         63.33	     8.718
  22.280         50.83	     7.810
  22.300         63.33	     8.718
  22.320         51.67	     7.874
  22.340         73.33	     9.381
  22.360         64.17	     8.775
  22.380         58.33	     8.367
  22.400         68.33	     9.055
  22.420         72.50	     9.327
  22.440         72.50	     9.327
  22.460         69.17	     9.110
  22.480         61.67	     8.602
  22.500         68.33	     9.055
  22.520         43.33	     7.211
  22.540         50.00	     7.746
  22.560         55.83	     8.185
  22.580         58.33	     8.367
  22.600         59.17	     8.426
  22.620         55.83	     8.185
  22.640         50.00	     7.746
  22.660         71.67	     9.274
  22.680         59.17	     8.426
  22.700         57.50	     8.307
  22.720         72.50	     9.327
  22.740         67.50	     9.000
  22.760         79.17	     9.747
  22.780         85.00	    10.100
  22.800         81.67	     9.899
  22.820         84.17	    10.050
  22.840        112.50	    11.619
  22.860         83.33	    10.000
  22.880         90.00	    10.392
  22.900         84.17	    10.050
  22.920         78.33	     9.695
  22.940        108.33	    11.402
  22.960         91.67	    10.488
  22.980        101.67	    11.045
  23.000        111.67	    11.576
  23.020         85.83	    10.149
  23.040         82.50	     9.950
  23.060         75.00	     9.487
  23.080         68.33	     9.055
  23.100         66.67	     8.944
  23.120         39.17	     6.856
  23.140         55.83	     8.185
  23.160         73.33	     9.381
  23.180         49.17	     7.681
  23.200         59.17	     8.426
  23.220         55.83	     8.185
  23.240         50.00	     7.746
  23.260         59.17	     8.426
  23.280         63.33	     8.718
  23.300         61.67	     8.602
  23.320         60.00	     8.485
  23.340         69.17	     9.110
  23.360         78.33	     9.695
  23.380         65.83	     8.888
  23.400        101.67	    11.045
  23.420        107.50	    11.358
  23.440        115.83	    11.790
  23.460        132.50	    12.610
  23.480        127.50	    12.369
  23.500        106.67	    11.314
  23.520        130.83	    12.530
  23.540        100.00	    10.954
  23.560        100.83	    11.000
  23.580         70.00	     9.165
  23.600         75.83	     9.539
  23.620         87.50	    10.247
  23.640         76.67	     9.592
  23.660         75.83	     9.539
  23.680         79.17	     9.747
  23.700         93.33	    10.583
  23.720         85.83	    10.149
  23.740         96.67	    10.770
  23.760         90.83	    10.440
  23.780         93.33	    10.583
  23.800         75.00	     9.487
  23.820         70.83	     9.220
  23.840         69.17	     9.110
  23.860         68.33	     9.055
  23.880         72.50	     9.327
  23.900         71.67	     9.274
  23.920         74.17	     9.434
  23.940         90.00	    10.392
  23.960         92.50	    10.536
  23.980         98.33	    10.863
  24.000         85.00	    10.100
  24.020         96.67	    10.770
  24.040         97.50	    10.817
  24.060        101.67	    11.045
  24.080        108.33	    11.402
  24.100         97.50	    10.817
  24.120        105.00	    11.225
  24.140         95.83	    10.724
  24.160        108.33	    11.402
  24.180        107.50	    11.358
  24.200        130.00	    12.490
  24.220        124.17	    12.207
  24.240        127.50	    12.369
  24.260        128.33	    12.410
  24.280         96.67	    10.770
  24.300         99.17	    10.909
  24.320         86.67	    10.198
  24.340         93.33	    10.583
  24.360         87.50	    10.247
  24.380         91.67	    10.488
  24.400         91.67	    10.488
  24.420        112.50	    11.619
  24.440        149.17	    13.379
  24.460        191.67	    15.166
  24.480        225.83	    16.462
  24.500        280.00	    18.330
  24.520        324.17	    19.723
  24.540        413.33	    22.271
  24.560        398.33	    21.863
  24.580        360.83	    20.809
  24.600        288.33	    18.601
  24.620        272.50	    18.083
  24.640        236.67	    16.852
  24.660        143.33	    13.115
  24.680        145.00	    13.191
  24.700        130.00	    12.490
  24.720        115.83	    11.790
  24.740        121.67	    12.083
  24.760        124.17	    12.207
  24.780        103.33	    11.136
  24.800         95.00	    10.677
  24.820        120.83	    12.042
  24.840        129.17	    12.450
  24.860         96.67	    10.770
  24.880        106.67	    11.314
  24.900        105.83	    11.269
  24.920         97.50	    10.817
  24.940        103.33	    11.136
  24.960        115.83	    11.790
  24.980        147.50	    13.304
  25.000        136.67	    12.806
  25.020        200.00	    15.492
  25.040        247.50	    17.234
  25.060        295.00	    18.815
  25.080        313.33	    19.391
  25.100        325.00	    19.748
  25.120        247.50	    17.234
  25.140        197.50	    15.395
  25.160        181.67	    14.765
  25.180        149.17	    13.379
  25.200        118.33	    11.916
  25.220        104.17	    11.180
  25.240        117.50	    11.874
  25.260        127.50	    12.369
  25.280        242.50	    17.059
  25.300        368.33	    21.024
  25.320        238.33	    16.912
  25.340        193.33	    15.232
  25.360        219.17	    16.217
  25.380        219.17	    16.217
  25.400        146.67	    13.266
  25.420        175.83	    14.526
  25.440        184.17	    14.866
  25.460        180.00	    14.697
  25.480        162.50	    13.964
  25.500        147.50	    13.304
  25.520        140.00	    12.961
  25.540        125.00	    12.247
  25.560        160.83	    13.892
  25.580        125.83	    12.288
  25.600        126.67	    12.329
  25.620        123.33	    12.166
  25.640        106.67	    11.314
  25.660         93.33	    10.583
  25.680         85.83	    10.149
  25.700         74.17	     9.434
  25.720         72.50	     9.327
  25.740         63.33	     8.718
  25.760         84.17	    10.050
  25.780         73.33	     9.381
  25.800         65.00	     8.832
  25.820         71.67	     9.274
  25.840         60.00	     8.485
  25.860         81.67	     9.899
  25.880         50.83	     7.810
  25.900         75.83	     9.539
  25.920         60.83	     8.544
  25.940         70.00	     9.165
  25.960         64.17	     8.775
  25.980         59.17	     8.426
  26.000         72.50	     9.327
  26.020         57.50	     8.307
  26.040         70.00	     9.165
  26.060         70.00	     9.165
  26.080         75.83	     9.539
  26.100         84.17	    10.050
  26.120         77.50	     9.644
  26.140         94.17	    10.630
  26.160         97.50	    10.817
  26.180         90.83	    10.440
  26.200        124.17	    12.207
  26.220        106.67	    11.314
  26.240        146.67	    13.266
  26.260        148.33	    13.342
  26.280        155.83	    13.675
  26.300        149.17	    13.379
  26.320        190.83	    15.133
  26.340        182.50	    14.799
  26.360        174.17	    14.457
  26.380        198.33	    15.427
  26.400        192.50	    15.199
  26.420        233.33	    16.733
  26.440        225.83	    16.462
  26.460        293.33	    18.762
  26.480        413.33	    22.271
  26.500        624.17	    27.368
  26.520       1117.50	    36.620
  26.540       2153.33	    50.833
  26.560       2620.00	    56.071
  26.580       2208.33	    51.478
  26.600       1616.67	    44.045
  26.620       1706.67	    45.255
  26.640       1433.33	    41.473
  26.660        874.17	    32.388
  26.680        542.50	    25.515
  26.700        468.33	    23.707
  26.720        480.00	    24.000
  26.740        574.17	    26.249
  26.760        731.67	    29.631
  26.780        829.17	    31.544
  26.800        780.83	    30.610
  26.820        775.83	    30.512
  26.840        710.83	    29.206
  26.860        695.83	    28.896
  26.880        629.17	    27.477
  26.900        415.83	    22.338
  26.920        295.00	    18.815
  26.940        274.17	    18.138
  26.960        239.17	    16.941
  26.980        172.50	    14.387
  27.000        132.50	    12.610
  27.020        120.00	    12.000
  27.040        111.67	    11.576
  27.060         92.50	    10.536
  27.080        110.83	    11.533
  27.100        100.83	    11.000
  27.120         95.83	    10.724
  27.140         90.00	    10.392
  27.160         90.83	    10.440
  27.180         93.33	    10.583
  27.200         90.83	    10.440
  27.220         80.83	     9.849
  27.240        105.83	    11.269
  27.260        100.83	    11.000
  27.280         89.17	    10.344
  27.300        123.33	    12.166
  27.320        173.33	    14.422
  27.340        181.67	    14.765
  27.360        210.83	    15.906
  27.380        237.50	    16.882
  27.400        285.83	    18.520
  27.420        318.33	    19.545
  27.440        294.17	    18.788
  27.460        240.83	    17.000
  27.480        204.17	    15.652
  27.500        190.00	    15.100
  27.520        153.33	    13.565
  27.540        115.83	    11.790
  27.560        106.67	    11.314
  27.580        130.00	    12.490
  27.600        148.33	    13.342
  27.620        176.67	    14.560
  27.640        265.00	    17.833
  27.660        279.17	    18.303
  27.680        293.33	    18.762
  27.700        290.83	    18.682
  27.720        300.00	    18.974
  27.740        277.50	    18.248
  27.760        260.83	    17.692
  27.780        344.17	    20.322
  27.800        501.67	    24.536
  27.820        601.67	    26.870
  27.840        593.33	    26.683
  27.860        533.33	    25.298
  27.880        575.83	    26.287
  27.900        507.50	    24.678
  27.920        353.33	    20.591
  27.940        270.00	    18.000
  27.960        226.67	    16.492
  27.980        160.00	    13.856
  28.000        157.50	    13.748
  28.020        144.17	    13.153
  28.040        160.83	    13.892
  28.060        132.50	    12.610
  28.080        118.33	    11.916
  28.100        117.50	    11.874
  28.120        147.50	    13.304
  28.140        105.83	    11.269
  28.160        111.67	    11.576
  28.180        125.00	    12.247
  28.200        120.83	    12.042
  28.220        135.83	    12.767
  28.240        115.00	    11.747
  28.260        121.67	    12.083
  28.280        102.50	    11.091
  28.300        103.33	    11.136
  28.320         96.67	    10.770
  28.340         82.50	     9.950
  28.360         68.33	     9.055
  28.380         69.17	     9.110
  28.400         76.67	     9.592
  28.420         95.00	    10.677
  28.440         95.83	    10.724
  28.460        102.50	    11.091
  28.480        104.17	    11.180
  28.500        139.17	    12.923
  28.520        115.00	    11.747
  28.540        163.33	    14.000
  28.560        105.83	    11.269
  28.580        109.17	    11.446
  28.600        125.83	    12.288
  28.620        135.83	    12.767
  28.640        101.67	    11.045
  28.660        128.33	    12.410
  28.680        106.67	    11.314
  28.700         97.50	    10.817
  28.720         93.33	    10.583
  28.740         66.67	     8.944
  28.760         72.50	     9.327
  28.780         75.83	     9.539
  28.800         70.00	     9.165
  28.820         51.67	     7.874
  28.840         55.00	     8.124
  28.860         56.67	     8.246
  28.880         62.50	     8.660
  28.900         50.00	     7.746
  28.920         73.33	     9.381
  28.940         58.33	     8.367
  28.960         50.83	     7.810
  28.980         69.17	     9.110
  29.000         46.67	     7.483
  29.020         53.33	     8.000
  29.040         60.00	     8.485
  29.060         62.50	     8.660
  29.080         55.83	     8.185
  29.100         56.67	     8.246
  29.120         67.50	     9.000
  29.140         47.50	     7.550
  29.160         56.67	     8.246
  29.180         59.17	     8.426
  29.200         57.50	     8.307
  29.220         50.00	     7.746
  29.240         53.33	     8.000
  29.260         49.17	     7.681
  29.280         49.17	     7.681
  29.300         44.17	     7.280
  29.320         44.17	     7.280
  29.340         58.33	     8.367
  29.360         50.00	     7.746
  29.380         65.83	     8.888
  29.400         63.33	     8.718
  29.420         58.33	     8.367
  29.440         62.50	     8.660
  29.460         71.67	     9.274
  29.480         48.33	     7.616
  29.500         55.83	     8.185
  29.520         66.67	     8.944
  29.540         55.83	     8.185
  29.560         68.33	     9.055
  29.580         73.33	     9.381
  29.600         89.17	    10.344
  29.620         74.17	     9.434
  29.640         79.17	     9.747
  29.660         91.67	    10.488
  29.680         68.33	     9.055
  29.700         80.83	     9.849
  29.720        110.00	    11.489
  29.740        135.00	    12.728
  29.760        150.00	    13.416
  29.780        149.17	    13.379
  29.800        151.67	    13.491
  29.820        123.33	    12.166
  29.840        131.67	    12.570
  29.860        135.83	    12.767
  29.880        124.17	    12.207
  29.900         79.17	     9.747
  29.920         69.17	     9.110
  29.940         77.50	     9.644
  29.960         60.00	     8.485
  29.980         71.67	     9.274
  30.000         56.67	     8.246
  30.020         94.17	    10.630
  30.040         86.67	    10.198
  30.060         90.83	    10.440
  30.080         81.67	     9.899
  30.100         92.50	    10.536
  30.120         80.00	     9.798
  30.140         83.33	    10.000
  30.160         81.67	     9.899
  30.180         88.33	    10.296
  30.200         72.50	     9.327
  30.220         75.83	     9.539
  30.240         66.67	     8.944
  30.260         67.50	     9.000
  30.280         81.67	     9.899
  30.300         60.83	     8.544
  30.320         90.83	    10.440
  30.340         89.17	    10.344
  30.360         92.50	    10.536
  30.380        120.00	    12.000
  30.400        122.50	    12.124
  30.420        105.83	    11.269
  30.440         91.67	    10.488
  30.460         83.33	    10.000
  30.480        100.83	    11.000
  30.500         90.00	    10.392
  30.520         59.17	     8.426
  30.540         52.50	     7.937
  30.560         40.00	     6.928
  30.580         45.00	     7.348
  30.600         59.17	     8.426
  30.620         57.50	     8.307
  30.640         53.33	     8.000
  30.660         58.33	     8.367
  30.680         69.17	     9.110
  30.700         78.33	     9.695
  30.720         81.67	     9.899
  30.740         82.50	     9.950
  30.760         93.33	    10.583
  30.780         80.00	     9.798
  30.800         81.67	     9.899
  30.820         80.00	     9.798
  30.840         78.33	     9.695
  30.860         66.67	     8.944
  30.880         69.17	     9.110
  30.900         57.50	     8.307
  30.920         68.33	     9.055
  30.940         42.50	     7.141
  30.960         67.50	     9.000
  30.980         76.67	     9.592
  31.000         65.83	     8.888
  31.020         67.50	     9.000
  31.040         81.67	     9.899
  31.060         70.83	     9.220
  31.080         83.33	    10.000
  31.100         77.50	     9.644
  31.120         85.83	    10.149
  31.140        120.83	    12.042
  31.160        106.67	    11.314
  31.180        113.33	    11.662
  31.200         97.50	    10.817
  31.220         95.00	    10.677
  31.240         77.50	     9.644
  31.260         81.67	     9.899
  31.280         75.00	     9.487
  31.300         72.50	     9.327
  31.320         64.17	     8.775
  31.340         64.17	     8.775
  31.360         57.50	     8.307
  31.380         53.33	     8.000
  31.400         50.83	     7.810
  31.420         80.83	     9.849
  31.440         64.17	     8.775
  31.460         82.50	     9.950
  31.480         91.67	    10.488
  31.500         91.67	    10.488
  31.520         80.83	     9.849
  31.540         80.83	     9.849
  31.560         85.00	    10.100
  31.580         67.50	     9.000
  31.600         74.17	     9.434
  31.620         61.67	     8.602
  31.640         57.50	     8.307
  31.660         56.67	     8.246
  31.680         61.67	     8.602
  31.700         59.17	     8.426
  31.720         60.83	     8.544
  31.740         61.67	     8.602
  31.760         64.17	     8.775
  31.780         74.17	     9.434
  31.800         61.67	     8.602
  31.820         64.17	     8.775
  31.840         63.33	     8.718
  31.860         75.00	     9.487
  31.880         70.83	     9.220
  31.900         64.17	     8.775
  31.920         80.00	     9.798
  31.940         83.33	    10.000
  31.960         79.17	     9.747
  31.980         76.67	     9.592
  32.000         98.33	    10.863
  32.020        102.50	    11.091
  32.040        100.83	    11.000
  32.060         94.17	    10.630
  32.080         77.50	     9.644
  32.100         70.83	     9.220
  32.120         65.83	     8.888
  32.140         60.00	     8.485
  32.160         60.83	     8.544
  32.180         64.17	     8.775
  32.200         55.00	     8.124
  32.220         52.50	     7.937
  32.240         51.67	     7.874
  32.260         45.00	     7.348
  32.280         60.00	     8.485
  32.300         49.17	     7.681
  32.320         41.67	     7.071
  32.340         53.33	     8.000
  32.360         43.33	     7.211
  32.380         45.83	     7.416
  32.400         46.67	     7.483
  32.420         39.17	     6.856
  32.440         45.83	     7.416
  32.460         35.00	     6.481
  32.480         55.00	     8.124
  32.500         35.83	     6.557
  32.520         45.00	     7.348
  32.540         40.00	     6.928
  32.560         52.50	     7.937
  32.580         35.83	     6.557
  32.600         39.17	     6.856
  32.620         34.17	     6.403
  32.640         45.83	     7.416
  32.660         49.17	     7.681
  32.680         45.83	     7.416
  32.700         49.17	     7.681
  32.720         48.33	     7.616
  32.740         35.83	     6.557
  32.760         41.67	     7.071
  32.780         41.67	     7.071
  32.800         36.67	     6.633
  32.820         42.50	     7.141
  32.840         53.33	     8.000
  32.860         44.17	     7.280
  32.880         44.17	     7.280
  32.900         55.83	     8.185
  32.920         44.17	     7.280
  32.940         50.83	     7.810
  32.960         63.33	     8.718
  32.980         88.33	    10.296
  33.000         87.50	    10.247
  33.020         70.00	     9.165
  33.040         80.83	     9.849
  33.060         80.83	     9.849
  33.080         80.83	     9.849
  33.100         55.00	     8.124
  33.120         55.83	     8.185
  33.140         48.33	     7.616
  33.160         47.50	     7.550
  33.180         61.67	     8.602
  33.200         50.00	     7.746
  33.220         63.33	     8.718
  33.240         53.33	     8.000
  33.260         60.00	     8.485
  33.280         65.00	     8.832
  33.300         65.83	     8.888
  33.320         53.33	     8.000
  33.340         60.00	     8.485
  33.360         68.33	     9.055
  33.380         64.17	     8.775
  33.400         60.83	     8.544
  33.420         76.67	     9.592
  33.440         70.83	     9.220
  33.460         63.33	     8.718
  33.480         57.50	     8.307
  33.500         47.50	     7.550
  33.520         69.17	     9.110
  33.540         49.17	     7.681
  33.560         51.67	     7.874
  33.580         64.17	     8.775
  33.600         45.83	     7.416
  33.620         53.33	     8.000
  33.640         43.33	     7.211
  33.660         46.67	     7.483
  33.680         50.00	     7.746
  33.700         49.17	     7.681
  33.720         73.33	     9.381
  33.740         85.00	    10.100
  33.760         83.33	    10.000
  33.780         71.67	     9.274
  33.800         76.67	     9.592
  33.820         68.33	     9.055
  33.840         93.33	    10.583
  33.860        105.00	    11.225
  33.880         85.00	    10.100
  33.900         65.00	     8.832
  33.920         77.50	     9.644
  33.940         85.83	    10.149
  33.960         73.33	     9.381
  33.980         60.00	     8.485
  34.000         74.17	     9.434
  34.020         61.67	     8.602
  34.040         77.50	     9.644
  34.060         65.00	     8.832
  34.080         60.00	     8.485
  34.100         59.17	     8.426
  34.120         44.17	     7.280
  34.140         55.83	     8.185
  34.160         56.67	     8.246
  34.180         50.00	     7.746
  34.200         58.33	     8.367
  34.220         61.67	     8.602
  34.240         66.67	     8.944
  34.260         63.33	     8.718
  34.280         66.67	     8.944
  34.300         55.00	     8.124
  34.320         66.67	     8.944
  34.340         85.83	    10.149
  34.360         80.00	     9.798
  34.380         71.67	     9.274
  34.400         89.17	    10.344
  34.420         84.17	    10.050
  34.440         76.67	     9.592
  34.460        118.33	    11.916
  34.480        128.33	    12.410
  34.500        113.33	    11.662
  34.520        112.50	    11.619
  34.540        102.50	    11.091
  34.560         99.17	    10.909
  34.580         99.17	    10.909
  34.600        103.33	    11.136
  34.620         88.33	    10.296
  34.640         85.83	    10.149
  34.660         70.83	     9.220
  34.680         74.17	     9.434
  34.700         95.83	    10.724
  34.720         95.83	    10.724
  34.740         94.17	    10.630
  34.760         80.83	     9.849
  34.780        123.33	    12.166
  34.800        120.83	    12.042
  34.820        111.67	    11.576
  34.840        111.67	    11.576
  34.860        116.67	    11.832
  34.880        122.50	    12.124
  34.900        115.00	    11.747
  34.920        165.83	    14.107
  34.940        135.00	    12.728
  34.960        154.17	    13.601
  34.980        106.67	    11.314
  35.000        118.33	    11.916
  35.020        101.67	    11.045
  35.040         91.67	    10.488
  35.060        103.33	    11.136
  35.080         75.00	     9.487
  35.100         72.50	     9.327
  35.120         94.17	    10.630
  35.140         85.83	    10.149
  35.160         77.50	     9.644
  35.180         65.83	     8.888
  35.200         69.17	     9.110
  35.220         74.17	     9.434
  35.240         66.67	     8.944
  35.260         89.17	    10.344
  35.280         87.50	    10.247
  35.300         83.33	    10.000
  35.320        113.33	    11.662
  35.340         85.83	    10.149
  35.360         90.83	    10.440
  35.380         91.67	    10.488
  35.400        110.83	    11.533
  35.420        119.17	    11.958
  35.440        120.83	    12.042
  35.460        140.00	    12.961
  35.480        148.33	    13.342
  35.500        130.83	    12.530
  35.520        120.00	    12.000
  35.540        110.83	    11.533
  35.560        165.83	    14.107
  35.580        168.33	    14.213
  35.600        151.67	    13.491
  35.620        104.17	    11.180
  35.640         95.00	    10.677
  35.660        111.67	    11.576
  35.680        109.17	    11.446
  35.700         84.17	    10.050
  35.720         70.83	     9.220
  35.740         75.00	     9.487
  35.760         50.83	     7.810
  35.780         70.83	     9.220
  35.800         65.83	     8.888
  35.820         83.33	    10.000
  35.840         83.33	    10.000
  35.860         62.50	     8.660
  35.880         71.67	     9.274
  35.900         95.83	    10.724
  35.920         90.83	    10.440
  35.940         99.17	    10.909
  35.960         81.67	     9.899
  35.980        115.00	    11.747
  36.000        115.83	    11.790
  36.020         90.00	    10.392
  36.040        105.00	    11.225
  36.060         93.33	    10.583
  36.080         76.67	     9.592
  36.100         72.50	     9.327
  36.120         70.83	     9.220
  36.140         50.83	     7.810
  36.160         50.00	     7.746
  36.180         60.83	     8.544
  36.200         62.50	     8.660
  36.220         62.50	     8.660
  36.240         60.83	     8.544
  36.260         59.17	     8.426
  36.280         70.83	     9.220
  36.300         67.50	     9.000
  36.320        122.50	    12.124
  36.340        154.17	    13.601
  36.360        110.83	    11.533
  36.380         95.83	    10.724
  36.400        128.33	    12.410
  36.420        177.50	    14.595
  36.440        257.50	    17.578
  36.460        331.67	    19.950
  36.480        345.83	    20.372
  36.500        260.00	    17.664
  36.520        222.50	    16.340
  36.540        192.50	    15.199
  36.560        225.00	    16.432
  36.580        192.50	    15.199
  36.600        167.50	    14.177
  36.620        112.50	    11.619
  36.640        110.00	    11.489
  36.660        116.67	    11.832
  36.680         88.33	    10.296
  36.700        102.50	    11.091
  36.720         96.67	    10.770
  36.740         82.50	     9.950
  36.760         82.50	     9.950
  36.780         62.50	     8.660
  36.800         55.00	     8.124
  36.820         50.83	     7.810
  36.840         50.00	     7.746
  36.860         59.17	     8.426
  36.880         57.50	     8.307
  36.900         55.00	     8.124
  36.920         63.33	     8.718
  36.940         55.83	     8.185
  36.960         57.50	     8.307
  36.980         60.83	     8.544
  37.000         55.83	     8.185
  37.020         45.83	     7.416
  37.040         61.67	     8.602
  37.060         60.00	     8.485
  37.080         63.33	     8.718
  37.100         58.33	     8.367
  37.120         58.33	     8.367
  37.140         49.17	     7.681
  37.160         51.67	     7.874
  37.180         55.00	     8.124
  37.200         56.67	     8.246
  37.220         68.33	     9.055
  37.240         71.67	     9.274
  37.260         59.17	     8.426
  37.280         76.67	     9.592
  37.300         79.17	     9.747
  37.320         62.50	     8.660
  37.340         75.83	     9.539
  37.360         69.17	     9.110
  37.380         67.50	     9.000
  37.400         85.00	    10.100
  37.420         80.83	     9.849
  37.440         83.33	    10.000
  37.460         85.83	    10.149
  37.480         85.83	    10.149
  37.500         75.83	     9.539
  37.520         94.17	    10.630
  37.540         85.00	    10.100
  37.560         95.83	    10.724
  37.580         90.83	    10.440
  37.600         94.17	    10.630
  37.620        104.17	    11.180
  37.640         90.83	    10.440
  37.660         90.83	    10.440
  37.680         80.00	     9.798
  37.700         74.17	     9.434
  37.720         70.00	     9.165
  37.740         60.83	     8.544
  37.760         59.17	     8.426
  37.780         57.50	     8.307
  37.800         50.00	     7.746
  37.820         34.17	     6.403
  37.840         42.50	     7.141
  37.860         41.67	     7.071
  37.880         38.33	     6.782
  37.900         45.83	     7.416
  37.920         45.83	     7.416
  37.940         41.67	     7.071
  37.960         42.50	     7.141
  37.980         40.83	     7.000
  38.000         35.83	     6.557
  38.020         44.17	     7.280
  38.040         40.00	     6.928
  38.060         41.67	     7.071
  38.080         36.67	     6.633
  38.100         35.83	     6.557
  38.120         41.67	     7.071
  38.140         35.83	     6.557
  38.160         30.83	     6.083
  38.180         46.67	     7.483
  38.200         42.50	     7.141
  38.220         33.33	     6.325
  38.240         41.67	     7.071
  38.260         36.67	     6.633
  38.280         40.00	     6.928
  38.300         35.00	     6.481
  38.320         26.67	     5.657
  38.340         37.50	     6.708
  38.360         50.00	     7.746
  38.380         40.00	     6.928
  38.400         46.67	     7.483
  38.420         49.17	     7.681
  38.440         54.17	     8.062
  38.460         58.33	     8.367
  38.480         67.50	     9.000
  38.500         47.50	     7.550
  38.520         39.17	     6.856
  38.540         50.00	     7.746
  38.560         53.33	     8.000
  38.580         45.83	     7.416
  38.600         53.33	     8.000
  38.620         43.33	     7.211
  38.640         51.67	     7.874
  38.660         40.83	     7.000
  38.680         49.17	     7.681
  38.700         65.00	     8.832
  38.720         56.67	     8.246
  38.740         48.33	     7.616
  38.760         60.00	     8.485
  38.780         59.17	     8.426
  38.800         55.83	     8.185
  38.820         50.00	     7.746
  38.840         45.83	     7.416
  38.860         50.00	     7.746
  38.880         58.33	     8.367
  38.900         55.83	     8.185
  38.920         40.83	     7.000
  38.940         33.33	     6.325
  38.960         55.83	     8.185
  38.980         52.50	     7.937
  39.000         42.50	     7.141
  39.020         45.00	     7.348
  39.040         45.00	     7.348
  39.060         40.00	     6.928
  39.080         42.50	     7.141
  39.100         45.83	     7.416
  39.120         47.50	     7.550
  39.140         40.00	     6.928
  39.160         45.83	     7.416
  39.180         55.83	     8.185
  39.200         50.00	     7.746
  39.220         44.17	     7.280
  39.240         43.33	     7.211
  39.260         48.33	     7.616
  39.280         64.17	     8.775
  39.300         74.17	     9.434
  39.320         89.17	    10.344
  39.340        113.33	    11.662
  39.360        135.00	    12.728
  39.380        196.67	    15.362
  39.400        190.00	    15.100
  39.420        165.83	    14.107
  39.440        138.33	    12.884
  39.460        124.17	    12.207
  39.480        145.83	    13.229
  39.500        120.83	    12.042
  39.520         94.17	    10.630
  39.540         80.83	     9.849
  39.560         75.83	     9.539
  39.580         86.67	    10.198
  39.600         98.33	    10.863
  39.620         95.00	    10.677
  39.640         79.17	     9.747
  39.660         53.33	     8.000
  39.680         68.33	     9.055
  39.700         68.33	     9.055
  39.720         73.33	     9.381
  39.740         80.00	     9.798
  39.760         61.67	     8.602
  39.780         74.17	     9.434
  39.800         63.33	     8.718
  39.820         61.67	     8.602
  39.840         68.33	     9.055
  39.860         62.50	     8.660
  39.880         54.17	     8.062
  39.900         54.17	     8.062
  39.920         60.83	     8.544
  39.940         50.00	     7.746
  39.960         60.00	     8.485
  39.980         59.17	     8.426
  40.000         40.83	     7.000
  40.020         50.00	     7.746
  40.040         69.17	     9.110
  40.060         48.33	     7.616
  40.080         45.00	     7.348
  40.100         53.33	     8.000
  40.120         69.17	     9.110
  40.140         73.33	     9.381
  40.160         93.33	    10.583
  40.180        105.83	    11.269
  40.200        135.00	    12.728
  40.220        100.00	    10.954
  40.240        100.83	    11.000
  40.260         81.67	     9.899
  40.280         90.00	    10.392
  40.300         87.50	    10.247
  40.320         83.33	    10.000
  40.340         95.83	    10.724
  40.360         50.83	     7.810
  40.380         55.00	     8.124
  40.400         64.17	     8.775
  40.420         42.50	     7.141
  40.440         52.50	     7.937
  40.460         58.33	     8.367
  40.480         53.33	     8.000
  40.500         51.67	     7.874
  40.520         54.17	     8.062
  40.540         55.83	     8.185
  40.560         45.83	     7.416
  40.580         65.83	     8.888
  40.600         50.00	     7.746
  40.620         54.17	     8.062
  40.640         45.00	     7.348
  40.660         45.83	     7.416
  40.680         53.33	     8.000
  40.700         45.83	     7.416
  40.720         44.17	     7.280
  40.740         35.83	     6.557
  40.760         40.00	     6.928
  40.780         61.67	     8.602
  40.800         47.50	     7.550
  40.820         49.17	     7.681
  40.840         58.33	     8.367
  40.860         63.33	     8.718
  40.880         39.17	     6.856
  40.900         48.33	     7.616
  40.920         44.17	     7.280
  40.940         51.67	     7.874
  40.960         60.00	     8.485
  40.980         58.33	     8.367
  41.000         45.00	     7.348
  41.020         51.67	     7.874
  41.040         40.83	     7.000
  41.060         46.67	     7.483
  41.080         43.33	     7.211
  41.100         52.50	     7.937
  41.120         60.00	     8.485
  41.140         55.83	     8.185
  41.160         48.33	     7.616
  41.180         50.83	     7.810
  41.200         46.67	     7.483
  41.220         56.67	     8.246
  41.240         50.83	     7.810
  41.260         55.00	     8.124
  41.280         58.33	     8.367
  41.300         56.67	     8.246
  41.320         44.17	     7.280
  41.340         55.83	     8.185
  41.360         42.50	     7.141
  41.380         49.17	     7.681
  41.400         55.00	     8.124
  41.420         60.00	     8.485
  41.440         35.83	     6.557
  41.460         52.50	     7.937
  41.480         52.50	     7.937
  41.500         51.67	     7.874
  41.520         45.83	     7.416
  41.540         54.17	     8.062
  41.560         80.00	     9.798
  41.580         74.17	     9.434
  41.600         89.17	    10.344
  41.620         88.33	    10.296
  41.640         83.33	    10.000
  41.660         78.33	     9.695
  41.680         75.83	     9.539
  41.700        108.33	    11.402
  41.720        107.50	    11.358
  41.740         98.33	    10.863
  41.760         96.67	    10.770
  41.780         90.83	    10.440
  41.800         92.50	    10.536
  41.820         70.00	     9.165
  41.840         76.67	     9.592
  41.860        102.50	    11.091
  41.880        103.33	    11.136
  41.900         93.33	    10.583
  41.920         76.67	     9.592
  41.940         82.50	     9.950
  41.960         63.33	     8.718
  41.980         69.17	     9.110
  42.000         70.83	     9.220
  42.020         64.17	     8.775
  42.040         52.50	     7.937
  42.060         85.00	    10.100
  42.080         63.33	     8.718
  42.100         72.50	     9.327
  42.120         65.00	     8.832
  42.140         68.33	     9.055
  42.160         75.83	     9.539
  42.180         98.33	    10.863
  42.200         96.67	    10.770
  42.220         73.33	     9.381
  42.240         99.17	    10.909
  42.260         96.67	    10.770
  42.280        120.83	    12.042
  42.300        171.67	    14.353
  42.320        295.00	    18.815
  42.340        570.83	    26.173
  42.360        782.50	    30.643
  42.380        632.50	    27.550
  42.400        375.00	    21.213
  42.420        273.33	    18.111
  42.440        270.83	    18.028
  42.460        379.17	    21.331
  42.480        404.17	    22.023
  42.500        280.83	    18.358
  42.520        145.83	    13.229
  42.540        105.00	    11.225
  42.560         87.50	    10.247
  42.580         62.50	     8.660
  42.600         67.50	     9.000
  42.620         81.67	     9.899
  42.640         53.33	     8.000
  42.660         53.33	     8.000
  42.680         67.50	     9.000
  42.700         66.67	     8.944
  42.720         67.50	     9.000
  42.740         54.17	     8.062
  42.760         61.67	     8.602
  42.780         66.67	     8.944
  42.800         66.67	     8.944
  42.820         60.00	     8.485
  42.840         60.83	     8.544
  42.860         55.83	     8.185
  42.880         49.17	     7.681
  42.900         54.17	     8.062
  42.920         50.00	     7.746
  42.940         56.67	     8.246
  42.960         47.50	     7.550
  42.980         52.50	     7.937
  43.000         52.50	     7.937
  43.020         52.50	     7.937
  43.040         56.67	     8.246
  43.060         44.17	     7.280
  43.080         56.67	     8.246
  43.100         59.17	     8.426
  43.120         62.50	     8.660
  43.140         63.33	     8.718
  43.160         64.17	     8.775
  43.180         60.00	     8.485
  43.200         72.50	     9.327
  43.220         58.33	     8.367
  43.240         80.00	     9.798
  43.260         67.50	     9.000
  43.280         72.50	     9.327
  43.300         61.67	     8.602
  43.320         78.33	     9.695
  43.340         67.50	     9.000
  43.360         75.83	     9.539
  43.380         73.33	     9.381
  43.400         83.33	    10.000
  43.420         85.83	    10.149
  43.440         85.83	    10.149
  43.460        120.00	    12.000
  43.480        101.67	    11.045
  43.500        103.33	    11.136
  43.520         90.83	    10.440
  43.540         88.33	    10.296
  43.560         95.00	    10.677
  43.580        123.33	    12.166
  43.600        110.83	    11.533
  43.620         97.50	    10.817
  43.640        131.67	    12.570
  43.660         95.83	    10.724
  43.680         92.50	    10.536
  43.700        100.00	    10.954
  43.720        109.17	    11.446
  43.740         75.00	     9.487
  43.760        112.50	    11.619
  43.780        101.67	    11.045
  43.800         78.33	     9.695
  43.820         95.00	    10.677
  43.840         90.00	    10.392
  43.860         94.17	    10.630
  43.880         87.50	    10.247
  43.900         91.67	    10.488
  43.920         91.67	    10.488
  43.940         94.17	    10.630
  43.960         84.17	    10.050
  43.980         93.33	    10.583
  44.000         95.83	    10.724
  44.020         86.67	    10.198
  44.040        106.67	    11.314
  44.060        123.33	    12.166
  44.080        121.67	    12.083
  44.100        135.83	    12.767
  44.120        138.33	    12.884
  44.140        125.83	    12.288
  44.160        162.50	    13.964
  44.180        149.17	    13.379
  44.200        180.00	    14.697
  44.220        169.17	    14.248
  44.240        200.00	    15.492
  44.260        201.67	    15.556
  44.280        207.50	    15.780
  44.300        206.67	    15.748
  44.320        233.33	    16.733
  44.340        268.33	    17.944
  44.360        241.67	    17.029
  44.380        305.83	    19.157
  44.400        267.50	    17.916
  44.420        280.00	    18.330
  44.440        287.50	    18.574
  44.460        265.83	    17.861
  44.480        259.17	    17.635
  44.500        240.83	    17.000
  44.520        267.50	    17.916
  44.540        244.17	    17.117
  44.560        251.67	    17.378
  44.580        248.33	    17.263
  44.600        223.33	    16.371
  44.620        215.00	    16.062
  44.640        194.17	    15.264
  44.660        191.67	    15.166
  44.680        170.00	    14.283
  44.700        174.17	    14.457
  44.720        154.17	    13.601
  44.740        150.83	    13.454
  44.760        142.50	    13.077
  44.780        145.00	    13.191
  44.800        140.00	    12.961
  44.820        133.33	    12.649
  44.840        140.00	    12.961
  44.860        118.33	    11.916
  44.880        120.00	    12.000
  44.900        113.33	    11.662
  44.920        117.50	    11.874
  44.940        124.17	    12.207
  44.960        113.33	    11.662
  44.980        108.33	    11.402
  45.000        109.17	    11.446
  45.020         89.17	    10.344
  45.040        105.00	    11.225
  45.060        102.50	    11.091
  45.080         95.00	    10.677
  45.100         90.83	    10.440
  45.120        111.67	    11.576
  45.140         85.00	    10.100
  45.160         81.67	     9.899
  45.180         98.33	    10.863
  45.200         90.00	    10.392
  45.220         90.00	    10.392
  45.240         95.00	    10.677
  45.260        103.33	    11.136
  45.280        105.83	    11.269
  45.300        129.17	    12.450
  45.320        134.17	    12.689
  45.340        140.83	    13.000
  45.360        171.67	    14.353
  45.380        212.50	    15.969
  45.400        240.83	    17.000
  45.420        259.17	    17.635
  45.440        248.33	    17.263
  45.460        333.33	    20.000
  45.480        304.17	    19.105
  45.500        308.33	    19.235
  45.520        284.17	    18.466
  45.540        257.50	    17.578
  45.560        218.33	    16.186
  45.580        241.67	    17.029
  45.600        205.83	    15.716
  45.620        190.83	    15.133
  45.640        172.50	    14.387
  45.660        144.17	    13.153
  45.680        153.33	    13.565
  45.700        160.83	    13.892
  45.720        117.50	    11.874
  45.740        114.17	    11.705
  45.760         85.00	    10.100
  45.780        100.83	    11.000
  45.800         91.67	    10.488
  45.820        102.50	    11.091
  45.840         86.67	    10.198
  45.860         72.50	     9.327
  45.880         91.67	    10.488
  45.900         74.17	     9.434
  45.920         70.83	     9.220
  45.940         66.67	     8.944
  45.960         61.67	     8.602
  45.980         70.00	     9.165
  46.000         45.00	     7.348
  46.020         63.33	     8.718
  46.040         53.33	     8.000
  46.060         40.83	     7.000
  46.080         55.83	     8.185
  46.100         49.17	     7.681
  46.120         51.67	     7.874
  46.140         52.50	     7.937
  46.160         45.83	     7.416
  46.180         43.33	     7.211
  46.200         53.33	     8.000
  46.220         32.50	     6.245
  46.240         47.50	     7.550
  46.260         53.33	     8.000
  46.280         57.50	     8.307
  46.300         55.00	     8.124
  46.320         46.67	     7.483
  46.340         47.50	     7.550
  46.360         30.83	     6.083
  46.380         44.17	     7.280
  46.400         55.83	     8.185
  46.420         43.33	     7.211
  46.440         41.67	     7.071
  46.460         41.67	     7.071
  46.480         41.67	     7.071
  46.500         41.67	     7.071
  46.520         41.67	     7.071
  46.540         39.17	     6.856
  46.560         35.00	     6.481
  46.580         49.17	     7.681
  46.600         36.67	     6.633
  46.620         30.83	     6.083
  46.640         35.83	     6.557
  46.660         36.67	     6.633
  46.680         45.00	     7.348
  46.700         42.50	     7.141
  46.720         35.83	     6.557
  46.740         35.83	     6.557
  46.760         37.50	     6.708
  46.780         42.50	     7.141
  46.800         37.50	     6.708
  46.820         44.17	     7.280
  46.840         34.17	     6.403
  46.860         41.67	     7.071
  46.880         42.50	     7.141
  46.900         37.50	     6.708
  46.920         48.33	     7.616
  46.940         47.50	     7.550
  46.960         50.00	     7.746
  46.980         60.00	     8.485
  47.000         49.17	     7.681
  47.020         50.00	     7.746
  47.040         46.67	     7.483
  47.060         61.67	     8.602
  47.080         54.17	     8.062
  47.100         63.33	     8.718
  47.120         46.67	     7.483
  47.140         59.17	     8.426
  47.160         47.50	     7.550
  47.180         44.17	     7.280
  47.200         42.50	     7.141
  47.220         36.67	     6.633
  47.240         43.33	     7.211
  47.260         37.50	     6.708
  47.280         36.67	     6.633
  47.300         36.67	     6.633
  47.320         37.50	     6.708
  47.340         28.33	     5.831
  47.360         30.00	     6.000
  47.380         45.83	     7.416
  47.400         37.50	     6.708
  47.420         46.67	     7.483
  47.440         32.50	     6.245
  47.460         30.00	     6.000
  47.480         45.83	     7.416
  47.500         45.00	     7.348
  47.520         48.33	     7.616
  47.540         34.17	     6.403
  47.560         32.50	     6.245
  47.580         36.67	     6.633
  47.600         38.33	     6.782
  47.620         35.00	     6.481
  47.640         32.50	     6.245
  47.660         34.17	     6.403
  47.680         40.83	     7.000
  47.700         39.17	     6.856
  47.720         32.50	     6.245
  47.740         41.67	     7.071
  47.760         40.83	     7.000
  47.780         36.67	     6.633
  47.800         32.50	     6.245
  47.820         45.83	     7.416
  47.840         51.67	     7.874
  47.860         45.83	     7.416
  47.880         48.33	     7.616
  47.900         43.33	     7.211
  47.920         40.83	     7.000
  47.940         42.50	     7.141
  47.960         52.50	     7.937
  47.980         54.17	     8.062
  48.000         42.50	     7.141
  48.020         57.50	     8.307
  48.040         46.67	     7.483
  48.060         60.83	     8.544
  48.080         50.00	     7.746
  48.100         46.67	     7.483
  48.120         60.83	     8.544
  48.140         55.00	     8.124
  48.160         60.83	     8.544
  48.180         48.33	     7.616
  48.200         56.67	     8.246
  48.220         64.17	     8.775
  48.240         63.33	     8.718
  48.260         67.50	     9.000
  48.280         42.50	     7.141
  48.300         56.67	     8.246
  48.320         51.67	     7.874
  48.340         50.83	     7.810
  48.360         55.00	     8.124
  48.380         42.50	     7.141
  48.400         44.17	     7.280
  48.420         54.17	     8.062
  48.440         49.17	     7.681
  48.460         46.67	     7.483
  48.480         40.83	     7.000
  48.500         49.17	     7.681
  48.520         40.83	     7.000
  48.540         56.67	     8.246
  48.560         44.17	     7.280
  48.580         51.67	     7.874
  48.600         44.17	     7.280
  48.620         47.50	     7.550
  48.640         39.17	     6.856
  48.660         55.83	     8.185
  48.680         52.50	     7.937
  48.700         47.50	     7.550
  48.720         43.33	     7.211
  48.740         45.83	     7.416
  48.760         58.33	     8.367
  48.780         46.67	     7.483
  48.800         45.00	     7.348
  48.820         44.17	     7.280
  48.840         51.67	     7.874
  48.860         50.00	     7.746
  48.880         47.50	     7.550
  48.900         39.17	     6.856
  48.920         35.83	     6.557
  48.940         54.17	     8.062
  48.960         45.83	     7.416
  48.980         35.83	     6.557
  49.000         45.83	     7.416
  49.020         34.17	     6.403
  49.040         39.17	     6.856
  49.060         50.83	     7.810
  49.080         47.50	     7.550
  49.100         59.17	     8.426
  49.120         75.00	     9.487
  49.140         65.83	     8.888
  49.160         53.33	     8.000
  49.180         50.83	     7.810
  49.200         60.83	     8.544
  49.220         43.33	     7.211
  49.240         55.83	     8.185
  49.260         55.00	     8.124
  49.280         45.00	     7.348
  49.300         57.50	     8.307
  49.320         38.33	     6.782
  49.340         43.33	     7.211
  49.360         49.17	     7.681
  49.380         53.33	     8.000
  49.400         53.33	     8.000
  49.420         41.67	     7.071
  49.440         47.50	     7.550
  49.460         36.67	     6.633
  49.480         48.33	     7.616
  49.500         51.67	     7.874
  49.520         53.33	     8.000
  49.540         50.83	     7.810
  49.560         53.33	     8.000
  49.580         50.83	     7.810
  49.600         56.67	     8.246
  49.620         60.00	     8.485
  49.640         50.00	     7.746
  49.660         63.33	     8.718
  49.680         80.83	     9.849
  49.700         64.17	     8.775
  49.720         64.17	     8.775
  49.740         67.50	     9.000
  49.760         70.00	     9.165
  49.780         70.83	     9.220
  49.800         67.50	     9.000
  49.820         64.17	     8.775
  49.840         74.17	     9.434
  49.860         78.33	     9.695
  49.880         79.17	     9.747
  49.900         74.17	     9.434
  49.920         82.50	     9.950
  49.940         69.17	     9.110
  49.960        105.83	    11.269
  49.980        125.83	    12.288
  50.000        186.67	    14.967
  50.020        230.00	    16.613
  50.040        359.17	    20.761
  50.060        430.00	    22.716
  50.080        390.00	    21.633
  50.100        250.83	    17.349
  50.120        166.67	    14.142
  50.140        135.00	    12.728
  50.160        185.00	    14.900
  50.180        232.50	    16.703
  50.200        253.33	    17.436
  50.220        192.50	    15.199
  50.240        140.83	    13.000
  50.260         77.50	     9.644
  50.280         73.33	     9.381
  50.300         75.00	     9.487
  50.320         52.50	     7.937
  50.340         56.67	     8.246
  50.360         54.17	     8.062
  50.380         47.50	     7.550
  50.400         53.33	     8.000
  50.420         71.67	     9.274
  50.440         54.17	     8.062
  50.460         55.83	     8.185
  50.480         70.00	     9.165
  50.500         66.67	     8.944
  50.520         78.33	     9.695
  50.540         76.67	     9.592
  50.560         72.50	     9.327
  50.580         58.33	     8.367
  50.600         71.67	     9.274
  50.620         84.17	    10.050
  50.640         92.50	    10.536
  50.660         69.17	     9.110
  50.680         65.83	     8.888
  50.700         58.33	     8.367
  50.720         52.50	     7.937
  50.740         60.83	     8.544
  50.760         62.50	     8.660
  50.780         52.50	     7.937
  50.800         75.00	     9.487
  50.820         58.33	     8.367
  50.840         47.50	     7.550
  50.860         45.83	     7.416
  50.880         48.33	     7.616
  50.900         46.67	     7.483
  50.920         76.67	     9.592
  50.940         55.83	     8.185
  50.960         78.33	     9.695
  50.980        100.83	    11.000
  51.000        160.00	    13.856
  51.020        260.83	    17.692
  51.040        397.50	    21.840
  51.060        288.33	    18.601
  51.080        175.83	    14.526
  51.100        118.33	    11.916
  51.120         90.83	    10.440
  51.140        105.83	    11.269
  51.160        175.83	    14.526
  51.180        240.83	    17.000
  51.200        190.00	    15.100
  51.220        102.50	    11.091
  51.240         76.67	     9.592
  51.260         60.83	     8.544
  51.280         55.00	     8.124
  51.300         52.50	     7.937
  51.320         46.67	     7.483
  51.340         39.17	     6.856
  51.360         41.67	     7.071
  51.380         46.67	     7.483
  51.400         45.00	     7.348
  51.420         40.83	     7.000
  51.440         49.17	     7.681
  51.460         44.17	     7.280
  51.480         34.17	     6.403
  51.500         40.83	     7.000
  51.520         35.00	     6.481
  51.540         35.83	     6.557
  51.560         20.83	     5.000
  51.580         29.17	     5.916
  51.600         25.00	     5.477
  51.620         34.17	     6.403
  51.640         38.33	     6.782
  51.660         30.00	     6.000
  51.680         34.17	     6.403
  51.700         48.33	     7.616
  51.720         26.67	     5.657
  51.740         35.00	     6.481
  51.760         37.50	     6.708
  51.780         31.67	     6.164
  51.800         27.50	     5.745
  51.820         29.17	     5.916
  51.840         33.33	     6.325
  51.860         35.00	     6.481
  51.880         32.50	     6.245
  51.900         33.33	     6.325
  51.920         35.00	     6.481
  51.940         42.50	     7.141
  51.960         40.00	     6.928
  51.980         43.33	     7.211
  52.000         40.83	     7.000
  52.020         56.67	     8.246
  52.040         48.33	     7.616
  52.060         49.17	     7.681
  52.080         45.83	     7.416
  52.100         42.50	     7.141
  52.120         50.83	     7.810
  52.140         52.50	     7.937
  52.160         36.67	     6.633
  52.180         38.33	     6.782
  52.200         52.50	     7.937
  52.220         48.33	     7.616
  52.240         39.17	     6.856
  52.260         68.33	     9.055
  52.280         44.17	     7.280
  52.300         50.83	     7.810
  52.320         50.83	     7.810
  52.340         78.33	     9.695
  52.360         76.67	     9.592
  52.380         67.50	     9.000
  52.400         62.50	     8.660
  52.420         61.67	     8.602
  52.440         55.83	     8.185
  52.460         66.67	     8.944
  52.480         57.50	     8.307
  52.500         59.17	     8.426
  52.520         58.33	     8.367
  52.540         58.33	     8.367
  52.560         65.00	     8.832
  52.580         44.17	     7.280
  52.600         48.33	     7.616
  52.620         46.67	     7.483
  52.640         46.67	     7.483
  52.660         40.83	     7.000
  52.680         49.17	     7.681
  52.700         45.00	     7.348
  52.720         37.50	     6.708
  52.740         43.33	     7.211
  52.760         47.50	     7.550
  52.780         54.17	     8.062
  52.800         48.33	     7.616
  52.820         41.67	     7.071
  52.840         44.17	     7.280
  52.860         52.50	     7.937
  52.880         45.00	     7.348
  52.900         47.50	     7.550
  52.920         41.67	     7.071
  52.940         39.17	     6.856
  52.960         58.33	     8.367
  52.980         40.83	     7.000
  53.000         51.67	     7.874
  53.020         40.83	     7.000
  53.040         49.17	     7.681
  53.060         50.00	     7.746
  53.080         55.00	     8.124
  53.100         53.33	     8.000
  53.120         59.17	     8.426
  53.140         56.67	     8.246
  53.160         56.67	     8.246
  53.180         34.17	     6.403
  53.200         58.33	     8.367
  53.220         55.83	     8.185
  53.240         52.50	     7.937
  53.260         47.50	     7.550
  53.280         56.67	     8.246
  53.300         52.50	     7.937
  53.320         42.50	     7.141
  53.340         40.00	     6.928
  53.360         50.83	     7.810
  53.380         46.67	     7.483
  53.400         39.17	     6.856
  53.420         34.17	     6.403
  53.440         35.00	     6.481
  53.460         33.33	     6.325
  53.480         39.17	     6.856
  53.500         54.17	     8.062
  53.520         31.67	     6.164
  53.540         27.50	     5.745
  53.560         30.83	     6.083
  53.580         44.17	     7.280
  53.600         41.67	     7.071
  53.620         35.83	     6.557
  53.640         45.83	     7.416
  53.660         40.83	     7.000
  53.680         40.00	     6.928
  53.700         33.33	     6.325
  53.720         41.67	     7.071
  53.740         39.17	     6.856
  53.760         36.67	     6.633
  53.780         33.33	     6.325
  53.800         44.17	     7.280
  53.820         40.83	     7.000
  53.840         30.00	     6.000
  53.860         45.00	     7.348
  53.880         31.67	     6.164
  53.900         37.50	     6.708
  53.920         39.17	     6.856
  53.940         37.50	     6.708
  53.960         40.00	     6.928
  53.980         44.17	     7.280
  54.000         37.50	     6.708
  54.020         35.00	     6.481
  54.040         37.50	     6.708
  54.060         38.33	     6.782
  54.080         34.17	     6.403
  54.100         37.50	     6.708
  54.120         49.17	     7.681
  54.140         46.67	     7.483
  54.160         40.00	     6.928
  54.180         43.33	     7.211
  54.200         47.50	     7.550
  54.220         53.33	     8.000
  54.240         60.83	     8.544
  54.260         45.00	     7.348
  54.280         56.67	     8.246
  54.300         53.33	     8.000
  54.320         45.00	     7.348
  54.340         41.67	     7.071
  54.360         44.17	     7.280
  54.380         45.83	     7.416
  54.400         45.00	     7.348
  54.420         47.50	     7.550
  54.440         43.33	     7.211
  54.460         42.50	     7.141
  54.480         50.00	     7.746
  54.500         45.00	     7.348
  54.520         45.83	     7.416
  54.540         55.00	     8.124
  54.560         54.17	     8.062
  54.580         58.33	     8.367
  54.600         45.83	     7.416
  54.620         45.83	     7.416
  54.640         52.50	     7.937
  54.660         56.67	     8.246
  54.680         34.17	     6.403
  54.700         65.00	     8.832
  54.720         75.83	     9.539
  54.740        118.33	    11.916
  54.760        150.00	    13.416
  54.780        205.83	    15.716
  54.800        207.50	    15.780
  54.820        171.67	    14.353
  54.840        120.00	    12.000
  54.860        115.00	    11.747
  54.880        109.17	    11.446
  54.900        107.50	    11.358
  54.920        115.83	    11.790
  54.940        123.33	    12.166
  54.960        125.83	    12.288
  54.980         90.00	    10.392
  55.000         85.83	    10.149
  55.020         70.83	     9.220
  55.040         67.50	     9.000
  55.060         69.17	     9.110
  55.080         50.83	     7.810
  55.100         51.67	     7.874
  55.120         59.17	     8.426
  55.140         62.50	     8.660
  55.160         58.33	     8.367
  55.180         66.67	     8.944
  55.200         70.00	     9.165
  55.220         87.50	    10.247
  55.240         90.83	    10.440
  55.260         85.00	    10.100
  55.280         81.67	     9.899
  55.300         73.33	     9.381
  55.320         67.50	     9.000
  55.340         63.33	     8.718
  55.360         60.00	     8.485
  55.380         58.33	     8.367
  55.400         70.83	     9.220
  55.420         77.50	     9.644
  55.440         69.17	     9.110
  55.460         69.17	     9.110
  55.480         65.83	     8.888
  55.500         45.00	     7.348
  55.520         68.33	     9.055
  55.540         45.00	     7.348
  55.560         64.17	     8.775
  55.580         65.83	     8.888
  55.600         68.33	     9.055
  55.620         79.17	     9.747
  55.640         57.50	     8.307
  55.660         53.33	     8.000
  55.680         80.00	     9.798
  55.700         94.17	    10.630
  55.720         79.17	     9.747
  55.740         77.50	     9.644
  55.760         80.00	     9.798
  55.780         88.33	    10.296
  55.800         83.33	    10.000
  55.820         82.50	     9.950
  55.840         90.00	    10.392
  55.860         68.33	     9.055
  55.880         80.00	     9.798
  55.900         73.33	     9.381
  55.920         44.17	     7.280
  55.940         62.50	     8.660
  55.960         48.33	     7.616
  55.980         58.33	     8.367
  56.000         50.83	     7.810
  56.020         46.67	     7.483
  56.040         48.33	     7.616
  56.060         43.33	     7.211
  56.080         51.67	     7.874
  56.100         43.33	     7.211
  56.120         49.17	     7.681
  56.140         51.67	     7.874
  56.160         45.00	     7.348
  56.180         37.50	     6.708
  56.200         42.50	     7.141
  56.220         65.00	     8.832
  56.240         48.33	     7.616
  56.260         45.83	     7.416
  56.280         51.67	     7.874
  56.300         41.67	     7.071
  56.320         38.33	     6.782
  56.340         39.17	     6.856
  56.360         32.50	     6.245
  56.380         44.17	     7.280
  56.400         37.50	     6.708
  56.420         28.33	     5.831
  56.440         47.50	     7.550
  56.460         42.50	     7.141
  56.480         48.33	     7.616
  56.500         43.33	     7.211
  56.520         45.83	     7.416
  56.540         47.50	     7.550
  56.560         57.50	     8.307
  56.580         65.00	     8.832
  56.600         45.83	     7.416
  56.620         46.67	     7.483
  56.640         43.33	     7.211
  56.660         39.17	     6.856
  56.680         59.17	     8.426
  56.700         38.33	     6.782
  56.720         52.50	     7.937
  56.740         60.00	     8.485
  56.760         50.00	     7.746
  56.780         51.67	     7.874
  56.800         50.83	     7.810
  56.820         62.50	     8.660
  56.840         65.00	     8.832
  56.860         85.00	    10.100
  56.880         56.67	     8.246
  56.900         52.50	     7.937
  56.920         43.33	     7.211
  56.940         47.50	     7.550
  56.960         41.67	     7.071
  56.980         48.33	     7.616
  57.000         53.33	     8.000
  57.020         54.17	     8.062
  57.040         59.17	     8.426
  57.060         41.67	     7.071
  57.080         40.83	     7.000
  57.100         40.00	     6.928
  57.120         30.83	     6.083
  57.140         51.67	     7.874
  57.160         50.83	     7.810
  57.180         35.00	     6.481
  57.200         49.17	     7.681
  57.220         41.67	     7.071
  57.240         41.67	     7.071
  57.260         34.17	     6.403
  57.280         45.83	     7.416
  57.300         38.33	     6.782
  57.320         39.17	     6.856
  57.340         42.50	     7.141
  57.360         39.17	     6.856
  57.380         35.83	     6.557
  57.400         30.00	     6.000
  57.420         37.50	     6.708
  57.440         36.67	     6.633
  57.460         38.33	     6.782
  57.480         40.83	     7.000
  57.500         39.17	     6.856
  57.520         42.50	     7.141
  57.540         40.00	     6.928
  57.560         29.17	     5.916
  57.580         38.33	     6.782
  57.600         44.17	     7.280
  57.620         39.17	     6.856
  57.640         40.83	     7.000
  57.660         49.17	     7.681
  57.680         44.17	     7.280
  57.700         35.00	     6.481
  57.720         38.33	     6.782
  57.740         43.33	     7.211
  57.760         47.50	     7.550
  57.780         52.50	     7.937
  57.800         69.17	     9.110
  57.820         56.67	     8.246
  57.840         53.33	     8.000
  57.860         55.00	     8.124
  57.880         50.83	     7.810
  57.900         53.33	     8.000
  57.920         46.67	     7.483
  57.940         56.67	     8.246
  57.960         56.67	     8.246
  57.980         62.50	     8.660
  58.000         55.00	     8.124
  58.020         68.33	     9.055
  58.040         77.50	     9.644
  58.060         84.17	    10.050
  58.080         73.33	     9.381
  58.100         63.33	     8.718
  58.120         56.67	     8.246
  58.140         49.17	     7.681
  58.160         54.17	     8.062
  58.180         46.67	     7.483
  58.200         40.83	     7.000
  58.220         60.83	     8.544
  58.240         45.83	     7.416
  58.260         52.50	     7.937
  58.280         51.67	     7.874
  58.300         39.17	     6.856
  58.320         36.67	     6.633
  58.340         55.00	     8.124
  58.360         41.67	     7.071
  58.380         39.17	     6.856
  58.400         40.83	     7.000
  58.420         40.00	     6.928
  58.440         51.67	     7.874
  58.460         52.50	     7.937
  58.480         48.33	     7.616
  58.500         45.83	     7.416
  58.520         43.33	     7.211
  58.540         46.67	     7.483
  58.560         55.83	     8.185
  58.580         43.33	     7.211
  58.600         61.67	     8.602
  58.620         64.17	     8.775
  58.640         44.17	     7.280
  58.660         54.17	     8.062
  58.680         63.33	     8.718
  58.700         48.33	     7.616
  58.720         51.67	     7.874
  58.740         54.17	     8.062
  58.760         50.83	     7.810
  58.780         57.50	     8.307
  58.800         56.67	     8.246
  58.820         60.83	     8.544
  58.840         48.33	     7.616
  58.860         55.00	     8.124
  58.880         53.33	     8.000
  58.900         55.83	     8.185
  58.920         49.17	     7.681
  58.940         62.50	     8.660
  58.960         51.67	     7.874
  58.980         48.33	     7.616
  59.000         56.67	     8.246
  59.020         47.50	     7.550
  59.040         74.17	     9.434
  59.060         55.00	     8.124
  59.080         45.83	     7.416
  59.100         69.17	     9.110
  59.120         58.33	     8.367
  59.140         61.67	     8.602
  59.160         55.00	     8.124
  59.180         53.33	     8.000
  59.200         45.00	     7.348
  59.220         50.83	     7.810
  59.240         54.17	     8.062
  59.260         60.00	     8.485
  59.280         52.50	     7.937
  59.300         45.00	     7.348
  59.320         47.50	     7.550
  59.340         45.00	     7.348
  59.360         49.17	     7.681
  59.380         48.33	     7.616
  59.400         35.00	     6.481
  59.420         35.00	     6.481
  59.440         40.00	     6.928
  59.460         42.50	     7.141
  59.480         50.83	     7.810
  59.500         50.83	     7.810
  59.520         49.17	     7.681
  59.540         47.50	     7.550
  59.560         43.33	     7.211
  59.580         56.67	     8.246
  59.600         57.50	     8.307
  59.620         54.17	     8.062
  59.640         47.50	     7.550
  59.660         51.67	     7.874
  59.680         51.67	     7.874
  59.700         48.33	     7.616
  59.720         55.83	     8.185
  59.740         60.83	     8.544
  59.760         80.83	     9.849
  59.780         84.17	    10.050
  59.800        101.67	    11.045
  59.820        133.33	    12.649
  59.840        188.33	    15.033
  59.860        220.00	    16.248
  59.880        251.67	    17.378
  59.900        223.33	    16.371
  59.920        167.50	    14.177
  59.940        134.17	    12.689
  59.960        129.17	    12.450
  59.980        114.17	    11.705
  60.000        140.83	    13.000
  60.020        166.67	    14.142
  60.040        149.17	    13.379
  60.060        144.17	    13.153
  60.080        109.17	    11.446
  60.100        100.00	    10.954
  60.120         85.00	    10.100
  60.140         72.50	     9.327
  60.160         51.67	     7.874
  60.180         70.83	     9.220
  60.200         67.50	     9.000
  60.220         66.67	     8.944
  60.240         51.67	     7.874
  60.260         49.17	     7.681
  60.280         61.67	     8.602
  60.300         60.00	     8.485
  60.320         49.17	     7.681
  60.340         50.83	     7.810
  60.360         50.83	     7.810
  60.380         54.17	     8.062
  60.400         50.83	     7.810
  60.420         50.00	     7.746
  60.440         55.00	     8.124
  60.460         54.17	     8.062
  60.480         52.50	     7.937
  60.500         45.00	     7.348
  60.520         44.17	     7.280
  60.540         54.17	     8.062
  60.560         50.00	     7.746
  60.580         41.67	     7.071
  60.600         55.83	     8.185
  60.620         60.00	     8.485
  60.640         44.17	     7.280
  60.660         45.83	     7.416
  60.680         62.50	     8.660
  60.700         60.83	     8.544
  60.720         50.83	     7.810
  60.740         70.00	     9.165
  60.760         55.83	     8.185
  60.780         63.33	     8.718
  60.800         74.17	     9.434
  60.820         57.50	     8.307
  60.840         74.17	     9.434
  60.860         81.67	     9.899
  60.880         64.17	     8.775
  60.900         49.17	     7.681
  60.920         51.67	     7.874
  60.940         61.67	     8.602
  60.960         47.50	     7.550
  60.980         42.50	     7.141
  61.000         62.50	     8.660
  61.020         72.50	     9.327
  61.040         61.67	     8.602
  61.060         43.33	     7.211
  61.080         45.83	     7.416
  61.100         48.33	     7.616
  61.120         45.00	     7.348
  61.140         50.83	     7.810
  61.160         55.83	     8.185
  61.180         46.67	     7.483
  61.200         43.33	     7.211
  61.220         53.33	     8.000
  61.240         51.67	     7.874
  61.260         65.83	     8.888
  61.280         60.83	     8.544
  61.300         55.00	     8.124
  61.320         64.17	     8.775
  61.340         68.33	     9.055
  61.360         70.00	     9.165
  61.380         63.33	     8.718
  61.400         65.83	     8.888
  61.420         66.67	     8.944
  61.440         75.00	     9.487
  61.460         65.00	     8.832
  61.480         87.50	    10.247
  61.500         57.50	     8.307
  61.520         65.83	     8.888
  61.540         65.00	     8.832
  61.560         84.17	    10.050
  61.580         75.00	     9.487
  61.600        100.00	    10.954
  61.620         95.83	    10.724
  61.640         88.33	    10.296
  61.660        107.50	    11.358
  61.680         74.17	     9.434
  61.700         61.67	     8.602
  61.720         65.83	     8.888
  61.740         73.33	     9.381
  61.760         56.67	     8.246
  61.780         77.50	     9.644
  61.800         79.17	     9.747
  61.820         94.17	    10.630
  61.840         75.00	     9.487
  61.860         59.17	     8.426
  61.880         52.50	     7.937
  61.900         60.00	     8.485
  61.920         50.00	     7.746
  61.940         45.83	     7.416
  61.960         52.50	     7.937
  61.980         44.17	     7.280
  62.000         48.33	     7.616
  62.020         59.17	     8.426
  62.040         51.67	     7.874
  62.060         50.00	     7.746
  62.080         46.67	     7.483
  62.100         26.67	     5.657
  62.120         50.83	     7.810
  62.140         43.33	     7.211
  62.160         41.67	     7.071
  62.180         45.00	     7.348
  62.200         38.33	     6.782
  62.220         39.17	     6.856
  62.240         45.83	     7.416
  62.260         39.17	     6.856
  62.280         33.33	     6.325
  62.300         46.67	     7.483
  62.320         47.50	     7.550
  62.340         44.17	     7.280
  62.360         35.00	     6.481
  62.380         40.83	     7.000
  62.400         39.17	     6.856
  62.420         44.17	     7.280
  62.440         45.00	     7.348
  62.460         38.33	     6.782
  62.480         40.83	     7.000
  62.500         34.17	     6.403
  62.520         43.33	     7.211
  62.540         35.00	     6.481
  62.560         43.33	     7.211
  62.580         55.00	     8.124
  62.600         50.83	     7.810
  62.620         46.67	     7.483
  62.640         45.83	     7.416
  62.660         44.17	     7.280
  62.680         45.00	     7.348
  62.700         51.67	     7.874
  62.720         41.67	     7.071
  62.740         33.33	     6.325
  62.760         41.67	     7.071
  62.780         36.67	     6.633
  62.800         43.33	     7.211
  62.820         46.67	     7.483
  62.840         38.33	     6.782
  62.860         39.17	     6.856
  62.880         35.00	     6.481
  62.900         41.67	     7.071
  62.920         41.67	     7.071
  62.940         42.50	     7.141
  62.960         36.67	     6.633
  62.980         38.33	     6.782
  63.000         39.17	     6.856
  63.020         43.33	     7.211
  63.040         44.17	     7.280
  63.060         36.67	     6.633
  63.080         35.00	     6.481
  63.100         43.33	     7.211
  63.120         48.33	     7.616
  63.140         53.33	     8.000
  63.160         49.17	     7.681
  63.180         40.00	     6.928
  63.200         40.00	     6.928
  63.220         38.33	     6.782
  63.240         35.00	     6.481
  63.260         40.83	     7.000
  63.280         45.83	     7.416
  63.300         41.67	     7.071
  63.320         38.33	     6.782
  63.340         63.33	     8.718
  63.360         67.50	     9.000
  63.380         90.00	    10.392
  63.400         87.50	    10.247
  63.420         79.17	     9.747
  63.440         63.33	     8.718
  63.460         49.17	     7.681
  63.480         45.83	     7.416
  63.500         40.83	     7.000
  63.520         56.67	     8.246
  63.540         61.67	     8.602
  63.560         62.50	     8.660
  63.580         58.33	     8.367
  63.600         55.83	     8.185
  63.620         46.67	     7.483
  63.640         42.50	     7.141
  63.660         32.50	     6.245
  63.680         54.17	     8.062
  63.700         43.33	     7.211
  63.720         45.00	     7.348
  63.740         58.33	     8.367
  63.760         47.50	     7.550
  63.780         53.33	     8.000
  63.800         57.50	     8.307
  63.820         65.83	     8.888
  63.840         53.33	     8.000
  63.860         60.00	     8.485
  63.880         72.50	     9.327
  63.900         78.33	     9.695
  63.920        101.67	    11.045
  63.940        118.33	    11.916
  63.960         95.83	    10.724
  63.980        103.33	    11.136
  64.000         90.00	    10.392
  64.020         80.00	     9.798
  64.040         64.17	     8.775
  64.060         68.33	     9.055
  64.080         67.50	     9.000
  64.100         78.33	     9.695
  64.120         80.83	     9.849
  64.140         78.33	     9.695
  64.160         65.00	     8.832
  64.180         69.17	     9.110
  64.200         59.17	     8.426
  64.220         66.67	     8.944
  64.240         52.50	     7.937
  64.260         61.67	     8.602
  64.280         52.50	     7.937
  64.300         54.17	     8.062
  64.320         51.67	     7.874
  64.340         54.17	     8.062
  64.360         48.33	     7.616
  64.380         43.33	     7.211
  64.400         30.83	     6.083
  64.420         49.17	     7.681
  64.440         48.33	     7.616
  64.460         43.33	     7.211
  64.480         52.50	     7.937
  64.500         49.17	     7.681
  64.520         50.00	     7.746
  64.540         55.00	     8.124
  64.560         50.00	     7.746
  64.580         47.50	     7.550
  64.600         49.17	     7.681
  64.620         45.00	     7.348
  64.640         47.50	     7.550
  64.660         45.83	     7.416
  64.680         59.17	     8.426
  64.700         60.83	     8.544
  64.720         55.83	     8.185
  64.740         65.83	     8.888
  64.760         65.83	     8.888
  64.780         58.33	     8.367
  64.800         53.33	     8.000
  64.820         55.83	     8.185
  64.840         47.50	     7.550
  64.860         51.67	     7.874
  64.880         43.33	     7.211
  64.900         62.50	     8.660
  64.920         42.50	     7.141
  64.940         60.00	     8.485
  64.960         52.50	     7.937
  64.980         54.17	     8.062
  65.000         57.50	     8.307
