
Filename:
	C:\Program Files\Thermo Electron\WinXRD\Datafiles\F_HERMAN\GEO\G27_RT.raw

File Created:
	February 21, 2020 - 07:34 PM

Specimen Id:
	G27_RT

Specimen Name:
	

Specimen Description:
	

Comment:
Scan Type: 2Theta Scan
Start Angle: 3 deg.
Stop Angle: 65 deg.
Num Points: 3101
Step Size: 0.02 deg.
Scan Rate: 1.000000
Scan Mode: Continuous
Wavelength: 1.540562
\Kalpha1: 1.540562	\Kalpha2: 1.544390	\Kbeta: 1.392218

Optics:
		Detector:
			 Type: Fixed Slits
		Tube: 
			 Type: Fixed Slits


Datas:
 Pos [deg]       Rate [CPS]      ESD [-]

Range 1 ---> Iteration 1
   3.000        447.50	    23.173
   3.020        472.50	    23.812
   3.040        453.33	    23.324
   3.060        470.83	    23.770
   3.080        442.50	    23.043
   3.100        471.67	    23.791
   3.120        452.50	    23.302
   3.140        415.00	    22.316
   3.160        452.50	    23.302
   3.180        427.50	    22.650
   3.200        432.50	    22.782
   3.220        440.00	    22.978
   3.240        405.00	    22.045
   3.260        424.17	    22.561
   3.280        423.33	    22.539
   3.300        399.17	    21.886
   3.320        400.83	    21.932
   3.340        402.50	    21.977
   3.360        384.17	    21.471
   3.380        429.17	    22.694
   3.400        415.83	    22.338
   3.420        399.17	    21.886
   3.440        391.67	    21.679
   3.460        379.17	    21.331
   3.480        383.33	    21.448
   3.500        351.67	    20.543
   3.520        379.17	    21.331
   3.540        388.33	    21.587
   3.560        385.83	    21.517
   3.580        365.00	    20.928
   3.600        366.67	    20.976
   3.620        364.17	    20.905
   3.640        345.00	    20.347
   3.660        362.50	    20.857
   3.680        349.17	    20.469
   3.700        356.67	    20.688
   3.720        360.83	    20.809
   3.740        370.00	    21.071
   3.760        338.33	    20.149
   3.780        341.67	    20.248
   3.800        372.50	    21.142
   3.820        370.00	    21.071
   3.840        355.83	    20.664
   3.860        341.67	    20.248
   3.880        321.67	    19.647
   3.900        313.33	    19.391
   3.920        360.00	    20.785
   3.940        317.50	    19.519
   3.960        299.17	    18.947
   3.980        373.33	    21.166
   4.000        300.83	    19.000
   4.020        338.33	    20.149
   4.040        301.67	    19.026
   4.060        295.83	    18.841
   4.080        319.17	    19.570
   4.100        295.00	    18.815
   4.120        318.33	    19.545
   4.140        302.50	    19.053
   4.160        294.17	    18.788
   4.180        312.50	    19.365
   4.200        314.17	    19.416
   4.220        295.83	    18.841
   4.240        300.00	    18.974
   4.260        300.83	    19.000
   4.280        317.50	    19.519
   4.300        304.17	    19.105
   4.320        282.50	    18.412
   4.340        290.83	    18.682
   4.360        302.50	    19.053
   4.380        263.33	    17.776
   4.400        278.33	    18.276
   4.420        322.50	    19.672
   4.440        282.50	    18.412
   4.460        290.00	    18.655
   4.480        273.33	    18.111
   4.500        278.33	    18.276
   4.520        285.00	    18.493
   4.540        275.83	    18.193
   4.560        277.50	    18.248
   4.580        263.33	    17.776
   4.600        290.83	    18.682
   4.620        274.17	    18.138
   4.640        277.50	    18.248
   4.660        262.50	    17.748
   4.680        272.50	    18.083
   4.700        281.67	    18.385
   4.720        270.83	    18.028
   4.740        265.00	    17.833
   4.760        258.33	    17.607
   4.780        274.17	    18.138
   4.800        265.00	    17.833
   4.820        280.00	    18.330
   4.840        276.67	    18.221
   4.860        258.33	    17.607
   4.880        253.33	    17.436
   4.900        262.50	    17.748
   4.920        247.50	    17.234
   4.940        271.67	    18.055
   4.960        230.83	    16.643
   4.980        265.83	    17.861
   5.000        255.83	    17.521
   5.020        222.50	    16.340
   5.040        240.83	    17.000
   5.060        273.33	    18.111
   5.080        257.50	    17.578
   5.100        252.50	    17.407
   5.120        227.50	    16.523
   5.140        225.83	    16.462
   5.160        261.67	    17.720
   5.180        254.17	    17.464
   5.200        230.83	    16.643
   5.220        247.50	    17.234
   5.240        233.33	    16.733
   5.260        246.67	    17.205
   5.280        233.33	    16.733
   5.300        204.17	    15.652
   5.320        222.50	    16.340
   5.340        238.33	    16.912
   5.360        217.50	    16.155
   5.380        262.50	    17.748
   5.400        220.83	    16.279
   5.420        215.00	    16.062
   5.440        234.17	    16.763
   5.460        239.17	    16.941
   5.480        230.83	    16.643
   5.500        259.17	    17.635
   5.520        228.33	    16.553
   5.540        235.83	    16.823
   5.560        240.00	    16.971
   5.580        216.67	    16.125
   5.600        225.83	    16.462
   5.620        206.67	    15.748
   5.640        232.50	    16.703
   5.660        236.67	    16.852
   5.680        244.17	    17.117
   5.700        245.83	    17.176
   5.720        230.00	    16.613
   5.740        241.67	    17.029
   5.760        250.00	    17.321
   5.780        246.67	    17.205
   5.800        231.67	    16.673
   5.820        260.83	    17.692
   5.840        284.17	    18.466
   5.860        274.17	    18.138
   5.880        275.83	    18.193
   5.900        287.50	    18.574
   5.920        335.00	    20.050
   5.940        312.50	    19.365
   5.960        335.83	    20.075
   5.980        305.00	    19.131
   6.000        270.00	    18.000
   6.020        260.83	    17.692
   6.040        274.17	    18.138
   6.060        303.33	    19.079
   6.080        302.50	    19.053
   6.100        323.33	    19.698
   6.120        369.17	    21.048
   6.140        315.83	    19.468
   6.160        305.83	    19.157
   6.180        262.50	    17.748
   6.200        245.00	    17.146
   6.220        234.17	    16.763
   6.240        225.83	    16.462
   6.260        227.50	    16.523
   6.280        217.50	    16.155
   6.300        216.67	    16.125
   6.320        227.50	    16.523
   6.340        224.17	    16.401
   6.360        215.00	    16.062
   6.380        199.17	    15.460
   6.400        228.33	    16.553
   6.420        200.83	    15.524
   6.440        205.00	    15.684
   6.460        209.17	    15.843
   6.480        212.50	    15.969
   6.500        190.00	    15.100
   6.520        210.83	    15.906
   6.540        182.50	    14.799
   6.560        195.83	    15.330
   6.580        189.17	    15.067
   6.600        209.17	    15.843
   6.620        211.67	    15.937
   6.640        190.83	    15.133
   6.660        176.67	    14.560
   6.680        160.00	    13.856
   6.700        185.83	    14.933
   6.720        188.33	    15.033
   6.740        196.67	    15.362
   6.760        198.33	    15.427
   6.780        185.00	    14.900
   6.800        195.83	    15.330
   6.820        185.00	    14.900
   6.840        185.00	    14.900
   6.860        165.83	    14.107
   6.880        205.00	    15.684
   6.900        176.67	    14.560
   6.920        180.83	    14.731
   6.940        190.00	    15.100
   6.960        200.00	    15.492
   6.980        167.50	    14.177
   7.000        165.83	    14.107
   7.020        175.00	    14.491
   7.040        170.83	    14.318
   7.060        178.33	    14.629
   7.080        159.17	    13.820
   7.100        169.17	    14.248
   7.120        186.67	    14.967
   7.140        190.83	    15.133
   7.160        163.33	    14.000
   7.180        180.00	    14.697
   7.200        160.00	    13.856
   7.220        157.50	    13.748
   7.240        179.17	    14.663
   7.260        161.67	    13.928
   7.280        188.33	    15.033
   7.300        160.00	    13.856
   7.320        151.67	    13.491
   7.340        170.83	    14.318
   7.360        171.67	    14.353
   7.380        175.83	    14.526
   7.400        157.50	    13.748
   7.420        178.33	    14.629
   7.440        150.83	    13.454
   7.460        183.33	    14.832
   7.480        143.33	    13.115
   7.500        164.17	    14.036
   7.520        150.83	    13.454
   7.540        165.83	    14.107
   7.560        142.50	    13.077
   7.580        155.00	    13.638
   7.600        158.33	    13.784
   7.620        160.83	    13.892
   7.640        149.17	    13.379
   7.660        171.67	    14.353
   7.680        162.50	    13.964
   7.700        161.67	    13.928
   7.720        165.00	    14.071
   7.740        156.67	    13.711
   7.760        143.33	    13.115
   7.780        139.17	    12.923
   7.800        157.50	    13.748
   7.820        149.17	    13.379
   7.840        174.17	    14.457
   7.860        146.67	    13.266
   7.880        168.33	    14.213
   7.900        160.83	    13.892
   7.920        162.50	    13.964
   7.940        148.33	    13.342
   7.960        169.17	    14.248
   7.980        137.50	    12.845
   8.000        141.67	    13.038
   8.020        150.00	    13.416
   8.040        152.50	    13.528
   8.060        138.33	    12.884
   8.080        170.00	    14.283
   8.100        155.83	    13.675
   8.120        175.83	    14.526
   8.140        156.67	    13.711
   8.160        164.17	    14.036
   8.180        165.83	    14.107
   8.200        152.50	    13.528
   8.220        162.50	    13.964
   8.240        165.00	    14.071
   8.260        165.83	    14.107
   8.280        155.00	    13.638
   8.300        177.50	    14.595
   8.320        170.00	    14.283
   8.340        165.83	    14.107
   8.360        180.00	    14.697
   8.380        175.83	    14.526
   8.400        190.00	    15.100
   8.420        179.17	    14.663
   8.440        168.33	    14.213
   8.460        170.00	    14.283
   8.480        168.33	    14.213
   8.500        176.67	    14.560
   8.520        226.67	    16.492
   8.540        210.83	    15.906
   8.560        187.50	    15.000
   8.580        255.00	    17.493
   8.600        258.33	    17.607
   8.620        287.50	    18.574
   8.640        290.00	    18.655
   8.660        351.67	    20.543
   8.680        353.33	    20.591
   8.700        422.50	    22.517
   8.720        541.67	    25.495
   8.740        745.00	    29.900
   8.760        884.17	    32.573
   8.780        947.50	    33.719
   8.800        669.17	    28.337
   8.820        400.83	    21.932
   8.840        249.17	    17.292
   8.860        211.67	    15.937
   8.880        174.17	    14.457
   8.900        160.83	    13.892
   8.920        169.17	    14.248
   8.940        140.00	    12.961
   8.960        157.50	    13.748
   8.980        146.67	    13.266
   9.000        174.17	    14.457
   9.020        179.17	    14.663
   9.040        170.00	    14.283
   9.060        177.50	    14.595
   9.080        189.17	    15.067
   9.100        161.67	    13.928
   9.120        150.83	    13.454
   9.140        134.17	    12.689
   9.160        139.17	    12.923
   9.180        131.67	    12.570
   9.200        155.83	    13.675
   9.220        105.00	    11.225
   9.240        156.67	    13.711
   9.260        140.83	    13.000
   9.280        121.67	    12.083
   9.300        152.50	    13.528
   9.320        164.17	    14.036
   9.340        145.83	    13.229
   9.360        151.67	    13.491
   9.380        124.17	    12.207
   9.400        135.00	    12.728
   9.420        137.50	    12.845
   9.440        116.67	    11.832
   9.460        125.83	    12.288
   9.480        118.33	    11.916
   9.500        126.67	    12.329
   9.520        141.67	    13.038
   9.540        110.00	    11.489
   9.560        119.17	    11.958
   9.580        126.67	    12.329
   9.600        125.00	    12.247
   9.620        125.83	    12.288
   9.640        105.00	    11.225
   9.660        117.50	    11.874
   9.680        110.83	    11.533
   9.700        128.33	    12.410
   9.720        135.83	    12.767
   9.740        113.33	    11.662
   9.760        115.83	    11.790
   9.780        108.33	    11.402
   9.800        109.17	    11.446
   9.820        125.00	    12.247
   9.840        124.17	    12.207
   9.860        110.83	    11.533
   9.880        125.83	    12.288
   9.900        118.33	    11.916
   9.920         95.00	    10.677
   9.940        120.83	    12.042
   9.960        124.17	    12.207
   9.980        110.83	    11.533
  10.000        101.67	    11.045
  10.020         89.17	    10.344
  10.040        112.50	    11.619
  10.060        130.83	    12.530
  10.080        119.17	    11.958
  10.100        111.67	    11.576
  10.120        113.33	    11.662
  10.140         99.17	    10.909
  10.160        104.17	    11.180
  10.180        107.50	    11.358
  10.200        111.67	    11.576
  10.220        121.67	    12.083
  10.240        110.83	    11.533
  10.260        105.00	    11.225
  10.280        117.50	    11.874
  10.300        115.00	    11.747
  10.320        122.50	    12.124
  10.340        130.83	    12.530
  10.360        165.83	    14.107
  10.380        167.50	    14.177
  10.400        180.00	    14.697
  10.420        205.83	    15.716
  10.440        228.33	    16.553
  10.460        194.17	    15.264
  10.480        137.50	    12.845
  10.500        131.67	    12.570
  10.520        114.17	    11.705
  10.540        111.67	    11.576
  10.560         96.67	    10.770
  10.580        112.50	    11.619
  10.600        101.67	    11.045
  10.620         97.50	    10.817
  10.640        114.17	    11.705
  10.660         90.00	    10.392
  10.680        115.83	    11.790
  10.700         95.83	    10.724
  10.720        120.00	    12.000
  10.740        103.33	    11.136
  10.760        114.17	    11.705
  10.780        103.33	    11.136
  10.800         97.50	    10.817
  10.820         94.17	    10.630
  10.840        105.00	    11.225
  10.860         97.50	    10.817
  10.880        110.83	    11.533
  10.900        104.17	    11.180
  10.920        111.67	    11.576
  10.940        115.00	    11.747
  10.960        106.67	    11.314
  10.980         90.83	    10.440
  11.000         93.33	    10.583
  11.020        107.50	    11.358
  11.040         98.33	    10.863
  11.060         91.67	    10.488
  11.080        105.00	    11.225
  11.100        108.33	    11.402
  11.120        105.83	    11.269
  11.140        109.17	    11.446
  11.160        105.00	    11.225
  11.180        105.00	    11.225
  11.200        108.33	    11.402
  11.220         92.50	    10.536
  11.240        108.33	    11.402
  11.260         93.33	    10.583
  11.280        111.67	    11.576
  11.300         93.33	    10.583
  11.320        114.17	    11.705
  11.340         99.17	    10.909
  11.360         94.17	    10.630
  11.380        111.67	    11.576
  11.400        100.00	    10.954
  11.420         89.17	    10.344
  11.440        100.00	    10.954
  11.460        109.17	    11.446
  11.480        105.83	    11.269
  11.500         95.83	    10.724
  11.520         95.83	    10.724
  11.540        115.83	    11.790
  11.560        100.00	    10.954
  11.580        100.83	    11.000
  11.600        101.67	    11.045
  11.620        102.50	    11.091
  11.640         89.17	    10.344
  11.660        100.83	    11.000
  11.680         87.50	    10.247
  11.700        104.17	    11.180
  11.720         87.50	    10.247
  11.740         95.83	    10.724
  11.760        100.00	    10.954
  11.780         76.67	     9.592
  11.800        108.33	    11.402
  11.820        101.67	    11.045
  11.840         96.67	    10.770
  11.860         98.33	    10.863
  11.880        124.17	    12.207
  11.900        109.17	    11.446
  11.920        118.33	    11.916
  11.940        135.00	    12.728
  11.960        133.33	    12.649
  11.980        155.00	    13.638
  12.000        171.67	    14.353
  12.020        191.67	    15.166
  12.040        283.33	    18.439
  12.060        319.17	    19.570
  12.080        382.50	    21.424
  12.100        345.00	    20.347
  12.120        275.00	    18.166
  12.140        175.00	    14.491
  12.160        159.17	    13.820
  12.180        172.50	    14.387
  12.200        155.83	    13.675
  12.220        206.67	    15.748
  12.240        220.00	    16.248
  12.260        209.17	    15.843
  12.280        209.17	    15.843
  12.300        205.00	    15.684
  12.320        203.33	    15.620
  12.340        287.50	    18.574
  12.360        301.67	    19.026
  12.380        437.50	    22.913
  12.400        418.33	    22.405
  12.420        340.83	    20.224
  12.440        245.00	    17.146
  12.460        154.17	    13.601
  12.480        118.33	    11.916
  12.500        116.67	    11.832
  12.520         95.00	    10.677
  12.540        107.50	    11.358
  12.560        105.00	    11.225
  12.580        100.83	    11.000
  12.600        102.50	    11.091
  12.620         91.67	    10.488
  12.640         99.17	    10.909
  12.660         85.00	    10.100
  12.680         94.17	    10.630
  12.700         83.33	    10.000
  12.720         82.50	     9.950
  12.740         76.67	     9.592
  12.760         81.67	     9.899
  12.780         76.67	     9.592
  12.800         93.33	    10.583
  12.820         76.67	     9.592
  12.840         75.00	     9.487
  12.860         75.00	     9.487
  12.880         85.00	    10.100
  12.900         85.00	    10.100
  12.920         76.67	     9.592
  12.940         84.17	    10.050
  12.960         83.33	    10.000
  12.980         94.17	    10.630
  13.000         86.67	    10.198
  13.020         90.83	    10.440
  13.040         87.50	    10.247
  13.060         83.33	    10.000
  13.080         94.17	    10.630
  13.100         73.33	     9.381
  13.120         97.50	    10.817
  13.140         96.67	    10.770
  13.160         86.67	    10.198
  13.180         74.17	     9.434
  13.200         80.00	     9.798
  13.220         97.50	    10.817
  13.240         80.83	     9.849
  13.260         91.67	    10.488
  13.280         80.00	     9.798
  13.300         74.17	     9.434
  13.320         92.50	    10.536
  13.340         76.67	     9.592
  13.360         78.33	     9.695
  13.380         87.50	    10.247
  13.400         98.33	    10.863
  13.420         75.00	     9.487
  13.440         82.50	     9.950
  13.460         83.33	    10.000
  13.480         78.33	     9.695
  13.500         81.67	     9.899
  13.520         94.17	    10.630
  13.540         70.83	     9.220
  13.560        103.33	    11.136
  13.580         90.83	    10.440
  13.600         89.17	    10.344
  13.620         77.50	     9.644
  13.640         85.83	    10.149
  13.660         74.17	     9.434
  13.680         81.67	     9.899
  13.700         93.33	    10.583
  13.720        125.83	    12.288
  13.740        156.67	    13.711
  13.760        143.33	    13.115
  13.780        110.00	    11.489
  13.800         85.00	    10.100
  13.820         94.17	    10.630
  13.840         80.00	     9.798
  13.860         78.33	     9.695
  13.880         91.67	    10.488
  13.900         99.17	    10.909
  13.920         76.67	     9.592
  13.940         68.33	     9.055
  13.960         82.50	     9.950
  13.980         90.00	    10.392
  14.000         64.17	     8.775
  14.020         92.50	    10.536
  14.040         95.00	    10.677
  14.060         61.67	     8.602
  14.080         78.33	     9.695
  14.100         69.17	     9.110
  14.120         79.17	     9.747
  14.140         67.50	     9.000
  14.160         63.33	     8.718
  14.180         72.50	     9.327
  14.200         83.33	    10.000
  14.220         77.50	     9.644
  14.240         80.83	     9.849
  14.260         68.33	     9.055
  14.280         78.33	     9.695
  14.300         66.67	     8.944
  14.320         80.83	     9.849
  14.340         80.83	     9.849
  14.360         75.83	     9.539
  14.380         65.83	     8.888
  14.400         66.67	     8.944
  14.420         76.67	     9.592
  14.440         67.50	     9.000
  14.460         55.00	     8.124
  14.480         70.83	     9.220
  14.500         65.83	     8.888
  14.520         67.50	     9.000
  14.540         68.33	     9.055
  14.560         90.83	    10.440
  14.580         71.67	     9.274
  14.600         74.17	     9.434
  14.620         61.67	     8.602
  14.640         73.33	     9.381
  14.660         66.67	     8.944
  14.680         64.17	     8.775
  14.700         73.33	     9.381
  14.720         57.50	     8.307
  14.740         76.67	     9.592
  14.760         76.67	     9.592
  14.780         76.67	     9.592
  14.800         68.33	     9.055
  14.820         80.83	     9.849
  14.840         88.33	    10.296
  14.860         97.50	    10.817
  14.880         74.17	     9.434
  14.900         95.83	    10.724
  14.920         75.83	     9.539
  14.940         61.67	     8.602
  14.960         74.17	     9.434
  14.980         81.67	     9.899
  15.000         70.83	     9.220
  15.020         68.33	     9.055
  15.040         79.17	     9.747
  15.060         55.00	     8.124
  15.080         69.17	     9.110
  15.100         80.00	     9.798
  15.120         64.17	     8.775
  15.140         69.17	     9.110
  15.160         68.33	     9.055
  15.180         53.33	     8.000
  15.200         68.33	     9.055
  15.220         71.67	     9.274
  15.240         65.00	     8.832
  15.260         72.50	     9.327
  15.280         57.50	     8.307
  15.300         55.83	     8.185
  15.320         65.00	     8.832
  15.340         70.83	     9.220
  15.360         61.67	     8.602
  15.380         51.67	     7.874
  15.400         65.00	     8.832
  15.420         72.50	     9.327
  15.440         59.17	     8.426
  15.460         70.00	     9.165
  15.480         70.83	     9.220
  15.500         74.17	     9.434
  15.520         62.50	     8.660
  15.540         57.50	     8.307
  15.560         75.83	     9.539
  15.580         73.33	     9.381
  15.600         65.83	     8.888
  15.620         73.33	     9.381
  15.640         74.17	     9.434
  15.660         72.50	     9.327
  15.680         65.83	     8.888
  15.700         70.83	     9.220
  15.720         88.33	    10.296
  15.740         87.50	    10.247
  15.760         52.50	     7.937
  15.780         62.50	     8.660
  15.800         68.33	     9.055
  15.820         64.17	     8.775
  15.840         68.33	     9.055
  15.860         65.00	     8.832
  15.880         58.33	     8.367
  15.900         65.83	     8.888
  15.920         66.67	     8.944
  15.940         75.83	     9.539
  15.960         66.67	     8.944
  15.980         63.33	     8.718
  16.000         70.00	     9.165
  16.020         67.50	     9.000
  16.040         67.50	     9.000
  16.060         61.67	     8.602
  16.080         75.83	     9.539
  16.100         65.00	     8.832
  16.120         45.83	     7.416
  16.140         60.83	     8.544
  16.160         64.17	     8.775
  16.180         75.00	     9.487
  16.200         59.17	     8.426
  16.220         75.00	     9.487
  16.240         65.00	     8.832
  16.260         65.00	     8.832
  16.280         60.00	     8.485
  16.300         79.17	     9.747
  16.320         71.67	     9.274
  16.340         59.17	     8.426
  16.360         63.33	     8.718
  16.380         67.50	     9.000
  16.400         65.83	     8.888
  16.420         56.67	     8.246
  16.440         55.00	     8.124
  16.460         82.50	     9.950
  16.480         57.50	     8.307
  16.500         65.00	     8.832
  16.520         58.33	     8.367
  16.540         62.50	     8.660
  16.560         66.67	     8.944
  16.580         68.33	     9.055
  16.600         57.50	     8.307
  16.620         60.83	     8.544
  16.640         53.33	     8.000
  16.660         60.00	     8.485
  16.680         68.33	     9.055
  16.700         65.00	     8.832
  16.720         65.00	     8.832
  16.740         74.17	     9.434
  16.760         56.67	     8.246
  16.780         72.50	     9.327
  16.800         60.83	     8.544
  16.820         68.33	     9.055
  16.840         58.33	     8.367
  16.860         74.17	     9.434
  16.880         50.83	     7.810
  16.900         61.67	     8.602
  16.920         64.17	     8.775
  16.940         69.17	     9.110
  16.960         67.50	     9.000
  16.980         57.50	     8.307
  17.000         55.83	     8.185
  17.020         62.50	     8.660
  17.040         60.83	     8.544
  17.060         51.67	     7.874
  17.080         77.50	     9.644
  17.100         68.33	     9.055
  17.120         61.67	     8.602
  17.140         48.33	     7.616
  17.160         68.33	     9.055
  17.180         63.33	     8.718
  17.200         64.17	     8.775
  17.220         65.00	     8.832
  17.240         89.17	    10.344
  17.260         74.17	     9.434
  17.280         68.33	     9.055
  17.300         73.33	     9.381
  17.320         71.67	     9.274
  17.340         65.00	     8.832
  17.360         71.67	     9.274
  17.380         68.33	     9.055
  17.400         80.00	     9.798
  17.420         80.83	     9.849
  17.440         62.50	     8.660
  17.460         65.00	     8.832
  17.480         70.83	     9.220
  17.500         81.67	     9.899
  17.520         90.00	    10.392
  17.540         65.00	     8.832
  17.560         89.17	    10.344
  17.580         94.17	    10.630
  17.600        103.33	    11.136
  17.620        112.50	    11.619
  17.640        155.00	    13.638
  17.660        218.33	    16.186
  17.680        280.00	    18.330
  17.700        302.50	    19.053
  17.720        302.50	    19.053
  17.740        276.67	    18.221
  17.760        197.50	    15.395
  17.780        134.17	    12.689
  17.800        103.33	    11.136
  17.820         82.50	     9.950
  17.840         75.83	     9.539
  17.860         64.17	     8.775
  17.880         91.67	    10.488
  17.900         68.33	     9.055
  17.920         81.67	     9.899
  17.940         63.33	     8.718
  17.960         54.17	     8.062
  17.980         67.50	     9.000
  18.000         57.50	     8.307
  18.020         55.83	     8.185
  18.040         59.17	     8.426
  18.060         67.50	     9.000
  18.080         65.83	     8.888
  18.100         63.33	     8.718
  18.120         64.17	     8.775
  18.140         60.83	     8.544
  18.160         64.17	     8.775
  18.180         58.33	     8.367
  18.200         56.67	     8.246
  18.220         54.17	     8.062
  18.240         56.67	     8.246
  18.260         69.17	     9.110
  18.280         70.00	     9.165
  18.300         90.83	    10.440
  18.320         80.00	     9.798
  18.340         75.83	     9.539
  18.360         87.50	    10.247
  18.380         70.83	     9.220
  18.400         70.00	     9.165
  18.420         80.83	     9.849
  18.440         99.17	    10.909
  18.460         96.67	    10.770
  18.480        110.00	    11.489
  18.500         84.17	    10.050
  18.520         81.67	     9.899
  18.540         72.50	     9.327
  18.560         95.00	    10.677
  18.580         85.83	    10.149
  18.600         88.33	    10.296
  18.620        110.00	    11.489
  18.640        130.00	    12.490
  18.660        163.33	    14.000
  18.680        191.67	    15.166
  18.700        165.83	    14.107
  18.720        140.83	    13.000
  18.740        124.17	    12.207
  18.760         89.17	    10.344
  18.780         93.33	    10.583
  18.800         65.83	     8.888
  18.820         65.00	     8.832
  18.840         69.17	     9.110
  18.860         72.50	     9.327
  18.880         69.17	     9.110
  18.900         72.50	     9.327
  18.920         58.33	     8.367
  18.940         60.00	     8.485
  18.960         64.17	     8.775
  18.980         70.00	     9.165
  19.000         63.33	     8.718
  19.020         56.67	     8.246
  19.040         65.83	     8.888
  19.060         83.33	    10.000
  19.080         58.33	     8.367
  19.100         68.33	     9.055
  19.120         68.33	     9.055
  19.140         75.00	     9.487
  19.160         59.17	     8.426
  19.180         71.67	     9.274
  19.200         64.17	     8.775
  19.220         74.17	     9.434
  19.240         75.00	     9.487
  19.260         75.00	     9.487
  19.280         75.00	     9.487
  19.300         55.83	     8.185
  19.320         83.33	    10.000
  19.340         62.50	     8.660
  19.360         66.67	     8.944
  19.380         63.33	     8.718
  19.400         65.83	     8.888
  19.420         61.67	     8.602
  19.440         75.83	     9.539
  19.460         55.00	     8.124
  19.480         76.67	     9.592
  19.500         62.50	     8.660
  19.520         70.00	     9.165
  19.540         64.17	     8.775
  19.560         77.50	     9.644
  19.580         90.00	    10.392
  19.600         82.50	     9.950
  19.620         64.17	     8.775
  19.640         77.50	     9.644
  19.660         95.83	    10.724
  19.680        103.33	    11.136
  19.700         93.33	    10.583
  19.720         97.50	    10.817
  19.740        120.00	    12.000
  19.760        120.00	    12.000
  19.780         91.67	    10.488
  19.800         86.67	    10.198
  19.820         89.17	    10.344
  19.840         87.50	    10.247
  19.860         69.17	     9.110
  19.880         90.83	    10.440
  19.900         66.67	     8.944
  19.920         69.17	     9.110
  19.940         75.83	     9.539
  19.960         57.50	     8.307
  19.980         75.00	     9.487
  20.000         64.17	     8.775
  20.020         76.67	     9.592
  20.040         57.50	     8.307
  20.060         62.50	     8.660
  20.080         57.50	     8.307
  20.100         70.83	     9.220
  20.120         71.67	     9.274
  20.140         68.33	     9.055
  20.160         78.33	     9.695
  20.180         64.17	     8.775
  20.200         58.33	     8.367
  20.220         55.00	     8.124
  20.240         61.67	     8.602
  20.260         64.17	     8.775
  20.280         51.67	     7.874
  20.300         50.83	     7.810
  20.320         47.50	     7.550
  20.340         63.33	     8.718
  20.360         55.83	     8.185
  20.380         73.33	     9.381
  20.400         54.17	     8.062
  20.420         70.00	     9.165
  20.440         55.83	     8.185
  20.460         67.50	     9.000
  20.480         68.33	     9.055
  20.500         65.00	     8.832
  20.520         85.00	    10.100
  20.540         83.33	    10.000
  20.560         76.67	     9.592
  20.580         90.83	    10.440
  20.600         75.00	     9.487
  20.620        100.83	    11.000
  20.640        106.67	    11.314
  20.660        125.00	    12.247
  20.680        172.50	    14.387
  20.700        303.33	    19.079
  20.720        535.83	    25.357
  20.740        681.67	    28.601
  20.760        617.50	    27.221
  20.780        455.83	    23.388
  20.800        365.00	    20.928
  20.820        235.83	    16.823
  20.840        136.67	    12.806
  20.860        110.00	    11.489
  20.880        118.33	    11.916
  20.900        120.83	    12.042
  20.920         95.00	    10.677
  20.940         90.00	    10.392
  20.960         95.83	    10.724
  20.980         75.83	     9.539
  21.000         69.17	     9.110
  21.020         62.50	     8.660
  21.040         68.33	     9.055
  21.060         71.67	     9.274
  21.080         57.50	     8.307
  21.100         63.33	     8.718
  21.120         74.17	     9.434
  21.140         60.83	     8.544
  21.160         50.00	     7.746
  21.180         50.83	     7.810
  21.200         58.33	     8.367
  21.220         53.33	     8.000
  21.240         53.33	     8.000
  21.260         73.33	     9.381
  21.280         54.17	     8.062
  21.300         46.67	     7.483
  21.320         57.50	     8.307
  21.340         71.67	     9.274
  21.360         69.17	     9.110
  21.380         60.00	     8.485
  21.400         65.83	     8.888
  21.420         60.00	     8.485
  21.440         64.17	     8.775
  21.460         63.33	     8.718
  21.480         71.67	     9.274
  21.500         60.00	     8.485
  21.520         68.33	     9.055
  21.540         58.33	     8.367
  21.560         60.83	     8.544
  21.580         65.83	     8.888
  21.600         58.33	     8.367
  21.620         50.00	     7.746
  21.640         65.00	     8.832
  21.660         61.67	     8.602
  21.680         55.00	     8.124
  21.700         58.33	     8.367
  21.720         60.00	     8.485
  21.740         66.67	     8.944
  21.760         55.00	     8.124
  21.780         69.17	     9.110
  21.800         59.17	     8.426
  21.820         68.33	     9.055
  21.840         75.83	     9.539
  21.860        110.83	    11.533
  21.880        137.50	    12.845
  21.900        152.50	    13.528
  21.920        181.67	    14.765
  21.940        175.83	    14.526
  21.960        164.17	    14.036
  21.980        155.83	    13.675
  22.000         94.17	    10.630
  22.020         76.67	     9.592
  22.040         95.00	    10.677
  22.060        105.00	    11.225
  22.080         84.17	    10.050
  22.100         95.83	    10.724
  22.120         95.83	    10.724
  22.140         68.33	     9.055
  22.160         71.67	     9.274
  22.180         60.83	     8.544
  22.200         64.17	     8.775
  22.220         63.33	     8.718
  22.240         55.00	     8.124
  22.260         62.50	     8.660
  22.280         70.00	     9.165
  22.300         68.33	     9.055
  22.320         60.83	     8.544
  22.340         68.33	     9.055
  22.360         63.33	     8.718
  22.380         60.83	     8.544
  22.400         60.83	     8.544
  22.420         54.17	     8.062
  22.440         58.33	     8.367
  22.460         54.17	     8.062
  22.480         71.67	     9.274
  22.500         53.33	     8.000
  22.520         73.33	     9.381
  22.540         52.50	     7.937
  22.560         61.67	     8.602
  22.580         65.83	     8.888
  22.600         56.67	     8.246
  22.620         60.00	     8.485
  22.640         47.50	     7.550
  22.660         58.33	     8.367
  22.680         70.83	     9.220
  22.700         85.00	    10.100
  22.720         89.17	    10.344
  22.740         88.33	    10.296
  22.760         89.17	    10.344
  22.780         95.00	    10.677
  22.800         93.33	    10.583
  22.820         98.33	    10.863
  22.840         76.67	     9.592
  22.860        100.00	    10.954
  22.880         95.83	    10.724
  22.900        116.67	    11.832
  22.920        142.50	    13.077
  22.940        151.67	    13.491
  22.960        110.83	    11.533
  22.980        110.00	    11.489
  23.000        102.50	    11.091
  23.020         82.50	     9.950
  23.040         62.50	     8.660
  23.060         57.50	     8.307
  23.080         71.67	     9.274
  23.100         50.00	     7.746
  23.120         66.67	     8.944
  23.140         68.33	     9.055
  23.160         69.17	     9.110
  23.180         63.33	     8.718
  23.200         70.00	     9.165
  23.220         60.00	     8.485
  23.240         63.33	     8.718
  23.260         62.50	     8.660
  23.280         60.00	     8.485
  23.300         77.50	     9.644
  23.320         84.17	    10.050
  23.340         70.83	     9.220
  23.360        105.00	    11.225
  23.380        156.67	    13.711
  23.400        195.83	    15.330
  23.420        205.83	    15.716
  23.440        215.00	    16.062
  23.460        195.00	    15.297
  23.480        181.67	    14.765
  23.500        140.00	    12.961
  23.520         97.50	    10.817
  23.540        107.50	    11.358
  23.560        101.67	    11.045
  23.580         75.83	     9.539
  23.600         96.67	    10.770
  23.620        107.50	    11.358
  23.640         90.83	    10.440
  23.660         86.67	    10.198
  23.680         85.00	    10.100
  23.700        103.33	    11.136
  23.720         94.17	    10.630
  23.740         80.83	     9.849
  23.760         84.17	    10.050
  23.780         87.50	    10.247
  23.800         73.33	     9.381
  23.820         88.33	    10.296
  23.840         91.67	    10.488
  23.860         73.33	     9.381
  23.880         79.17	     9.747
  23.900         79.17	     9.747
  23.920         89.17	    10.344
  23.940         70.83	     9.220
  23.960         81.67	     9.899
  23.980         77.50	     9.644
  24.000         85.00	    10.100
  24.020        102.50	    11.091
  24.040        122.50	    12.124
  24.060        114.17	    11.705
  24.080        102.50	    11.091
  24.100        110.00	    11.489
  24.120        125.83	    12.288
  24.140        139.17	    12.923
  24.160        130.83	    12.530
  24.180        137.50	    12.845
  24.200        125.00	    12.247
  24.220        134.17	    12.689
  24.240         95.00	    10.677
  24.260         86.67	    10.198
  24.280         83.33	    10.000
  24.300         74.17	     9.434
  24.320         81.67	     9.899
  24.340         90.00	    10.392
  24.360         95.83	    10.724
  24.380        116.67	    11.832
  24.400        115.00	    11.747
  24.420        153.33	    13.565
  24.440        149.17	    13.379
  24.460        167.50	    14.177
  24.480        189.17	    15.067
  24.500        209.17	    15.843
  24.520        223.33	    16.371
  24.540        204.17	    15.652
  24.560        190.00	    15.100
  24.580        155.00	    13.638
  24.600        150.83	    13.454
  24.620        127.50	    12.369
  24.640        110.83	    11.533
  24.660         84.17	    10.050
  24.680         99.17	    10.909
  24.700        101.67	    11.045
  24.720        105.83	    11.269
  24.740         94.17	    10.630
  24.760        118.33	    11.916
  24.780         91.67	    10.488
  24.800         96.67	    10.770
  24.820        104.17	    11.180
  24.840        105.83	    11.269
  24.860         97.50	    10.817
  24.880        105.00	    11.225
  24.900         95.00	    10.677
  24.920        108.33	    11.402
  24.940        111.67	    11.576
  24.960        111.67	    11.576
  24.980        155.00	    13.638
  25.000        214.17	    16.031
  25.020        247.50	    17.234
  25.040        277.50	    18.248
  25.060        257.50	    17.578
  25.080        255.00	    17.493
  25.100        200.00	    15.492
  25.120        177.50	    14.595
  25.140        132.50	    12.610
  25.160        127.50	    12.369
  25.180         93.33	    10.583
  25.200         95.00	    10.677
  25.220         90.00	    10.392
  25.240         74.17	     9.434
  25.260         97.50	    10.817
  25.280        125.00	    12.247
  25.300        141.67	    13.038
  25.320        137.50	    12.845
  25.340        120.83	    12.042
  25.360        160.00	    13.856
  25.380        155.83	    13.675
  25.400        167.50	    14.177
  25.420        162.50	    13.964
  25.440        170.83	    14.318
  25.460        143.33	    13.115
  25.480        124.17	    12.207
  25.500        132.50	    12.610
  25.520        135.00	    12.728
  25.540        122.50	    12.124
  25.560        116.67	    11.832
  25.580        100.83	    11.000
  25.600         92.50	    10.536
  25.620         90.83	    10.440
  25.640         90.83	    10.440
  25.660         63.33	     8.718
  25.680         72.50	     9.327
  25.700         71.67	     9.274
  25.720         80.00	     9.798
  25.740         75.83	     9.539
  25.760         66.67	     8.944
  25.780         62.50	     8.660
  25.800         68.33	     9.055
  25.820         76.67	     9.592
  25.840         66.67	     8.944
  25.860         64.17	     8.775
  25.880         58.33	     8.367
  25.900         67.50	     9.000
  25.920         61.67	     8.602
  25.940         70.00	     9.165
  25.960         66.67	     8.944
  25.980         61.67	     8.602
  26.000         64.17	     8.775
  26.020         85.83	    10.149
  26.040         70.83	     9.220
  26.060         78.33	     9.695
  26.080         65.83	     8.888
  26.100         95.83	    10.724
  26.120         69.17	     9.110
  26.140         86.67	    10.198
  26.160         76.67	     9.592
  26.180         93.33	    10.583
  26.200         94.17	    10.630
  26.220        110.83	    11.533
  26.240        120.00	    12.000
  26.260        133.33	    12.649
  26.280        169.17	    14.248
  26.300        210.83	    15.906
  26.320        184.17	    14.866
  26.340        180.00	    14.697
  26.360        197.50	    15.395
  26.380        230.83	    16.643
  26.400        235.83	    16.823
  26.420        264.17	    17.804
  26.440        335.83	    20.075
  26.460        490.00	    24.249
  26.480        910.00	    33.045
  26.500       1580.83	    43.555
  26.520       2087.50	    50.050
  26.540       1793.33	    46.390
  26.560       1220.83	    38.275
  26.580       1229.17	    38.406
  26.600       1085.00	    36.083
  26.620        684.17	    28.653
  26.640        413.33	    22.271
  26.660        384.17	    21.471
  26.680        420.00	    22.450
  26.700        457.50	    23.431
  26.720        580.00	    26.382
  26.740        682.50	    28.618
  26.760        670.00	    28.355
  26.780        660.83	    28.160
  26.800        607.50	    27.000
  26.820        490.00	    24.249
  26.840        389.17	    21.610
  26.860        285.83	    18.520
  26.880        215.83	    16.093
  26.900        183.33	    14.832
  26.920        145.83	    13.229
  26.940        140.00	    12.961
  26.960        100.83	    11.000
  26.980         85.83	    10.149
  27.000        104.17	    11.180
  27.020        105.00	    11.225
  27.040         77.50	     9.644
  27.060         93.33	    10.583
  27.080         96.67	    10.770
  27.100         87.50	    10.247
  27.120         97.50	    10.817
  27.140         90.83	    10.440
  27.160         89.17	    10.344
  27.180        103.33	    11.136
  27.200        115.83	    11.790
  27.220        107.50	    11.358
  27.240         95.00	    10.677
  27.260         93.33	    10.583
  27.280        108.33	    11.402
  27.300        135.00	    12.728
  27.320        183.33	    14.832
  27.340        188.33	    15.033
  27.360        193.33	    15.232
  27.380        190.00	    15.100
  27.400        189.17	    15.067
  27.420        185.83	    14.933
  27.440        141.67	    13.038
  27.460        125.00	    12.247
  27.480        111.67	    11.576
  27.500        101.67	    11.045
  27.520        107.50	    11.358
  27.540        112.50	    11.619
  27.560        129.17	    12.450
  27.580        192.50	    15.199
  27.600        234.17	    16.763
  27.620        192.50	    15.199
  27.640        245.00	    17.146
  27.660        218.33	    16.186
  27.680        234.17	    16.763
  27.700        260.00	    17.664
  27.720        250.83	    17.349
  27.740        360.00	    20.785
  27.760        538.33	    25.417
  27.780        660.83	    28.160
  27.800        760.00	    30.199
  27.820        710.83	    29.206
  27.840        618.33	    27.240
  27.860        580.00	    26.382
  27.880        452.50	    23.302
  27.900        357.50	    20.712
  27.920        292.50	    18.735
  27.940        254.17	    17.464
  27.960        186.67	    14.967
  27.980        216.67	    16.125
  28.000        228.33	    16.553
  28.020        207.50	    15.780
  28.040        199.17	    15.460
  28.060        200.00	    15.492
  28.080        145.00	    13.191
  28.100        160.83	    13.892
  28.120        157.50	    13.748
  28.140        255.83	    17.521
  28.160        204.17	    15.652
  28.180        164.17	    14.036
  28.200        155.00	    13.638
  28.220        154.17	    13.601
  28.240        141.67	    13.038
  28.260        117.50	    11.874
  28.280         91.67	    10.488
  28.300         79.17	     9.747
  28.320         57.50	     8.307
  28.340         65.00	     8.832
  28.360         70.83	     9.220
  28.380         64.17	     8.775
  28.400         75.00	     9.487
  28.420         93.33	    10.583
  28.440         89.17	    10.344
  28.460        109.17	    11.446
  28.480        140.00	    12.961
  28.500        142.50	    13.077
  28.520        151.67	    13.491
  28.540        145.83	    13.229
  28.560        139.17	    12.923
  28.580        133.33	    12.649
  28.600        135.83	    12.767
  28.620        135.83	    12.767
  28.640        134.17	    12.689
  28.660        115.83	    11.790
  28.680        107.50	    11.358
  28.700         93.33	    10.583
  28.720         76.67	     9.592
  28.740         75.83	     9.539
  28.760         74.17	     9.434
  28.780         69.17	     9.110
  28.800         56.67	     8.246
  28.820         53.33	     8.000
  28.840         52.50	     7.937
  28.860         49.17	     7.681
  28.880         61.67	     8.602
  28.900         52.50	     7.937
  28.920         45.00	     7.348
  28.940         49.17	     7.681
  28.960         59.17	     8.426
  28.980         58.33	     8.367
  29.000         53.33	     8.000
  29.020         50.00	     7.746
  29.040         62.50	     8.660
  29.060         45.00	     7.348
  29.080         59.17	     8.426
  29.100         53.33	     8.000
  29.120         50.83	     7.810
  29.140         50.83	     7.810
  29.160         60.00	     8.485
  29.180         60.00	     8.485
  29.200         50.00	     7.746
  29.220         45.00	     7.348
  29.240         47.50	     7.550
  29.260         51.67	     7.874
  29.280         45.83	     7.416
  29.300         57.50	     8.307
  29.320         58.33	     8.367
  29.340         56.67	     8.246
  29.360         59.17	     8.426
  29.380         48.33	     7.616
  29.400         42.50	     7.141
  29.420         46.67	     7.483
  29.440         58.33	     8.367
  29.460         63.33	     8.718
  29.480         53.33	     8.000
  29.500         57.50	     8.307
  29.520         55.83	     8.185
  29.540         53.33	     8.000
  29.560         47.50	     7.550
  29.580         75.00	     9.487
  29.600         55.83	     8.185
  29.620         80.00	     9.798
  29.640         71.67	     9.274
  29.660         96.67	    10.770
  29.680         97.50	    10.817
  29.700        121.67	    12.083
  29.720        127.50	    12.369
  29.740        118.33	    11.916
  29.760        128.33	    12.410
  29.780        146.67	    13.266
  29.800        130.83	    12.530
  29.820        132.50	    12.610
  29.840        108.33	    11.402
  29.860        102.50	    11.091
  29.880        105.83	    11.269
  29.900         90.83	    10.440
  29.920         94.17	    10.630
  29.940         83.33	    10.000
  29.960         97.50	    10.817
  29.980        107.50	    11.358
  30.000        110.00	    11.489
  30.020        106.67	    11.314
  30.040         95.83	    10.724
  30.060        125.83	    12.288
  30.080        118.33	    11.916
  30.100        103.33	    11.136
  30.120        105.00	    11.225
  30.140         97.50	    10.817
  30.160         93.33	    10.583
  30.180         68.33	     9.055
  30.200         98.33	    10.863
  30.220        101.67	    11.045
  30.240         70.00	     9.165
  30.260         83.33	    10.000
  30.280         90.83	    10.440
  30.300         95.83	    10.724
  30.320        120.83	    12.042
  30.340        116.67	    11.832
  30.360        115.00	    11.747
  30.380        109.17	    11.446
  30.400         97.50	    10.817
  30.420         94.17	    10.630
  30.440         90.83	    10.440
  30.460         96.67	    10.770
  30.480         75.83	     9.539
  30.500         75.00	     9.487
  30.520         82.50	     9.950
  30.540         65.00	     8.832
  30.560         74.17	     9.434
  30.580         67.50	     9.000
  30.600         70.83	     9.220
  30.620         73.33	     9.381
  30.640         90.83	    10.440
  30.660        195.00	    15.297
  30.680        275.83	    18.193
  30.700        228.33	    16.553
  30.720        124.17	    12.207
  30.740        149.17	    13.379
  30.760        184.17	    14.866
  30.780        143.33	    13.115
  30.800         74.17	     9.434
  30.820         69.17	     9.110
  30.840         90.00	    10.392
  30.860         65.83	     8.888
  30.880         65.83	     8.888
  30.900         67.50	     9.000
  30.920         59.17	     8.426
  30.940         76.67	     9.592
  30.960         65.00	     8.832
  30.980         84.17	    10.050
  31.000         73.33	     9.381
  31.020         89.17	    10.344
  31.040         77.50	     9.644
  31.060         92.50	    10.536
  31.080        105.83	    11.269
  31.100        135.83	    12.767
  31.120        184.17	    14.866
  31.140        137.50	    12.845
  31.160        115.00	    11.747
  31.180        115.83	    11.790
  31.200        110.00	    11.489
  31.220         93.33	    10.583
  31.240         94.17	    10.630
  31.260         67.50	     9.000
  31.280         87.50	    10.247
  31.300         69.17	     9.110
  31.320         74.17	     9.434
  31.340         57.50	     8.307
  31.360         72.50	     9.327
  31.380         65.83	     8.888
  31.400         69.17	     9.110
  31.420         65.83	     8.888
  31.440         82.50	     9.950
  31.460         95.00	    10.677
  31.480         84.17	    10.050
  31.500         66.67	     8.944
  31.520         80.00	     9.798
  31.540         68.33	     9.055
  31.560         82.50	     9.950
  31.580         79.17	     9.747
  31.600         77.50	     9.644
  31.620         85.00	    10.100
  31.640         79.17	     9.747
  31.660         79.17	     9.747
  31.680         86.67	    10.198
  31.700         79.17	     9.747
  31.720        104.17	    11.180
  31.740        126.67	    12.329
  31.760         91.67	    10.488
  31.780         95.83	    10.724
  31.800         76.67	     9.592
  31.820         72.50	     9.327
  31.840         75.83	     9.539
  31.860         68.33	     9.055
  31.880         65.00	     8.832
  31.900         65.00	     8.832
  31.920         73.33	     9.381
  31.940         83.33	    10.000
  31.960         92.50	    10.536
  31.980         77.50	     9.644
  32.000         84.17	    10.050
  32.020         90.83	    10.440
  32.040         76.67	     9.592
  32.060         76.67	     9.592
  32.080         62.50	     8.660
  32.100         55.00	     8.124
  32.120         63.33	     8.718
  32.140         60.00	     8.485
  32.160         45.83	     7.416
  32.180         60.83	     8.544
  32.200         45.00	     7.348
  32.220         55.00	     8.124
  32.240         55.83	     8.185
  32.260         40.00	     6.928
  32.280         58.33	     8.367
  32.300         39.17	     6.856
  32.320         54.17	     8.062
  32.340         52.50	     7.937
  32.360         45.83	     7.416
  32.380         34.17	     6.403
  32.400         40.00	     6.928
  32.420         44.17	     7.280
  32.440         38.33	     6.782
  32.460         37.50	     6.708
  32.480         45.00	     7.348
  32.500         42.50	     7.141
  32.520         42.50	     7.141
  32.540         47.50	     7.550
  32.560         42.50	     7.141
  32.580         56.67	     8.246
  32.600         50.83	     7.810
  32.620         65.00	     8.832
  32.640         48.33	     7.616
  32.660         62.50	     8.660
  32.680         84.17	    10.050
  32.700         70.83	     9.220
  32.720         95.00	    10.677
  32.740         94.17	    10.630
  32.760        155.83	    13.675
  32.780        175.83	    14.526
  32.800        136.67	    12.806
  32.820        101.67	    11.045
  32.840        104.17	    11.180
  32.860        118.33	    11.916
  32.880        106.67	    11.314
  32.900        105.83	    11.269
  32.920         93.33	    10.583
  32.940         95.83	    10.724
  32.960         72.50	     9.327
  32.980         69.17	     9.110
  33.000         71.67	     9.274
  33.020         72.50	     9.327
  33.040         46.67	     7.483
  33.060         53.33	     8.000
  33.080         46.67	     7.483
  33.100         54.17	     8.062
  33.120         45.00	     7.348
  33.140         45.83	     7.416
  33.160         49.17	     7.681
  33.180         54.17	     8.062
  33.200         52.50	     7.937
  33.220         60.83	     8.544
  33.240         62.50	     8.660
  33.260         48.33	     7.616
  33.280         47.50	     7.550
  33.300         57.50	     8.307
  33.320         65.00	     8.832
  33.340         50.83	     7.810
  33.360         66.67	     8.944
  33.380         70.00	     9.165
  33.400         65.83	     8.888
  33.420         84.17	    10.050
  33.440         69.17	     9.110
  33.460         65.00	     8.832
  33.480         50.83	     7.810
  33.500         43.33	     7.211
  33.520         57.50	     8.307
  33.540         65.00	     8.832
  33.560         42.50	     7.141
  33.580         53.33	     8.000
  33.600         50.00	     7.746
  33.620         42.50	     7.141
  33.640         45.00	     7.348
  33.660         49.17	     7.681
  33.680         50.00	     7.746
  33.700         52.50	     7.937
  33.720         45.83	     7.416
  33.740         64.17	     8.775
  33.760         51.67	     7.874
  33.780         65.83	     8.888
  33.800         65.00	     8.832
  33.820         57.50	     8.307
  33.840         66.67	     8.944
  33.860         57.50	     8.307
  33.880         60.00	     8.485
  33.900         64.17	     8.775
  33.920         68.33	     9.055
  33.940         64.17	     8.775
  33.960         50.00	     7.746
  33.980         58.33	     8.367
  34.000         64.17	     8.775
  34.020         47.50	     7.550
  34.040         50.00	     7.746
  34.060         46.67	     7.483
  34.080         60.83	     8.544
  34.100         47.50	     7.550
  34.120         50.00	     7.746
  34.140         51.67	     7.874
  34.160         41.67	     7.071
  34.180         64.17	     8.775
  34.200         55.83	     8.185
  34.220         44.17	     7.280
  34.240         56.67	     8.246
  34.260         54.17	     8.062
  34.280         59.17	     8.426
  34.300         84.17	    10.050
  34.320         70.00	     9.165
  34.340         81.67	     9.899
  34.360         89.17	    10.344
  34.380         77.50	     9.644
  34.400        125.00	    12.247
  34.420        100.00	    10.954
  34.440        100.00	    10.954
  34.460         76.67	     9.592
  34.480         75.83	     9.539
  34.500         87.50	    10.247
  34.520         70.83	     9.220
  34.540         69.17	     9.110
  34.560         82.50	     9.950
  34.580         65.00	     8.832
  34.600         78.33	     9.695
  34.620         72.50	     9.327
  34.640         90.83	    10.440
  34.660         69.17	     9.110
  34.680         84.17	    10.050
  34.700         79.17	     9.747
  34.720        118.33	    11.916
  34.740         92.50	    10.536
  34.760        115.00	    11.747
  34.780        102.50	    11.091
  34.800        133.33	    12.649
  34.820        116.67	    11.832
  34.840        127.50	    12.369
  34.860        123.33	    12.166
  34.880        151.67	    13.491
  34.900        148.33	    13.342
  34.920        108.33	    11.402
  34.940        104.17	    11.180
  34.960         95.83	    10.724
  34.980        109.17	    11.446
  35.000         97.50	    10.817
  35.020         84.17	    10.050
  35.040        105.00	    11.225
  35.060         79.17	     9.747
  35.080         72.50	     9.327
  35.100         83.33	    10.000
  35.120         74.17	     9.434
  35.140         62.50	     8.660
  35.160         67.50	     9.000
  35.180         64.17	     8.775
  35.200         80.00	     9.798
  35.220         61.67	     8.602
  35.240         70.00	     9.165
  35.260         71.67	     9.274
  35.280         80.83	     9.849
  35.300         95.00	    10.677
  35.320         89.17	    10.344
  35.340         86.67	    10.198
  35.360         97.50	    10.817
  35.380        102.50	    11.091
  35.400        123.33	    12.166
  35.420        152.50	    13.528
  35.440        125.00	    12.247
  35.460        111.67	    11.576
  35.480        115.83	    11.790
  35.500        106.67	    11.314
  35.520        110.00	    11.489
  35.540        102.50	    11.091
  35.560         86.67	    10.198
  35.580         94.17	    10.630
  35.600         77.50	     9.644
  35.620         63.33	     8.718
  35.640         59.17	     8.426
  35.660         56.67	     8.246
  35.680         70.83	     9.220
  35.700         64.17	     8.775
  35.720         62.50	     8.660
  35.740         58.33	     8.367
  35.760         54.17	     8.062
  35.780         67.50	     9.000
  35.800         60.00	     8.485
  35.820         61.67	     8.602
  35.840         55.00	     8.124
  35.860         69.17	     9.110
  35.880         68.33	     9.055
  35.900         69.17	     9.110
  35.920         74.17	     9.434
  35.940         83.33	    10.000
  35.960         87.50	    10.247
  35.980         71.67	     9.274
  36.000         65.83	     8.888
  36.020         85.00	    10.100
  36.040         69.17	     9.110
  36.060         72.50	     9.327
  36.080         65.00	     8.832
  36.100         93.33	    10.583
  36.120         53.33	     8.000
  36.140         66.67	     8.944
  36.160         58.33	     8.367
  36.180         59.17	     8.426
  36.200         56.67	     8.246
  36.220         63.33	     8.718
  36.240         59.17	     8.426
  36.260         68.33	     9.055
  36.280         57.50	     8.307
  36.300         76.67	     9.592
  36.320         75.83	     9.539
  36.340         72.50	     9.327
  36.360         82.50	     9.950
  36.380        106.67	    11.314
  36.400        145.00	    13.191
  36.420        185.00	    14.900
  36.440        136.67	    12.806
  36.460        134.17	    12.689
  36.480        114.17	    11.705
  36.500        115.00	    11.747
  36.520        130.83	    12.530
  36.540        128.33	    12.410
  36.560         99.17	    10.909
  36.580         96.67	    10.770
  36.600         73.33	     9.381
  36.620         88.33	    10.296
  36.640         76.67	     9.592
  36.660         80.83	     9.849
  36.680         69.17	     9.110
  36.700         81.67	     9.899
  36.720         54.17	     8.062
  36.740         71.67	     9.274
  36.760         60.00	     8.485
  36.780         45.83	     7.416
  36.800         50.00	     7.746
  36.820         48.33	     7.616
  36.840         61.67	     8.602
  36.860         45.00	     7.348
  36.880         45.00	     7.348
  36.900         42.50	     7.141
  36.920         49.17	     7.681
  36.940         38.33	     6.782
  36.960         54.17	     8.062
  36.980         60.83	     8.544
  37.000         58.33	     8.367
  37.020         65.00	     8.832
  37.040         50.83	     7.810
  37.060         43.33	     7.211
  37.080         40.00	     6.928
  37.100         50.83	     7.810
  37.120         64.17	     8.775
  37.140         48.33	     7.616
  37.160         51.67	     7.874
  37.180         60.83	     8.544
  37.200         73.33	     9.381
  37.220         72.50	     9.327
  37.240         81.67	     9.899
  37.260         80.00	     9.798
  37.280         70.83	     9.220
  37.300         80.83	     9.849
  37.320         91.67	    10.488
  37.340         70.00	     9.165
  37.360         78.33	     9.695
  37.380         90.83	    10.440
  37.400         74.17	     9.434
  37.420         74.17	     9.434
  37.440         78.33	     9.695
  37.460         82.50	     9.950
  37.480         66.67	     8.944
  37.500         77.50	     9.644
  37.520        101.67	    11.045
  37.540         75.00	     9.487
  37.560        100.00	    10.954
  37.580         82.50	     9.950
  37.600         87.50	    10.247
  37.620         84.17	    10.050
  37.640         78.33	     9.695
  37.660         88.33	    10.296
  37.680         65.00	     8.832
  37.700         80.00	     9.798
  37.720         60.00	     8.485
  37.740         47.50	     7.550
  37.760         79.17	     9.747
  37.780         71.67	     9.274
  37.800         59.17	     8.426
  37.820         56.67	     8.246
  37.840         65.00	     8.832
  37.860         47.50	     7.550
  37.880         56.67	     8.246
  37.900         42.50	     7.141
  37.920         43.33	     7.211
  37.940         45.83	     7.416
  37.960         45.83	     7.416
  37.980         35.83	     6.557
  38.000         39.17	     6.856
  38.020         44.17	     7.280
  38.040         28.33	     5.831
  38.060         43.33	     7.211
  38.080         32.50	     6.245
  38.100         41.67	     7.071
  38.120         46.67	     7.483
  38.140         40.83	     7.000
  38.160         39.17	     6.856
  38.180         39.17	     6.856
  38.200         50.83	     7.810
  38.220         46.67	     7.483
  38.240         50.83	     7.810
  38.260         37.50	     6.708
  38.280         40.00	     6.928
  38.300         45.83	     7.416
  38.320         46.67	     7.483
  38.340         44.17	     7.280
  38.360         51.67	     7.874
  38.380         46.67	     7.483
  38.400         33.33	     6.325
  38.420         50.00	     7.746
  38.440         41.67	     7.071
  38.460         47.50	     7.550
  38.480         45.00	     7.348
  38.500         47.50	     7.550
  38.520         46.67	     7.483
  38.540         66.67	     8.944
  38.560         52.50	     7.937
  38.580         45.00	     7.348
  38.600         40.00	     6.928
  38.620         62.50	     8.660
  38.640         46.67	     7.483
  38.660         67.50	     9.000
  38.680         62.50	     8.660
  38.700         66.67	     8.944
  38.720         68.33	     9.055
  38.740         53.33	     8.000
  38.760         51.67	     7.874
  38.780         59.17	     8.426
  38.800         70.00	     9.165
  38.820         45.83	     7.416
  38.840         44.17	     7.280
  38.860         36.67	     6.633
  38.880         40.00	     6.928
  38.900         49.17	     7.681
  38.920         41.67	     7.071
  38.940         45.00	     7.348
  38.960         34.17	     6.403
  38.980         40.00	     6.928
  39.000         42.50	     7.141
  39.020         46.67	     7.483
  39.040         48.33	     7.616
  39.060         46.67	     7.483
  39.080         50.83	     7.810
  39.100         45.00	     7.348
  39.120         41.67	     7.071
  39.140         43.33	     7.211
  39.160         43.33	     7.211
  39.180         40.00	     6.928
  39.200         51.67	     7.874
  39.220         47.50	     7.550
  39.240         62.50	     8.660
  39.260         43.33	     7.211
  39.280         78.33	     9.695
  39.300        108.33	    11.402
  39.320        152.50	    13.528
  39.340        166.67	    14.142
  39.360        155.00	    13.638
  39.380         88.33	    10.296
  39.400         99.17	    10.909
  39.420        106.67	    11.314
  39.440        137.50	    12.845
  39.460        111.67	    11.576
  39.480         89.17	    10.344
  39.500         71.67	     9.274
  39.520         65.83	     8.888
  39.540         60.00	     8.485
  39.560         51.67	     7.874
  39.580         48.33	     7.616
  39.600         65.00	     8.832
  39.620         54.17	     8.062
  39.640         50.83	     7.810
  39.660         54.17	     8.062
  39.680         55.00	     8.124
  39.700         58.33	     8.367
  39.720         48.33	     7.616
  39.740         54.17	     8.062
  39.760         50.00	     7.746
  39.780         45.83	     7.416
  39.800         67.50	     9.000
  39.820         53.33	     8.000
  39.840         64.17	     8.775
  39.860         59.17	     8.426
  39.880         63.33	     8.718
  39.900         50.00	     7.746
  39.920         50.00	     7.746
  39.940         51.67	     7.874
  39.960         51.67	     7.874
  39.980         50.83	     7.810
  40.000         58.33	     8.367
  40.020         63.33	     8.718
  40.040         45.83	     7.416
  40.060         54.17	     8.062
  40.080         60.00	     8.485
  40.100         68.33	     9.055
  40.120         63.33	     8.718
  40.140         86.67	    10.198
  40.160        139.17	    12.923
  40.180        133.33	    12.649
  40.200        104.17	    11.180
  40.220         84.17	    10.050
  40.240         83.33	    10.000
  40.260         90.00	    10.392
  40.280         89.17	    10.344
  40.300         74.17	     9.434
  40.320         55.00	     8.124
  40.340         49.17	     7.681
  40.360         44.17	     7.280
  40.380         45.00	     7.348
  40.400         47.50	     7.550
  40.420         50.00	     7.746
  40.440         42.50	     7.141
  40.460         40.83	     7.000
  40.480         40.00	     6.928
  40.500         40.83	     7.000
  40.520         51.67	     7.874
  40.540         38.33	     6.782
  40.560         39.17	     6.856
  40.580         47.50	     7.550
  40.600         41.67	     7.071
  40.620         43.33	     7.211
  40.640         46.67	     7.483
  40.660         45.00	     7.348
  40.680         49.17	     7.681
  40.700         50.00	     7.746
  40.720         49.17	     7.681
  40.740         54.17	     8.062
  40.760         54.17	     8.062
  40.780         40.83	     7.000
  40.800         44.17	     7.280
  40.820         52.50	     7.937
  40.840         53.33	     8.000
  40.860         54.17	     8.062
  40.880         43.33	     7.211
  40.900         48.33	     7.616
  40.920         57.50	     8.307
  40.940         52.50	     7.937
  40.960         48.33	     7.616
  40.980         52.50	     7.937
  41.000         62.50	     8.660
  41.020         60.00	     8.485
  41.040         44.17	     7.280
  41.060         51.67	     7.874
  41.080         53.33	     8.000
  41.100         73.33	     9.381
  41.120         67.50	     9.000
  41.140         60.83	     8.544
  41.160         76.67	     9.592
  41.180         74.17	     9.434
  41.200         74.17	     9.434
  41.220         56.67	     8.246
  41.240         56.67	     8.246
  41.260         65.00	     8.832
  41.280         65.83	     8.888
  41.300         75.83	     9.539
  41.320         60.83	     8.544
  41.340         68.33	     9.055
  41.360         45.00	     7.348
  41.380         57.50	     8.307
  41.400         59.17	     8.426
  41.420         55.83	     8.185
  41.440         62.50	     8.660
  41.460         75.00	     9.487
  41.480         90.83	    10.440
  41.500        110.00	    11.489
  41.520        189.17	    15.067
  41.540        190.83	    15.133
  41.560        227.50	    16.523
  41.580        236.67	    16.852
  41.600        260.00	    17.664
  41.620        216.67	    16.125
  41.640        175.00	    14.491
  41.660        159.17	    13.820
  41.680        159.17	    13.820
  41.700        161.67	    13.928
  41.720        158.33	    13.784
  41.740        115.00	    11.747
  41.760        105.00	    11.225
  41.780         74.17	     9.434
  41.800         66.67	     8.944
  41.820         63.33	     8.718
  41.840         70.00	     9.165
  41.860         65.00	     8.832
  41.880         84.17	    10.050
  41.900         74.17	     9.434
  41.920         72.50	     9.327
  41.940         67.50	     9.000
  41.960         60.83	     8.544
  41.980         70.00	     9.165
  42.000         55.83	     8.185
  42.020         54.17	     8.062
  42.040         61.67	     8.602
  42.060         71.67	     9.274
  42.080         63.33	     8.718
  42.100         70.83	     9.220
  42.120         59.17	     8.426
  42.140         70.83	     9.220
  42.160         63.33	     8.718
  42.180         57.50	     8.307
  42.200         70.00	     9.165
  42.220         82.50	     9.950
  42.240         99.17	    10.909
  42.260        120.83	    12.042
  42.280        144.17	    13.153
  42.300        165.83	    14.107
  42.320        243.33	    17.088
  42.340        245.00	    17.146
  42.360        238.33	    16.912
  42.380        217.50	    16.155
  42.400        190.00	    15.100
  42.420        160.00	    13.856
  42.440        174.17	    14.457
  42.460        178.33	    14.629
  42.480        139.17	    12.923
  42.500        112.50	    11.619
  42.520         92.50	    10.536
  42.540         71.67	     9.274
  42.560         60.83	     8.544
  42.580         77.50	     9.644
  42.600         75.83	     9.539
  42.620         50.00	     7.746
  42.640         69.17	     9.110
  42.660         68.33	     9.055
  42.680         57.50	     8.307
  42.700         65.00	     8.832
  42.720         67.50	     9.000
  42.740         80.00	     9.798
  42.760         52.50	     7.937
  42.780         68.33	     9.055
  42.800         52.50	     7.937
  42.820         50.83	     7.810
  42.840         78.33	     9.695
  42.860         61.67	     8.602
  42.880         63.33	     8.718
  42.900         40.83	     7.000
  42.920         54.17	     8.062
  42.940         53.33	     8.000
  42.960         57.50	     8.307
  42.980         59.17	     8.426
  43.000         47.50	     7.550
  43.020         44.17	     7.280
  43.040         50.83	     7.810
  43.060         62.50	     8.660
  43.080         55.00	     8.124
  43.100         55.00	     8.124
  43.120         61.67	     8.602
  43.140         65.83	     8.888
  43.160         60.00	     8.485
  43.180         71.67	     9.274
  43.200         66.67	     8.944
  43.220         66.67	     8.944
  43.240         59.17	     8.426
  43.260         84.17	    10.050
  43.280         67.50	     9.000
  43.300         64.17	     8.775
  43.320         77.50	     9.644
  43.340         85.00	    10.100
  43.360         79.17	     9.747
  43.380        100.00	    10.954
  43.400        110.83	    11.533
  43.420         95.00	    10.677
  43.440        130.83	    12.530
  43.460        103.33	    11.136
  43.480        135.00	    12.728
  43.500        101.67	    11.045
  43.520        124.17	    12.207
  43.540        124.17	    12.207
  43.560        131.67	    12.570
  43.580        105.83	    11.269
  43.600        125.83	    12.288
  43.620        106.67	    11.314
  43.640        117.50	    11.874
  43.660        121.67	    12.083
  43.680        111.67	    11.576
  43.700        117.50	    11.874
  43.720        121.67	    12.083
  43.740        108.33	    11.402
  43.760         90.83	    10.440
  43.780        104.17	    11.180
  43.800         96.67	    10.770
  43.820        106.67	    11.314
  43.840        102.50	    11.091
  43.860        111.67	    11.576
  43.880         99.17	    10.909
  43.900        121.67	    12.083
  43.920        105.00	    11.225
  43.940        121.67	    12.083
  43.960        104.17	    11.180
  43.980        112.50	    11.619
  44.000        134.17	    12.689
  44.020        143.33	    13.115
  44.040        161.67	    13.928
  44.060        157.50	    13.748
  44.080        135.83	    12.767
  44.100        170.83	    14.318
  44.120        164.17	    14.036
  44.140        183.33	    14.832
  44.160        173.33	    14.422
  44.180        200.83	    15.524
  44.200        199.17	    15.460
  44.220        219.17	    16.217
  44.240        225.00	    16.432
  44.260        250.00	    17.321
  44.280        261.67	    17.720
  44.300        281.67	    18.385
  44.320        268.33	    17.944
  44.340        297.50	    18.894
  44.360        316.67	    19.494
  44.380        318.33	    19.545
  44.400        297.50	    18.894
  44.420        304.17	    19.105
  44.440        294.17	    18.788
  44.460        283.33	    18.439
  44.480        301.67	    19.026
  44.500        294.17	    18.788
  44.520        264.17	    17.804
  44.540        256.67	    17.550
  44.560        261.67	    17.720
  44.580        243.33	    17.088
  44.600        220.83	    16.279
  44.620        200.00	    15.492
  44.640        200.83	    15.524
  44.660        169.17	    14.248
  44.680        176.67	    14.560
  44.700        179.17	    14.663
  44.720        155.00	    13.638
  44.740        138.33	    12.884
  44.760        143.33	    13.115
  44.780        152.50	    13.528
  44.800        134.17	    12.689
  44.820        155.83	    13.675
  44.840        152.50	    13.528
  44.860        148.33	    13.342
  44.880        126.67	    12.329
  44.900        115.83	    11.790
  44.920        114.17	    11.705
  44.940        112.50	    11.619
  44.960        124.17	    12.207
  44.980        117.50	    11.874
  45.000        116.67	    11.832
  45.020        120.83	    12.042
  45.040        117.50	    11.874
  45.060        124.17	    12.207
  45.080         91.67	    10.488
  45.100        118.33	    11.916
  45.120        118.33	    11.916
  45.140        118.33	    11.916
  45.160         98.33	    10.863
  45.180        105.83	    11.269
  45.200        122.50	    12.124
  45.220        107.50	    11.358
  45.240         92.50	    10.536
  45.260        126.67	    12.329
  45.280        118.33	    11.916
  45.300        125.00	    12.247
  45.320        141.67	    13.038
  45.340        162.50	    13.964
  45.360        170.00	    14.283
  45.380        186.67	    14.967
  45.400        220.83	    16.279
  45.420        209.17	    15.843
  45.440        196.67	    15.362
  45.460        263.33	    17.776
  45.480        242.50	    17.059
  45.500        265.83	    17.861
  45.520        229.17	    16.583
  45.540        189.17	    15.067
  45.560        174.17	    14.457
  45.580        180.00	    14.697
  45.600        165.00	    14.071
  45.620        174.17	    14.457
  45.640        168.33	    14.213
  45.660        202.50	    15.588
  45.680        222.50	    16.340
  45.700        171.67	    14.353
  45.720        133.33	    12.649
  45.740        101.67	    11.045
  45.760         86.67	    10.198
  45.780        116.67	    11.832
  45.800        125.00	    12.247
  45.820        116.67	    11.832
  45.840         95.83	    10.724
  45.860         57.50	     8.307
  45.880         65.00	     8.832
  45.900         65.83	     8.888
  45.920         57.50	     8.307
  45.940         60.00	     8.485
  45.960         57.50	     8.307
  45.980         50.00	     7.746
  46.000         62.50	     8.660
  46.020         55.83	     8.185
  46.040         53.33	     8.000
  46.060         52.50	     7.937
  46.080         59.17	     8.426
  46.100         49.17	     7.681
  46.120         57.50	     8.307
  46.140         45.83	     7.416
  46.160         50.00	     7.746
  46.180         41.67	     7.071
  46.200         45.00	     7.348
  46.220         39.17	     6.856
  46.240         38.33	     6.782
  46.260         43.33	     7.211
  46.280         40.00	     6.928
  46.300         38.33	     6.782
  46.320         32.50	     6.245
  46.340         45.83	     7.416
  46.360         48.33	     7.616
  46.380         30.00	     6.000
  46.400         40.00	     6.928
  46.420         50.00	     7.746
  46.440         48.33	     7.616
  46.460         58.33	     8.367
  46.480         53.33	     8.000
  46.500         55.00	     8.124
  46.520         58.33	     8.367
  46.540         53.33	     8.000
  46.560         51.67	     7.874
  46.580         39.17	     6.856
  46.600         57.50	     8.307
  46.620         55.83	     8.185
  46.640         55.00	     8.124
  46.660         39.17	     6.856
  46.680         49.17	     7.681
  46.700         56.67	     8.246
  46.720         38.33	     6.782
  46.740         41.67	     7.071
  46.760         38.33	     6.782
  46.780         49.17	     7.681
  46.800         42.50	     7.141
  46.820         43.33	     7.211
  46.840         43.33	     7.211
  46.860         55.83	     8.185
  46.880         50.00	     7.746
  46.900         40.00	     6.928
  46.920         67.50	     9.000
  46.940         63.33	     8.718
  46.960         58.33	     8.367
  46.980         65.00	     8.832
  47.000         65.83	     8.888
  47.020         85.83	    10.149
  47.040         70.83	     9.220
  47.060         68.33	     9.055
  47.080         69.17	     9.110
  47.100         54.17	     8.062
  47.120         58.33	     8.367
  47.140         66.67	     8.944
  47.160         69.17	     9.110
  47.180         51.67	     7.874
  47.200         41.67	     7.071
  47.220         45.83	     7.416
  47.240         46.67	     7.483
  47.260         40.83	     7.000
  47.280         33.33	     6.325
  47.300         35.00	     6.481
  47.320         40.83	     7.000
  47.340         50.00	     7.746
  47.360         40.00	     6.928
  47.380         34.17	     6.403
  47.400         29.17	     5.916
  47.420         35.83	     6.557
  47.440         38.33	     6.782
  47.460         34.17	     6.403
  47.480         40.00	     6.928
  47.500         34.17	     6.403
  47.520         33.33	     6.325
  47.540         36.67	     6.633
  47.560         30.00	     6.000
  47.580         45.83	     7.416
  47.600         31.67	     6.164
  47.620         44.17	     7.280
  47.640         36.67	     6.633
  47.660         41.67	     7.071
  47.680         42.50	     7.141
  47.700         34.17	     6.403
  47.720         40.83	     7.000
  47.740         40.00	     6.928
  47.760         36.67	     6.633
  47.780         50.00	     7.746
  47.800         60.00	     8.485
  47.820         58.33	     8.367
  47.840         80.00	     9.798
  47.860        130.00	    12.490
  47.880         78.33	     9.695
  47.900         70.00	     9.165
  47.920         71.67	     9.274
  47.940         66.67	     8.944
  47.960         65.00	     8.832
  47.980         79.17	     9.747
  48.000         86.67	    10.198
  48.020         98.33	    10.863
  48.040         83.33	    10.000
  48.060         70.00	     9.165
  48.080         83.33	    10.000
  48.100         73.33	     9.381
  48.120         64.17	     8.775
  48.140         42.50	     7.141
  48.160         70.83	     9.220
  48.180         51.67	     7.874
  48.200         69.17	     9.110
  48.220         55.83	     8.185
  48.240         53.33	     8.000
  48.260         50.83	     7.810
  48.280         54.17	     8.062
  48.300         53.33	     8.000
  48.320         40.00	     6.928
  48.340         52.50	     7.937
  48.360         54.17	     8.062
  48.380         40.00	     6.928
  48.400         40.00	     6.928
  48.420         44.17	     7.280
  48.440         40.83	     7.000
  48.460         43.33	     7.211
  48.480         50.83	     7.810
  48.500         37.50	     6.708
  48.520         39.17	     6.856
  48.540         50.00	     7.746
  48.560         37.50	     6.708
  48.580         47.50	     7.550
  48.600         56.67	     8.246
  48.620         47.50	     7.550
  48.640         46.67	     7.483
  48.660         49.17	     7.681
  48.680         45.00	     7.348
  48.700         40.83	     7.000
  48.720         43.33	     7.211
  48.740         43.33	     7.211
  48.760         54.17	     8.062
  48.780         47.50	     7.550
  48.800         42.50	     7.141
  48.820         43.33	     7.211
  48.840         45.00	     7.348
  48.860         38.33	     6.782
  48.880         43.33	     7.211
  48.900         45.83	     7.416
  48.920         41.67	     7.071
  48.940         41.67	     7.071
  48.960         44.17	     7.280
  48.980         48.33	     7.616
  49.000         47.50	     7.550
  49.020         36.67	     6.633
  49.040         35.83	     6.557
  49.060         60.00	     8.485
  49.080         52.50	     7.937
  49.100         60.83	     8.544
  49.120         42.50	     7.141
  49.140         50.83	     7.810
  49.160         40.83	     7.000
  49.180         37.50	     6.708
  49.200         45.00	     7.348
  49.220         53.33	     8.000
  49.240         46.67	     7.483
  49.260         48.33	     7.616
  49.280         43.33	     7.211
  49.300         38.33	     6.782
  49.320         33.33	     6.325
  49.340         46.67	     7.483
  49.360         55.83	     8.185
  49.380         49.17	     7.681
  49.400         45.83	     7.416
  49.420         44.17	     7.280
  49.440         41.67	     7.071
  49.460         48.33	     7.616
  49.480         45.83	     7.416
  49.500         48.33	     7.616
  49.520         50.00	     7.746
  49.540         50.83	     7.810
  49.560         46.67	     7.483
  49.580         45.00	     7.348
  49.600         55.83	     8.185
  49.620         56.67	     8.246
  49.640         65.00	     8.832
  49.660         58.33	     8.367
  49.680         59.17	     8.426
  49.700         42.50	     7.141
  49.720         54.17	     8.062
  49.740         55.83	     8.185
  49.760         65.83	     8.888
  49.780         86.67	    10.198
  49.800        100.00	    10.954
  49.820         84.17	    10.050
  49.840         92.50	    10.536
  49.860         93.33	    10.583
  49.880        100.00	    10.954
  49.900         74.17	     9.434
  49.920         92.50	    10.536
  49.940        133.33	    12.649
  49.960        168.33	    14.213
  49.980        235.00	    16.793
  50.000        266.67	    17.889
  50.020        366.67	    20.976
  50.040        273.33	    18.111
  50.060        190.83	    15.133
  50.080        143.33	    13.115
  50.100        119.17	    11.958
  50.120        152.50	    13.528
  50.140        173.33	    14.422
  50.160        203.33	    15.620
  50.180        135.00	    12.728
  50.200         99.17	    10.909
  50.220         96.67	    10.770
  50.240         61.67	     8.602
  50.260         65.00	     8.832
  50.280         52.50	     7.937
  50.300         65.00	     8.832
  50.320         68.33	     9.055
  50.340         58.33	     8.367
  50.360         58.33	     8.367
  50.380         75.00	     9.487
  50.400         70.00	     9.165
  50.420         76.67	     9.592
  50.440         98.33	    10.863
  50.460        104.17	    11.180
  50.480         87.50	    10.247
  50.500         62.50	     8.660
  50.520         74.17	     9.434
  50.540         60.00	     8.485
  50.560         69.17	     9.110
  50.580         99.17	    10.909
  50.600         69.17	     9.110
  50.620         72.50	     9.327
  50.640         70.00	     9.165
  50.660         52.50	     7.937
  50.680         50.00	     7.746
  50.700         45.83	     7.416
  50.720         45.83	     7.416
  50.740         44.17	     7.280
  50.760         50.00	     7.746
  50.780         43.33	     7.211
  50.800         47.50	     7.550
  50.820         42.50	     7.141
  50.840         35.83	     6.557
  50.860         30.83	     6.083
  50.880         31.67	     6.164
  50.900         31.67	     6.164
  50.920         45.00	     7.348
  50.940         50.83	     7.810
  50.960         35.00	     6.481
  50.980         43.33	     7.211
  51.000         59.17	     8.426
  51.020         71.67	     9.274
  51.040         65.83	     8.888
  51.060         55.00	     8.124
  51.080         45.83	     7.416
  51.100         60.83	     8.544
  51.120         60.83	     8.544
  51.140         55.83	     8.185
  51.160         68.33	     9.055
  51.180         49.17	     7.681
  51.200         40.00	     6.928
  51.220         50.00	     7.746
  51.240         49.17	     7.681
  51.260         45.83	     7.416
  51.280         36.67	     6.633
  51.300         39.17	     6.856
  51.320         35.00	     6.481
  51.340         34.17	     6.403
  51.360         41.67	     7.071
  51.380         35.83	     6.557
  51.400         35.00	     6.481
  51.420         50.00	     7.746
  51.440         40.83	     7.000
  51.460         30.83	     6.083
  51.480         35.83	     6.557
  51.500         45.83	     7.416
  51.520         36.67	     6.633
  51.540         32.50	     6.245
  51.560         31.67	     6.164
  51.580         37.50	     6.708
  51.600         46.67	     7.483
  51.620         39.17	     6.856
  51.640         29.17	     5.916
  51.660         30.00	     6.000
  51.680         32.50	     6.245
  51.700         36.67	     6.633
  51.720         27.50	     5.745
  51.740         28.33	     5.831
  51.760         29.17	     5.916
  51.780         27.50	     5.745
  51.800         37.50	     6.708
  51.820         40.00	     6.928
  51.840         34.17	     6.403
  51.860         39.17	     6.856
  51.880         37.50	     6.708
  51.900         40.00	     6.928
  51.920         34.17	     6.403
  51.940         41.67	     7.071
  51.960         37.50	     6.708
  51.980         52.50	     7.937
  52.000         62.50	     8.660
  52.020         53.33	     8.000
  52.040         56.67	     8.246
  52.060         54.17	     8.062
  52.080         30.83	     6.083
  52.100         35.83	     6.557
  52.120         40.00	     6.928
  52.140         46.67	     7.483
  52.160         44.17	     7.280
  52.180         58.33	     8.367
  52.200         53.33	     8.000
  52.220         44.17	     7.280
  52.240         50.00	     7.746
  52.260         40.83	     7.000
  52.280         46.67	     7.483
  52.300         47.50	     7.550
  52.320         48.33	     7.616
  52.340         50.00	     7.746
  52.360         47.50	     7.550
  52.380         45.83	     7.416
  52.400         52.50	     7.937
  52.420         50.83	     7.810
  52.440         52.50	     7.937
  52.460         50.83	     7.810
  52.480         32.50	     6.245
  52.500         32.50	     6.245
  52.520         48.33	     7.616
  52.540         47.50	     7.550
  52.560         45.83	     7.416
  52.580         34.17	     6.403
  52.600         40.83	     7.000
  52.620         33.33	     6.325
  52.640         47.50	     7.550
  52.660         50.83	     7.810
  52.680         38.33	     6.782
  52.700         54.17	     8.062
  52.720         55.00	     8.124
  52.740         69.17	     9.110
  52.760         67.50	     9.000
  52.780         49.17	     7.681
  52.800         49.17	     7.681
  52.820         44.17	     7.280
  52.840         45.83	     7.416
  52.860         62.50	     8.660
  52.880         52.50	     7.937
  52.900         63.33	     8.718
  52.920         46.67	     7.483
  52.940         40.83	     7.000
  52.960         44.17	     7.280
  52.980         46.67	     7.483
  53.000         50.83	     7.810
  53.020         54.17	     8.062
  53.040         52.50	     7.937
  53.060         61.67	     8.602
  53.080         62.50	     8.660
  53.100         57.50	     8.307
  53.120         59.17	     8.426
  53.140         58.33	     8.367
  53.160         56.67	     8.246
  53.180         47.50	     7.550
  53.200         50.83	     7.810
  53.220         45.00	     7.348
  53.240         59.17	     8.426
  53.260         58.33	     8.367
  53.280         55.00	     8.124
  53.300         35.83	     6.557
  53.320         52.50	     7.937
  53.340         37.50	     6.708
  53.360         33.33	     6.325
  53.380         46.67	     7.483
  53.400         40.00	     6.928
  53.420         35.83	     6.557
  53.440         49.17	     7.681
  53.460         40.83	     7.000
  53.480         43.33	     7.211
  53.500         31.67	     6.164
  53.520         39.17	     6.856
  53.540         35.00	     6.481
  53.560         43.33	     7.211
  53.580         32.50	     6.245
  53.600         48.33	     7.616
  53.620         41.67	     7.071
  53.640         52.50	     7.937
  53.660         32.50	     6.245
  53.680         37.50	     6.708
  53.700         36.67	     6.633
  53.720         25.83	     5.568
  53.740         38.33	     6.782
  53.760         43.33	     7.211
  53.780         52.50	     7.937
  53.800         40.83	     7.000
  53.820         45.00	     7.348
  53.840         37.50	     6.708
  53.860         33.33	     6.325
  53.880         32.50	     6.245
  53.900         37.50	     6.708
  53.920         32.50	     6.245
  53.940         35.00	     6.481
  53.960         39.17	     6.856
  53.980         42.50	     7.141
  54.000         34.17	     6.403
  54.020         42.50	     7.141
  54.040         35.83	     6.557
  54.060         39.17	     6.856
  54.080         41.67	     7.071
  54.100         36.67	     6.633
  54.120         37.50	     6.708
  54.140         39.17	     6.856
  54.160         51.67	     7.874
  54.180         55.00	     8.124
  54.200         40.00	     6.928
  54.220         51.67	     7.874
  54.240         44.17	     7.280
  54.260         42.50	     7.141
  54.280         43.33	     7.211
  54.300         52.50	     7.937
  54.320         46.67	     7.483
  54.340         43.33	     7.211
  54.360         60.83	     8.544
  54.380         40.00	     6.928
  54.400         56.67	     8.246
  54.420         50.00	     7.746
  54.440         49.17	     7.681
  54.460         46.67	     7.483
  54.480         52.50	     7.937
  54.500         73.33	     9.381
  54.520        104.17	    11.180
  54.540        117.50	    11.874
  54.560        120.83	    12.042
  54.580        135.83	    12.767
  54.600         93.33	    10.583
  54.620         84.17	    10.050
  54.640         79.17	     9.747
  54.660         75.83	     9.539
  54.680        106.67	    11.314
  54.700        123.33	    12.166
  54.720        137.50	    12.845
  54.740        143.33	    13.115
  54.760        120.00	    12.000
  54.780         99.17	    10.909
  54.800         75.83	     9.539
  54.820         70.00	     9.165
  54.840         65.00	     8.832
  54.860         64.17	     8.775
  54.880         83.33	    10.000
  54.900         90.83	    10.440
  54.920         95.00	    10.677
  54.940         73.33	     9.381
  54.960         60.83	     8.544
  54.980         53.33	     8.000
  55.000         49.17	     7.681
  55.020         56.67	     8.246
  55.040         60.83	     8.544
  55.060         56.67	     8.246
  55.080         85.00	    10.100
  55.100         64.17	     8.775
  55.120         75.83	     9.539
  55.140         67.50	     9.000
  55.160         74.17	     9.434
  55.180        100.83	    11.000
  55.200        107.50	    11.358
  55.220        107.50	    11.358
  55.240         77.50	     9.644
  55.260         70.00	     9.165
  55.280         72.50	     9.327
  55.300         77.50	     9.644
  55.320         60.83	     8.544
  55.340         86.67	    10.198
  55.360         80.83	     9.849
  55.380         78.33	     9.695
  55.400         68.33	     9.055
  55.420         49.17	     7.681
  55.440         49.17	     7.681
  55.460         49.17	     7.681
  55.480         51.67	     7.874
  55.500         69.17	     9.110
  55.520         55.00	     8.124
  55.540         47.50	     7.550
  55.560         50.83	     7.810
  55.580         67.50	     9.000
  55.600         55.83	     8.185
  55.620         66.67	     8.944
  55.640         71.67	     9.274
  55.660         61.67	     8.602
  55.680         70.00	     9.165
  55.700         80.00	     9.798
  55.720         66.67	     8.944
  55.740         57.50	     8.307
  55.760         69.17	     9.110
  55.780         64.17	     8.775
  55.800         64.17	     8.775
  55.820         60.00	     8.485
  55.840         65.83	     8.888
  55.860         68.33	     9.055
  55.880         58.33	     8.367
  55.900         56.67	     8.246
  55.920         63.33	     8.718
  55.940         51.67	     7.874
  55.960         65.83	     8.888
  55.980         54.17	     8.062
  56.000         58.33	     8.367
  56.020         48.33	     7.616
  56.040         43.33	     7.211
  56.060         53.33	     8.000
  56.080         48.33	     7.616
  56.100         42.50	     7.141
  56.120         43.33	     7.211
  56.140         38.33	     6.782
  56.160         35.83	     6.557
  56.180         40.83	     7.000
  56.200         36.67	     6.633
  56.220         36.67	     6.633
  56.240         50.00	     7.746
  56.260         44.17	     7.280
  56.280         38.33	     6.782
  56.300         42.50	     7.141
  56.320         43.33	     7.211
  56.340         32.50	     6.245
  56.360         31.67	     6.164
  56.380         40.00	     6.928
  56.400         35.83	     6.557
  56.420         35.00	     6.481
  56.440         35.00	     6.481
  56.460         35.83	     6.557
  56.480         50.00	     7.746
  56.500         36.67	     6.633
  56.520         50.83	     7.810
  56.540         57.50	     8.307
  56.560         51.67	     7.874
  56.580         60.00	     8.485
  56.600         40.00	     6.928
  56.620         43.33	     7.211
  56.640         45.83	     7.416
  56.660         41.67	     7.071
  56.680         45.00	     7.348
  56.700         44.17	     7.280
  56.720         55.00	     8.124
  56.740         55.00	     8.124
  56.760         45.00	     7.348
  56.780         47.50	     7.550
  56.800         55.83	     8.185
  56.820         37.50	     6.708
  56.840         44.17	     7.280
  56.860         35.83	     6.557
  56.880         51.67	     7.874
  56.900         35.83	     6.557
  56.920         36.67	     6.633
  56.940         28.33	     5.831
  56.960         45.83	     7.416
  56.980         38.33	     6.782
  57.000         43.33	     7.211
  57.020         45.83	     7.416
  57.040         35.83	     6.557
  57.060         36.67	     6.633
  57.080         40.83	     7.000
  57.100         40.00	     6.928
  57.120         33.33	     6.325
  57.140         53.33	     8.000
  57.160         35.83	     6.557
  57.180         35.83	     6.557
  57.200         48.33	     7.616
  57.220         38.33	     6.782
  57.240         32.50	     6.245
  57.260         40.83	     7.000
  57.280         39.17	     6.856
  57.300         46.67	     7.483
  57.320         33.33	     6.325
  57.340         46.67	     7.483
  57.360         35.00	     6.481
  57.380         33.33	     6.325
  57.400         44.17	     7.280
  57.420         59.17	     8.426
  57.440         49.17	     7.681
  57.460         62.50	     8.660
  57.480         71.67	     9.274
  57.500         50.00	     7.746
  57.520         46.67	     7.483
  57.540         38.33	     6.782
  57.560         48.33	     7.616
  57.580         45.00	     7.348
  57.600         38.33	     6.782
  57.620         45.00	     7.348
  57.640         59.17	     8.426
  57.660         58.33	     8.367
  57.680         58.33	     8.367
  57.700         54.17	     8.062
  57.720         41.67	     7.071
  57.740         39.17	     6.856
  57.760         37.50	     6.708
  57.780         37.50	     6.708
  57.800         35.00	     6.481
  57.820         50.00	     7.746
  57.840         60.83	     8.544
  57.860         47.50	     7.550
  57.880         38.33	     6.782
  57.900         43.33	     7.211
  57.920         43.33	     7.211
  57.940         49.17	     7.681
  57.960         42.50	     7.141
  57.980         50.83	     7.810
  58.000         58.33	     8.367
  58.020         45.00	     7.348
  58.040         40.83	     7.000
  58.060         49.17	     7.681
  58.080         49.17	     7.681
  58.100         44.17	     7.280
  58.120         48.33	     7.616
  58.140         48.33	     7.616
  58.160         52.50	     7.937
  58.180         50.00	     7.746
  58.200         45.00	     7.348
  58.220         45.00	     7.348
  58.240         38.33	     6.782
  58.260         43.33	     7.211
  58.280         35.00	     6.481
  58.300         45.00	     7.348
  58.320         46.67	     7.483
  58.340         35.00	     6.481
  58.360         37.50	     6.708
  58.380         47.50	     7.550
  58.400         60.00	     8.485
  58.420         45.83	     7.416
  58.440         54.17	     8.062
  58.460         60.00	     8.485
  58.480         76.67	     9.592
  58.500         77.50	     9.644
  58.520         63.33	     8.718
  58.540         45.83	     7.416
  58.560         58.33	     8.367
  58.580         61.67	     8.602
  58.600         75.00	     9.487
  58.620         61.67	     8.602
  58.640         57.50	     8.307
  58.660         55.83	     8.185
  58.680         53.33	     8.000
  58.700         53.33	     8.000
  58.720         65.00	     8.832
  58.740         45.00	     7.348
  58.760         55.00	     8.124
  58.780         68.33	     9.055
  58.800         50.00	     7.746
  58.820         41.67	     7.071
  58.840         50.00	     7.746
  58.860         52.50	     7.937
  58.880         35.83	     6.557
  58.900         53.33	     8.000
  58.920         48.33	     7.616
  58.940         57.50	     8.307
  58.960         49.17	     7.681
  58.980         43.33	     7.211
  59.000         64.17	     8.775
  59.020         66.67	     8.944
  59.040         65.00	     8.832
  59.060         52.50	     7.937
  59.080         64.17	     8.775
  59.100         60.00	     8.485
  59.120         49.17	     7.681
  59.140         65.83	     8.888
  59.160         59.17	     8.426
  59.180         59.17	     8.426
  59.200         45.00	     7.348
  59.220         52.50	     7.937
  59.240         45.83	     7.416
  59.260         45.83	     7.416
  59.280         56.67	     8.246
  59.300         59.17	     8.426
  59.320         60.83	     8.544
  59.340         44.17	     7.280
  59.360         45.00	     7.348
  59.380         51.67	     7.874
  59.400         38.33	     6.782
  59.420         39.17	     6.856
  59.440         45.83	     7.416
  59.460         48.33	     7.616
  59.480         53.33	     8.000
  59.500         62.50	     8.660
  59.520         44.17	     7.280
  59.540         41.67	     7.071
  59.560         55.00	     8.124
  59.580         54.17	     8.062
  59.600         44.17	     7.280
  59.620         51.67	     7.874
  59.640         40.00	     6.928
  59.660         57.50	     8.307
  59.680         65.83	     8.888
  59.700         72.50	     9.327
  59.720         90.83	    10.440
  59.740         85.00	    10.100
  59.760         90.00	    10.392
  59.780        109.17	    11.446
  59.800        143.33	    13.115
  59.820        194.17	    15.264
  59.840        230.00	    16.613
  59.860        197.50	    15.395
  59.880        159.17	    13.820
  59.900        141.67	    13.038
  59.920        102.50	    11.091
  59.940         96.67	    10.770
  59.960        125.00	    12.247
  59.980        135.83	    12.767
  60.000        140.83	    13.000
  60.020        124.17	    12.207
  60.040        114.17	    11.705
  60.060         85.83	    10.149
  60.080         74.17	     9.434
  60.100         58.33	     8.367
  60.120         53.33	     8.000
  60.140         61.67	     8.602
  60.160         61.67	     8.602
  60.180         51.67	     7.874
  60.200         56.67	     8.246
  60.220         50.83	     7.810
  60.240         46.67	     7.483
  60.260         66.67	     8.944
  60.280         50.00	     7.746
  60.300         53.33	     8.000
  60.320         64.17	     8.775
  60.340         40.00	     6.928
  60.360         37.50	     6.708
  60.380         40.00	     6.928
  60.400         49.17	     7.681
  60.420         48.33	     7.616
  60.440         51.67	     7.874
  60.460         45.00	     7.348
  60.480         38.33	     6.782
  60.500         55.83	     8.185
  60.520         61.67	     8.602
  60.540         49.17	     7.681
  60.560         52.50	     7.937
  60.580         47.50	     7.550
  60.600         51.67	     7.874
  60.620         49.17	     7.681
  60.640         59.17	     8.426
  60.660         61.67	     8.602
  60.680         58.33	     8.367
  60.700         54.17	     8.062
  60.720         50.83	     7.810
  60.740         51.67	     7.874
  60.760         65.00	     8.832
  60.780         54.17	     8.062
  60.800         61.67	     8.602
  60.820         62.50	     8.660
  60.840         58.33	     8.367
  60.860         56.67	     8.246
  60.880         62.50	     8.660
  60.900         64.17	     8.775
  60.920         50.00	     7.746
  60.940         47.50	     7.550
  60.960         46.67	     7.483
  60.980         60.83	     8.544
  61.000         59.17	     8.426
  61.020         45.83	     7.416
  61.040         70.00	     9.165
  61.060         46.67	     7.483
  61.080         59.17	     8.426
  61.100         55.83	     8.185
  61.120         44.17	     7.280
  61.140         56.67	     8.246
  61.160         51.67	     7.874
  61.180         55.00	     8.124
  61.200         65.83	     8.888
  61.220         65.00	     8.832
  61.240         56.67	     8.246
  61.260         62.50	     8.660
  61.280         73.33	     9.381
  61.300         80.83	     9.849
  61.320         78.33	     9.695
  61.340         94.17	    10.630
  61.360         76.67	     9.592
  61.380         75.00	     9.487
  61.400         75.83	     9.539
  61.420         75.00	     9.487
  61.440         60.00	     8.485
  61.460         81.67	     9.899
  61.480         93.33	    10.583
  61.500         93.33	    10.583
  61.520         86.67	    10.198
  61.540         77.50	     9.644
  61.560         78.33	     9.695
  61.580         74.17	     9.434
  61.600         61.67	     8.602
  61.620         55.00	     8.124
  61.640         62.50	     8.660
  61.660         63.33	     8.718
  61.680         60.00	     8.485
  61.700         65.00	     8.832
  61.720         45.83	     7.416
  61.740         62.50	     8.660
  61.760         55.00	     8.124
  61.780         60.00	     8.485
  61.800         54.17	     8.062
  61.820         57.50	     8.307
  61.840         53.33	     8.000
  61.860         64.17	     8.775
  61.880         68.33	     9.055
  61.900         66.67	     8.944
  61.920         52.50	     7.937
  61.940         54.17	     8.062
  61.960         41.67	     7.071
  61.980         42.50	     7.141
  62.000         55.83	     8.185
  62.020         40.83	     7.000
  62.040         62.50	     8.660
  62.060         65.00	     8.832
  62.080         51.67	     7.874
  62.100         52.50	     7.937
  62.120         44.17	     7.280
  62.140         49.17	     7.681
  62.160         45.00	     7.348
  62.180         46.67	     7.483
  62.200         48.33	     7.616
  62.220         33.33	     6.325
  62.240         43.33	     7.211
  62.260         39.17	     6.856
  62.280         45.83	     7.416
  62.300         35.00	     6.481
  62.320         42.50	     7.141
  62.340         37.50	     6.708
  62.360         31.67	     6.164
  62.380         51.67	     7.874
  62.400         43.33	     7.211
  62.420         50.83	     7.810
  62.440         28.33	     5.831
  62.460         51.67	     7.874
  62.480         44.17	     7.280
  62.500         48.33	     7.616
  62.520         44.17	     7.280
  62.540         43.33	     7.211
  62.560         45.00	     7.348
  62.580         40.83	     7.000
  62.600         43.33	     7.211
  62.620         44.17	     7.280
  62.640         35.83	     6.557
  62.660         40.00	     6.928
  62.680         42.50	     7.141
  62.700         48.33	     7.616
  62.720         38.33	     6.782
  62.740         40.00	     6.928
  62.760         42.50	     7.141
  62.780         31.67	     6.164
  62.800         47.50	     7.550
  62.820         43.33	     7.211
  62.840         35.00	     6.481
  62.860         42.50	     7.141
  62.880         41.67	     7.071
  62.900         34.17	     6.403
  62.920         52.50	     7.937
  62.940         38.33	     6.782
  62.960         35.83	     6.557
  62.980         35.00	     6.481
  63.000         40.83	     7.000
  63.020         41.67	     7.071
  63.040         49.17	     7.681
  63.060         34.17	     6.403
  63.080         40.83	     7.000
  63.100         38.33	     6.782
  63.120         45.00	     7.348
  63.140         45.83	     7.416
  63.160         49.17	     7.681
  63.180         44.17	     7.280
  63.200         52.50	     7.937
  63.220         42.50	     7.141
  63.240         48.33	     7.616
  63.260         49.17	     7.681
  63.280         44.17	     7.280
  63.300         32.50	     6.245
  63.320         56.67	     8.246
  63.340         48.33	     7.616
  63.360         65.83	     8.888
  63.380         53.33	     8.000
  63.400         43.33	     7.211
  63.420         46.67	     7.483
  63.440         35.83	     6.557
  63.460         48.33	     7.616
  63.480         41.67	     7.071
  63.500         42.50	     7.141
  63.520         56.67	     8.246
  63.540         51.67	     7.874
  63.560         45.00	     7.348
  63.580         40.83	     7.000
  63.600         60.83	     8.544
  63.620         51.67	     7.874
  63.640         48.33	     7.616
  63.660         64.17	     8.775
  63.680         60.83	     8.544
  63.700         51.67	     7.874
  63.720         50.83	     7.810
  63.740         61.67	     8.602
  63.760         60.83	     8.544
  63.780         67.50	     9.000
  63.800         52.50	     7.937
  63.820         66.67	     8.944
  63.840         65.00	     8.832
  63.860         70.00	     9.165
  63.880         92.50	    10.536
  63.900         92.50	    10.536
  63.920        110.00	    11.489
  63.940        111.67	    11.576
  63.960        100.83	    11.000
  63.980         90.83	    10.440
  64.000         70.83	     9.220
  64.020         76.67	     9.592
  64.040         73.33	     9.381
  64.060         88.33	    10.296
  64.080         67.50	     9.000
  64.100         80.00	     9.798
  64.120         80.83	     9.849
  64.140         60.00	     8.485
  64.160         65.00	     8.832
  64.180         60.83	     8.544
  64.200         55.83	     8.185
  64.220         52.50	     7.937
  64.240         48.33	     7.616
  64.260         55.00	     8.124
  64.280         63.33	     8.718
  64.300         60.83	     8.544
  64.320         49.17	     7.681
  64.340         57.50	     8.307
  64.360         62.50	     8.660
  64.380         52.50	     7.937
  64.400         47.50	     7.550
  64.420         52.50	     7.937
  64.440         43.33	     7.211
  64.460         50.83	     7.810
  64.480         68.33	     9.055
  64.500         68.33	     9.055
  64.520         88.33	    10.296
  64.540         91.67	    10.488
  64.560         90.83	    10.440
  64.580         81.67	     9.899
  64.600         70.00	     9.165
  64.620         80.83	     9.849
  64.640         68.33	     9.055
  64.660         60.83	     8.544
  64.680         44.17	     7.280
  64.700         83.33	    10.000
  64.720         71.67	     9.274
  64.740         73.33	     9.381
  64.760         78.33	     9.695
  64.780         53.33	     8.000
  64.800         59.17	     8.426
  64.820         51.67	     7.874
  64.840         61.67	     8.602
  64.860         59.17	     8.426
  64.880         50.83	     7.810
  64.900         55.00	     8.124
  64.920         68.33	     9.055
  64.940         66.67	     8.944
  64.960         80.00	     9.798
  64.980         66.67	     8.944
  65.000         68.33	     9.055
