
Filename:
	C:\Program Files\Thermo Electron\WinXRD\Datafiles\F_HERMAN\FIEN\G27A_FT.raw

File Created:
	October 02, 2019 - 05:06 PM

Specimen Id:
	G27A FT

Specimen Name:
	

Specimen Description:
	

Comment:
Scan Type: 2Theta Scan
Start Angle: 1 deg.
Stop Angle: 65 deg.
Num Points: 3201
Step Size: 0.02 deg.
Scan Rate: 1.000000
Scan Mode: Continuous
Wavelength: 1.540562
\Kalpha1: 1.540562	\Kalpha2: 1.544390	\Kbeta: 1.392218

Optics:
		Detector:
			 Type: Fixed Slits
		Tube: 
			 Type: Fixed Slits


Datas:
 Pos [deg]       Rate [CPS]      ESD [-]

Range 1 ---> Iteration 1
   1.000          0.00	     0.000
   1.020          0.00	     0.000
   1.040          0.00	     0.000
   1.060          0.00	     0.000
   1.080          0.00	     0.000
   1.100          0.00	     0.000
   1.120        511.67	    24.779
   1.140        579.17	    26.363
   1.160        305.83	    19.157
   1.180        269.17	    17.972
   1.200        240.83	    17.000
   1.220        278.33	    18.276
   1.240        264.17	    17.804
   1.260        459.17	    23.473
   1.280        378.33	    21.307
   1.300        335.00	    20.050
   1.320        360.00	    20.785
   1.340        300.83	    19.000
   1.360        319.17	    19.570
   1.380        436.67	    22.891
   1.400        495.00	    24.372
   1.420        645.00	    27.821
   1.440        964.17	    34.015
   1.460       1204.17	    38.013
   1.480       2064.17	    49.769
   1.500       2398.33	    53.647
   1.520       2611.67	    55.982
   1.540       2530.00	    55.100
   1.560       2681.67	    56.727
   1.580       2424.17	    53.935
   1.600       2336.67	    52.953
   1.620       2420.83	    53.898
   1.640       2347.50	    53.075
   1.660       2305.83	    52.602
   1.680       2440.83	    54.120
   1.700       2350.00	    53.104
   1.720       2284.17	    52.355
   1.740       2165.00	    50.971
   1.760       2180.83	    51.157
   1.780       2080.00	    49.960
   1.800       1967.50	    48.590
   1.820       1816.67	    46.690
   1.840       1568.33	    43.382
   1.860       1482.50	    42.178
   1.880       1285.00	    39.268
   1.900       1150.83	    37.162
   1.920       1062.50	    35.707
   1.940        897.50	    32.818
   1.960        885.00	    32.588
   1.980        695.83	    28.896
   2.000        759.17	    30.183
   2.020        715.83	    29.309
   2.040        697.50	    28.931
   2.060        730.83	    29.614
   2.080        713.33	    29.257
   2.100        690.00	    28.775
   2.120        709.17	    29.172
   2.140        690.83	    28.792
   2.160        654.17	    28.018
   2.180        649.17	    27.911
   2.200        705.83	    29.103
   2.220        627.50	    27.441
   2.240        615.83	    27.185
   2.260        628.33	    27.459
   2.280        625.83	    27.404
   2.300        585.83	    26.514
   2.320        590.00	    26.608
   2.340        565.00	    26.038
   2.360        598.33	    26.796
   2.380        581.67	    26.420
   2.400        585.83	    26.514
   2.420        533.33	    25.298
   2.440        532.50	    25.278
   2.460        545.83	    25.593
   2.480        566.67	    26.077
   2.500        527.50	    25.159
   2.520        540.83	    25.475
   2.540        527.50	    25.159
   2.560        490.00	    24.249
   2.580        448.33	    23.195
   2.600        520.00	    24.980
   2.620        510.83	    24.759
   2.640        482.50	    24.062
   2.660        468.33	    23.707
   2.680        483.33	    24.083
   2.700        475.00	    23.875
   2.720        475.00	    23.875
   2.740        445.83	    23.130
   2.760        477.50	    23.937
   2.780        439.17	    22.956
   2.800        451.67	    23.281
   2.820        430.00	    22.716
   2.840        460.00	    23.495
   2.860        443.33	    23.065
   2.880        447.50	    23.173
   2.900        409.17	    22.159
   2.920        425.83	    22.605
   2.940        424.17	    22.561
   2.960        410.83	    22.204
   2.980        412.50	    22.249
   3.000        400.83	    21.932
   3.020        407.50	    22.113
   3.040        417.50	    22.383
   3.060        417.50	    22.383
   3.080        395.00	    21.772
   3.100        385.00	    21.494
   3.120        372.50	    21.142
   3.140        379.17	    21.331
   3.160        404.17	    22.023
   3.180        412.50	    22.249
   3.200        387.50	    21.564
   3.220        381.67	    21.401
   3.240        400.83	    21.932
   3.260        365.00	    20.928
   3.280        375.83	    21.237
   3.300        371.67	    21.119
   3.320        379.17	    21.331
   3.340        375.83	    21.237
   3.360        330.00	    19.900
   3.380        333.33	    20.000
   3.400        355.83	    20.664
   3.420        325.83	    19.774
   3.440        350.83	    20.518
   3.460        364.17	    20.905
   3.480        360.00	    20.785
   3.500        322.50	    19.672
   3.520        341.67	    20.248
   3.540        325.00	    19.748
   3.560        355.00	    20.640
   3.580        355.00	    20.640
   3.600        307.50	    19.209
   3.620        342.50	    20.273
   3.640        320.00	    19.596
   3.660        319.17	    19.570
   3.680        342.50	    20.273
   3.700        321.67	    19.647
   3.720        323.33	    19.698
   3.740        317.50	    19.519
   3.760        335.00	    20.050
   3.780        327.50	    19.824
   3.800        321.67	    19.647
   3.820        315.00	    19.442
   3.840        308.33	    19.235
   3.860        274.17	    18.138
   3.880        315.00	    19.442
   3.900        302.50	    19.053
   3.920        299.17	    18.947
   3.940        274.17	    18.138
   3.960        290.83	    18.682
   3.980        293.33	    18.762
   4.000        279.17	    18.303
   4.020        275.00	    18.166
   4.040        277.50	    18.248
   4.060        276.67	    18.221
   4.080        303.33	    19.079
   4.100        263.33	    17.776
   4.120        271.67	    18.055
   4.140        260.83	    17.692
   4.160        284.17	    18.466
   4.180        272.50	    18.083
   4.200        255.00	    17.493
   4.220        265.83	    17.861
   4.240        253.33	    17.436
   4.260        276.67	    18.221
   4.280        250.83	    17.349
   4.300        255.00	    17.493
   4.320        253.33	    17.436
   4.340        269.17	    17.972
   4.360        257.50	    17.578
   4.380        256.67	    17.550
   4.400        276.67	    18.221
   4.420        231.67	    16.673
   4.440        275.83	    18.193
   4.460        254.17	    17.464
   4.480        245.83	    17.176
   4.500        266.67	    17.889
   4.520        233.33	    16.733
   4.540        283.33	    18.439
   4.560        237.50	    16.882
   4.580        242.50	    17.059
   4.600        241.67	    17.029
   4.620        240.00	    16.971
   4.640        209.17	    15.843
   4.660        236.67	    16.852
   4.680        241.67	    17.029
   4.700        229.17	    16.583
   4.720        219.17	    16.217
   4.740        265.00	    17.833
   4.760        235.83	    16.823
   4.780        210.83	    15.906
   4.800        219.17	    16.217
   4.820        233.33	    16.733
   4.840        225.83	    16.462
   4.860        236.67	    16.852
   4.880        268.33	    17.944
   4.900        229.17	    16.583
   4.920        229.17	    16.583
   4.940        213.33	    16.000
   4.960        211.67	    15.937
   4.980        230.83	    16.643
   5.000        194.17	    15.264
   5.020        198.33	    15.427
   5.040        260.00	    17.664
   5.060        230.00	    16.613
   5.080        184.17	    14.866
   5.100        220.00	    16.248
   5.120        211.67	    15.937
   5.140        210.00	    15.875
   5.160        229.17	    16.583
   5.180        213.33	    16.000
   5.200        200.00	    15.492
   5.220        207.50	    15.780
   5.240        222.50	    16.340
   5.260        187.50	    15.000
   5.280        202.50	    15.588
   5.300        213.33	    16.000
   5.320        186.67	    14.967
   5.340        197.50	    15.395
   5.360        207.50	    15.780
   5.380        203.33	    15.620
   5.400        211.67	    15.937
   5.420        202.50	    15.588
   5.440        198.33	    15.427
   5.460        208.33	    15.811
   5.480        210.00	    15.875
   5.500        226.67	    16.492
   5.520        205.00	    15.684
   5.540        203.33	    15.620
   5.560        181.67	    14.765
   5.580        201.67	    15.556
   5.600        195.83	    15.330
   5.620        214.17	    16.031
   5.640        192.50	    15.199
   5.660        200.83	    15.524
   5.680        191.67	    15.166
   5.700        194.17	    15.264
   5.720        228.33	    16.553
   5.740        220.83	    16.279
   5.760        239.17	    16.941
   5.780        251.67	    17.378
   5.800        241.67	    17.029
   5.820        235.00	    16.793
   5.840        256.67	    17.550
   5.860        251.67	    17.378
   5.880        275.00	    18.166
   5.900        235.83	    16.823
   5.920        226.67	    16.492
   5.940        223.33	    16.371
   5.960        232.50	    16.703
   5.980        249.17	    17.292
   6.000        254.17	    17.464
   6.020        263.33	    17.776
   6.040        275.83	    18.193
   6.060        266.67	    17.889
   6.080        290.83	    18.682
   6.100        272.50	    18.083
   6.120        283.33	    18.439
   6.140        281.67	    18.385
   6.160        315.83	    19.468
   6.180        279.17	    18.303
   6.200        235.83	    16.823
   6.220        260.00	    17.664
   6.240        230.83	    16.643
   6.260        226.67	    16.492
   6.280        210.83	    15.906
   6.300        240.00	    16.971
   6.320        224.17	    16.401
   6.340        190.00	    15.100
   6.360        225.00	    16.432
   6.380        201.67	    15.556
   6.400        189.17	    15.067
   6.420        189.17	    15.067
   6.440        197.50	    15.395
   6.460        180.00	    14.697
   6.480        186.67	    14.967
   6.500        180.00	    14.697
   6.520        168.33	    14.213
   6.540        192.50	    15.199
   6.560        160.83	    13.892
   6.580        183.33	    14.832
   6.600        188.33	    15.033
   6.620        173.33	    14.422
   6.640        173.33	    14.422
   6.660        173.33	    14.422
   6.680        180.00	    14.697
   6.700        144.17	    13.153
   6.720        166.67	    14.142
   6.740        163.33	    14.000
   6.760        171.67	    14.353
   6.780        165.83	    14.107
   6.800        168.33	    14.213
   6.820        186.67	    14.967
   6.840        165.83	    14.107
   6.860        167.50	    14.177
   6.880        185.00	    14.900
   6.900        155.83	    13.675
   6.920        162.50	    13.964
   6.940        180.00	    14.697
   6.960        148.33	    13.342
   6.980        132.50	    12.610
   7.000        144.17	    13.153
   7.020        165.83	    14.107
   7.040        145.83	    13.229
   7.060        178.33	    14.629
   7.080        138.33	    12.884
   7.100        179.17	    14.663
   7.120        151.67	    13.491
   7.140        128.33	    12.410
   7.160        141.67	    13.038
   7.180        157.50	    13.748
   7.200        149.17	    13.379
   7.220        149.17	    13.379
   7.240        159.17	    13.820
   7.260        150.83	    13.454
   7.280        152.50	    13.528
   7.300        136.67	    12.806
   7.320        159.17	    13.820
   7.340        130.83	    12.530
   7.360        138.33	    12.884
   7.380        163.33	    14.000
   7.400        173.33	    14.422
   7.420        143.33	    13.115
   7.440        118.33	    11.916
   7.460        155.00	    13.638
   7.480        150.83	    13.454
   7.500        160.83	    13.892
   7.520        138.33	    12.884
   7.540        135.00	    12.728
   7.560        125.83	    12.288
   7.580        123.33	    12.166
   7.600        120.83	    12.042
   7.620        132.50	    12.610
   7.640        115.00	    11.747
   7.660        123.33	    12.166
   7.680        126.67	    12.329
   7.700        140.00	    12.961
   7.720        121.67	    12.083
   7.740        115.00	    11.747
   7.760        122.50	    12.124
   7.780        130.00	    12.490
   7.800        131.67	    12.570
   7.820        138.33	    12.884
   7.840        145.00	    13.191
   7.860        140.00	    12.961
   7.880        155.83	    13.675
   7.900        133.33	    12.649
   7.920        137.50	    12.845
   7.940        128.33	    12.410
   7.960        125.83	    12.288
   7.980        134.17	    12.689
   8.000        133.33	    12.649
   8.020        120.00	    12.000
   8.040        108.33	    11.402
   8.060        142.50	    13.077
   8.080        145.00	    13.191
   8.100        127.50	    12.369
   8.120        142.50	    13.077
   8.140        143.33	    13.115
   8.160        136.67	    12.806
   8.180        139.17	    12.923
   8.200        120.83	    12.042
   8.220        118.33	    11.916
   8.240        113.33	    11.662
   8.260        138.33	    12.884
   8.280        129.17	    12.450
   8.300        132.50	    12.610
   8.320        140.00	    12.961
   8.340        160.00	    13.856
   8.360        150.00	    13.416
   8.380        170.00	    14.283
   8.400        151.67	    13.491
   8.420        163.33	    14.000
   8.440        165.00	    14.071
   8.460        160.83	    13.892
   8.480        148.33	    13.342
   8.500        186.67	    14.967
   8.520        201.67	    15.556
   8.540        180.83	    14.731
   8.560        195.83	    15.330
   8.580        210.83	    15.906
   8.600        229.17	    16.583
   8.620        246.67	    17.205
   8.640        242.50	    17.059
   8.660        298.33	    18.921
   8.680        305.83	    19.157
   8.700        410.00	    22.181
   8.720        575.83	    26.287
   8.740        619.17	    27.258
   8.760        728.33	    29.563
   8.780        750.00	    30.000
   8.800        618.33	    27.240
   8.820        491.67	    24.290
   8.840        377.50	    21.284
   8.860        277.50	    18.248
   8.880        209.17	    15.843
   8.900        198.33	    15.427
   8.920        196.67	    15.362
   8.940        162.50	    13.964
   8.960        157.50	    13.748
   8.980        162.50	    13.964
   9.000        177.50	    14.595
   9.020        185.00	    14.900
   9.040        166.67	    14.142
   9.060        140.83	    13.000
   9.080        155.83	    13.675
   9.100        153.33	    13.565
   9.120        121.67	    12.083
   9.140        130.83	    12.530
   9.160        102.50	    11.091
   9.180        115.00	    11.747
   9.200        107.50	    11.358
   9.220        118.33	    11.916
   9.240        119.17	    11.958
   9.260        105.83	    11.269
   9.280        108.33	    11.402
   9.300        114.17	    11.705
   9.320        116.67	    11.832
   9.340        127.50	    12.369
   9.360        110.83	    11.533
   9.380        125.83	    12.288
   9.400        123.33	    12.166
   9.420        105.83	    11.269
   9.440        114.17	    11.705
   9.460        100.83	    11.000
   9.480        103.33	    11.136
   9.500         98.33	    10.863
   9.520        105.83	    11.269
   9.540        117.50	    11.874
   9.560         85.83	    10.149
   9.580        106.67	    11.314
   9.600         91.67	    10.488
   9.620        115.83	    11.790
   9.640        126.67	    12.329
   9.660         83.33	    10.000
   9.680        102.50	    11.091
   9.700         88.33	    10.296
   9.720        122.50	    12.124
   9.740         98.33	    10.863
   9.760        113.33	    11.662
   9.780        105.83	    11.269
   9.800         87.50	    10.247
   9.820         98.33	    10.863
   9.840         94.17	    10.630
   9.860        100.83	    11.000
   9.880         87.50	    10.247
   9.900         98.33	    10.863
   9.920         86.67	    10.198
   9.940         97.50	    10.817
   9.960         91.67	    10.488
   9.980         87.50	    10.247
  10.000        110.00	    11.489
  10.020         87.50	    10.247
  10.040         95.83	    10.724
  10.060         92.50	    10.536
  10.080        100.83	    11.000
  10.100         88.33	    10.296
  10.120         92.50	    10.536
  10.140         98.33	    10.863
  10.160         84.17	    10.050
  10.180         83.33	    10.000
  10.200        110.00	    11.489
  10.220        114.17	    11.705
  10.240        117.50	    11.874
  10.260         91.67	    10.488
  10.280        105.83	    11.269
  10.300        113.33	    11.662
  10.320        100.83	    11.000
  10.340        117.50	    11.874
  10.360        123.33	    12.166
  10.380        129.17	    12.450
  10.400        160.00	    13.856
  10.420        139.17	    12.923
  10.440        155.83	    13.675
  10.460        133.33	    12.649
  10.480        107.50	    11.358
  10.500         91.67	    10.488
  10.520         95.83	    10.724
  10.540        112.50	    11.619
  10.560        100.00	    10.954
  10.580         81.67	     9.899
  10.600        103.33	    11.136
  10.620         94.17	    10.630
  10.640         83.33	    10.000
  10.660         99.17	    10.909
  10.680         93.33	    10.583
  10.700         93.33	    10.583
  10.720         92.50	    10.536
  10.740         97.50	    10.817
  10.760         84.17	    10.050
  10.780         58.33	     8.367
  10.800         78.33	     9.695
  10.820         93.33	    10.583
  10.840         85.83	    10.149
  10.860         89.17	    10.344
  10.880         96.67	    10.770
  10.900         95.83	    10.724
  10.920        101.67	    11.045
  10.940         92.50	    10.536
  10.960         76.67	     9.592
  10.980         87.50	    10.247
  11.000        100.00	    10.954
  11.020         90.83	    10.440
  11.040         81.67	     9.899
  11.060         88.33	    10.296
  11.080         95.00	    10.677
  11.100         67.50	     9.000
  11.120         92.50	    10.536
  11.140         82.50	     9.950
  11.160        101.67	    11.045
  11.180         86.67	    10.198
  11.200         93.33	    10.583
  11.220         84.17	    10.050
  11.240        101.67	    11.045
  11.260         76.67	     9.592
  11.280         85.00	    10.100
  11.300         92.50	    10.536
  11.320         80.83	     9.849
  11.340         84.17	    10.050
  11.360         86.67	    10.198
  11.380         87.50	    10.247
  11.400         84.17	    10.050
  11.420         85.00	    10.100
  11.440         85.00	    10.100
  11.460        102.50	    11.091
  11.480         67.50	     9.000
  11.500         64.17	     8.775
  11.520         91.67	    10.488
  11.540         75.83	     9.539
  11.560         79.17	     9.747
  11.580         77.50	     9.644
  11.600         82.50	     9.950
  11.620         82.50	     9.950
  11.640         85.83	    10.149
  11.660         97.50	    10.817
  11.680         70.00	     9.165
  11.700         97.50	    10.817
  11.720         92.50	    10.536
  11.740        105.00	    11.225
  11.760        113.33	    11.662
  11.780        104.17	    11.180
  11.800         88.33	    10.296
  11.820        115.83	    11.790
  11.840        125.83	    12.288
  11.860        114.17	    11.705
  11.880        103.33	    11.136
  11.900         95.83	    10.724
  11.920         90.83	    10.440
  11.940        103.33	    11.136
  11.960        112.50	    11.619
  11.980        119.17	    11.958
  12.000        153.33	    13.565
  12.020        223.33	    16.371
  12.040        235.83	    16.823
  12.060        224.17	    16.401
  12.080        230.00	    16.613
  12.100        245.83	    17.176
  12.120        263.33	    17.776
  12.140        227.50	    16.523
  12.160        194.17	    15.264
  12.180        155.00	    13.638
  12.200        173.33	    14.422
  12.220        149.17	    13.379
  12.240        167.50	    14.177
  12.260        164.17	    14.036
  12.280        153.33	    13.565
  12.300        164.17	    14.036
  12.320        196.67	    15.362
  12.340        220.00	    16.248
  12.360        276.67	    18.221
  12.380        315.00	    19.442
  12.400        317.50	    19.519
  12.420        304.17	    19.105
  12.440        264.17	    17.804
  12.460        205.00	    15.684
  12.480        149.17	    13.379
  12.500        130.83	    12.530
  12.520        104.17	    11.180
  12.540        105.00	    11.225
  12.560         79.17	     9.747
  12.580         92.50	    10.536
  12.600         85.00	    10.100
  12.620         82.50	     9.950
  12.640         78.33	     9.695
  12.660         85.00	    10.100
  12.680         79.17	     9.747
  12.700         70.83	     9.220
  12.720         79.17	     9.747
  12.740         83.33	    10.000
  12.760         78.33	     9.695
  12.780         67.50	     9.000
  12.800        101.67	    11.045
  12.820         62.50	     8.660
  12.840         75.00	     9.487
  12.860        102.50	    11.091
  12.880         67.50	     9.000
  12.900         59.17	     8.426
  12.920         80.83	     9.849
  12.940         73.33	     9.381
  12.960         70.83	     9.220
  12.980         71.67	     9.274
  13.000         84.17	    10.050
  13.020         87.50	    10.247
  13.040         72.50	     9.327
  13.060         76.67	     9.592
  13.080         81.67	     9.899
  13.100         86.67	    10.198
  13.120         72.50	     9.327
  13.140         95.00	    10.677
  13.160         74.17	     9.434
  13.180         85.00	    10.100
  13.200         81.67	     9.899
  13.220         78.33	     9.695
  13.240         81.67	     9.899
  13.260         61.67	     8.602
  13.280         81.67	     9.899
  13.300         98.33	    10.863
  13.320         85.83	    10.149
  13.340         64.17	     8.775
  13.360         80.83	     9.849
  13.380         81.67	     9.899
  13.400         56.67	     8.246
  13.420         62.50	     8.660
  13.440         63.33	     8.718
  13.460         62.50	     8.660
  13.480         77.50	     9.644
  13.500         84.17	    10.050
  13.520        100.00	    10.954
  13.540        100.00	    10.954
  13.560         98.33	    10.863
  13.580        111.67	    11.576
  13.600        100.83	    11.000
  13.620         85.83	    10.149
  13.640         78.33	     9.695
  13.660         87.50	    10.247
  13.680         75.83	     9.539
  13.700         73.33	     9.381
  13.720         96.67	    10.770
  13.740        116.67	    11.832
  13.760        126.67	    12.329
  13.780         99.17	    10.909
  13.800        101.67	    11.045
  13.820        110.00	    11.489
  13.840        132.50	    12.610
  13.860        134.17	    12.689
  13.880        126.67	    12.329
  13.900        104.17	    11.180
  13.920        100.00	    10.954
  13.940         85.83	    10.149
  13.960         77.50	     9.644
  13.980         67.50	     9.000
  14.000         64.17	     8.775
  14.020         64.17	     8.775
  14.040         70.00	     9.165
  14.060         69.17	     9.110
  14.080         71.67	     9.274
  14.100         52.50	     7.937
  14.120         70.00	     9.165
  14.140         70.83	     9.220
  14.160         63.33	     8.718
  14.180         51.67	     7.874
  14.200         63.33	     8.718
  14.220         59.17	     8.426
  14.240         69.17	     9.110
  14.260         68.33	     9.055
  14.280         66.67	     8.944
  14.300         71.67	     9.274
  14.320         54.17	     8.062
  14.340         64.17	     8.775
  14.360         59.17	     8.426
  14.380         69.17	     9.110
  14.400         53.33	     8.000
  14.420         67.50	     9.000
  14.440         69.17	     9.110
  14.460         56.67	     8.246
  14.480         59.17	     8.426
  14.500         53.33	     8.000
  14.520         50.00	     7.746
  14.540         64.17	     8.775
  14.560         60.00	     8.485
  14.580         51.67	     7.874
  14.600         75.83	     9.539
  14.620         66.67	     8.944
  14.640         70.00	     9.165
  14.660         64.17	     8.775
  14.680         68.33	     9.055
  14.700         52.50	     7.937
  14.720         58.33	     8.367
  14.740         67.50	     9.000
  14.760         64.17	     8.775
  14.780         55.00	     8.124
  14.800         64.17	     8.775
  14.820         71.67	     9.274
  14.840         66.67	     8.944
  14.860         90.83	    10.440
  14.880         87.50	    10.247
  14.900         86.67	    10.198
  14.920         83.33	    10.000
  14.940         59.17	     8.426
  14.960         67.50	     9.000
  14.980         60.00	     8.485
  15.000         73.33	     9.381
  15.020         63.33	     8.718
  15.040         53.33	     8.000
  15.060         67.50	     9.000
  15.080         50.00	     7.746
  15.100         46.67	     7.483
  15.120         49.17	     7.681
  15.140         54.17	     8.062
  15.160         58.33	     8.367
  15.180         68.33	     9.055
  15.200         49.17	     7.681
  15.220         45.83	     7.416
  15.240         49.17	     7.681
  15.260         67.50	     9.000
  15.280         45.00	     7.348
  15.300         65.83	     8.888
  15.320         57.50	     8.307
  15.340         64.17	     8.775
  15.360         55.83	     8.185
  15.380         54.17	     8.062
  15.400         52.50	     7.937
  15.420         51.67	     7.874
  15.440         70.00	     9.165
  15.460         58.33	     8.367
  15.480         61.67	     8.602
  15.500         48.33	     7.616
  15.520         56.67	     8.246
  15.540         57.50	     8.307
  15.560         39.17	     6.856
  15.580         62.50	     8.660
  15.600         60.00	     8.485
  15.620         59.17	     8.426
  15.640         59.17	     8.426
  15.660         61.67	     8.602
  15.680         60.83	     8.544
  15.700         59.17	     8.426
  15.720         88.33	    10.296
  15.740         66.67	     8.944
  15.760         75.83	     9.539
  15.780         68.33	     9.055
  15.800         64.17	     8.775
  15.820         55.00	     8.124
  15.840         55.00	     8.124
  15.860         45.00	     7.348
  15.880         58.33	     8.367
  15.900         56.67	     8.246
  15.920         59.17	     8.426
  15.940         50.00	     7.746
  15.960         56.67	     8.246
  15.980         57.50	     8.307
  16.000         63.33	     8.718
  16.020         54.17	     8.062
  16.040         55.00	     8.124
  16.060         57.50	     8.307
  16.080         46.67	     7.483
  16.100         55.83	     8.185
  16.120         54.17	     8.062
  16.140         57.50	     8.307
  16.160         61.67	     8.602
  16.180         39.17	     6.856
  16.200         57.50	     8.307
  16.220         48.33	     7.616
  16.240         66.67	     8.944
  16.260         48.33	     7.616
  16.280         58.33	     8.367
  16.300         49.17	     7.681
  16.320         40.83	     7.000
  16.340         52.50	     7.937
  16.360         50.83	     7.810
  16.380         40.83	     7.000
  16.400         52.50	     7.937
  16.420         52.50	     7.937
  16.440         55.83	     8.185
  16.460         60.83	     8.544
  16.480         35.00	     6.481
  16.500         45.83	     7.416
  16.520         57.50	     8.307
  16.540         57.50	     8.307
  16.560         50.83	     7.810
  16.580         56.67	     8.246
  16.600         49.17	     7.681
  16.620         43.33	     7.211
  16.640         45.83	     7.416
  16.660         44.17	     7.280
  16.680         50.00	     7.746
  16.700         62.50	     8.660
  16.720         57.50	     8.307
  16.740         51.67	     7.874
  16.760         52.50	     7.937
  16.780         60.00	     8.485
  16.800         51.67	     7.874
  16.820         46.67	     7.483
  16.840         54.17	     8.062
  16.860         42.50	     7.141
  16.880         60.00	     8.485
  16.900         47.50	     7.550
  16.920         61.67	     8.602
  16.940         50.83	     7.810
  16.960         52.50	     7.937
  16.980         58.33	     8.367
  17.000         69.17	     9.110
  17.020         58.33	     8.367
  17.040         56.67	     8.246
  17.060         50.83	     7.810
  17.080         45.83	     7.416
  17.100         49.17	     7.681
  17.120         59.17	     8.426
  17.140         51.67	     7.874
  17.160         36.67	     6.633
  17.180         53.33	     8.000
  17.200         59.17	     8.426
  17.220         62.50	     8.660
  17.240         64.17	     8.775
  17.260         70.00	     9.165
  17.280         62.50	     8.660
  17.300         65.83	     8.888
  17.320         57.50	     8.307
  17.340         58.33	     8.367
  17.360         69.17	     9.110
  17.380         52.50	     7.937
  17.400         58.33	     8.367
  17.420         44.17	     7.280
  17.440         65.00	     8.832
  17.460         49.17	     7.681
  17.480         59.17	     8.426
  17.500         55.00	     8.124
  17.520         59.17	     8.426
  17.540         62.50	     8.660
  17.560         72.50	     9.327
  17.580         87.50	    10.247
  17.600        103.33	    11.136
  17.620        115.00	    11.747
  17.640        144.17	    13.153
  17.660        175.00	    14.491
  17.680        314.17	    19.416
  17.700        387.50	    21.564
  17.720        431.67	    22.760
  17.740        458.33	    23.452
  17.760        365.00	    20.928
  17.780        248.33	    17.263
  17.800        167.50	    14.177
  17.820        118.33	    11.916
  17.840        101.67	    11.045
  17.860         72.50	     9.327
  17.880         56.67	     8.246
  17.900         56.67	     8.246
  17.920         61.67	     8.602
  17.940         47.50	     7.550
  17.960         54.17	     8.062
  17.980         59.17	     8.426
  18.000         60.83	     8.544
  18.020         49.17	     7.681
  18.040         50.83	     7.810
  18.060         58.33	     8.367
  18.080         51.67	     7.874
  18.100         59.17	     8.426
  18.120         51.67	     7.874
  18.140         46.67	     7.483
  18.160         43.33	     7.211
  18.180         57.50	     8.307
  18.200         63.33	     8.718
  18.220         60.00	     8.485
  18.240         51.67	     7.874
  18.260         62.50	     8.660
  18.280         81.67	     9.899
  18.300         73.33	     9.381
  18.320         93.33	    10.583
  18.340         74.17	     9.434
  18.360         73.33	     9.381
  18.380         93.33	    10.583
  18.400         75.00	     9.487
  18.420         69.17	     9.110
  18.440         80.83	     9.849
  18.460         79.17	     9.747
  18.480         80.00	     9.798
  18.500         72.50	     9.327
  18.520         74.17	     9.434
  18.540         77.50	     9.644
  18.560         73.33	     9.381
  18.580         62.50	     8.660
  18.600         83.33	    10.000
  18.620         85.00	    10.100
  18.640        114.17	    11.705
  18.660        140.83	    13.000
  18.680        163.33	    14.000
  18.700        160.00	    13.856
  18.720        158.33	    13.784
  18.740        135.00	    12.728
  18.760        104.17	    11.180
  18.780         71.67	     9.274
  18.800         60.83	     8.544
  18.820         64.17	     8.775
  18.840         66.67	     8.944
  18.860         54.17	     8.062
  18.880         69.17	     9.110
  18.900         59.17	     8.426
  18.920         59.17	     8.426
  18.940         53.33	     8.000
  18.960         48.33	     7.616
  18.980         46.67	     7.483
  19.000         54.17	     8.062
  19.020         57.50	     8.307
  19.040         60.83	     8.544
  19.060         78.33	     9.695
  19.080         82.50	     9.950
  19.100         89.17	    10.344
  19.120         92.50	    10.536
  19.140         83.33	    10.000
  19.160         65.00	     8.832
  19.180         80.83	     9.849
  19.200         66.67	     8.944
  19.220         76.67	     9.592
  19.240         76.67	     9.592
  19.260         58.33	     8.367
  19.280         81.67	     9.899
  19.300         60.00	     8.485
  19.320         57.50	     8.307
  19.340         46.67	     7.483
  19.360         46.67	     7.483
  19.380         51.67	     7.874
  19.400         48.33	     7.616
  19.420         48.33	     7.616
  19.440         67.50	     9.000
  19.460         45.00	     7.348
  19.480         48.33	     7.616
  19.500         75.00	     9.487
  19.520         47.50	     7.550
  19.540         45.83	     7.416
  19.560         57.50	     8.307
  19.580         64.17	     8.775
  19.600         63.33	     8.718
  19.620         60.83	     8.544
  19.640         57.50	     8.307
  19.660         70.83	     9.220
  19.680         75.00	     9.487
  19.700         75.83	     9.539
  19.720         89.17	    10.344
  19.740        100.00	    10.954
  19.760         85.83	    10.149
  19.780         75.00	     9.487
  19.800        102.50	    11.091
  19.820        112.50	    11.619
  19.840         95.00	    10.677
  19.860         86.67	    10.198
  19.880         75.00	     9.487
  19.900         89.17	    10.344
  19.920         72.50	     9.327
  19.940         56.67	     8.246
  19.960         47.50	     7.550
  19.980         50.00	     7.746
  20.000         55.00	     8.124
  20.020         54.17	     8.062
  20.040         56.67	     8.246
  20.060         52.50	     7.937
  20.080         60.83	     8.544
  20.100         55.00	     8.124
  20.120         43.33	     7.211
  20.140         44.17	     7.280
  20.160         52.50	     7.937
  20.180         47.50	     7.550
  20.200         50.83	     7.810
  20.220         49.17	     7.681
  20.240         52.50	     7.937
  20.260         46.67	     7.483
  20.280         47.50	     7.550
  20.300         43.33	     7.211
  20.320         50.00	     7.746
  20.340         45.00	     7.348
  20.360         50.00	     7.746
  20.380         50.83	     7.810
  20.400         63.33	     8.718
  20.420         57.50	     8.307
  20.440         62.50	     8.660
  20.460         59.17	     8.426
  20.480         57.50	     8.307
  20.500         71.67	     9.274
  20.520         70.83	     9.220
  20.540         57.50	     8.307
  20.560         79.17	     9.747
  20.580         75.83	     9.539
  20.600         61.67	     8.602
  20.620        101.67	    11.045
  20.640        125.00	    12.247
  20.660        139.17	    12.923
  20.680        208.33	    15.811
  20.700        432.50	    22.782
  20.720        644.17	    27.803
  20.740        735.83	    29.715
  20.760        871.67	    32.342
  20.780        973.33	    34.176
  20.800        936.67	    33.526
  20.820        706.67	    29.120
  20.840        525.83	    25.120
  20.860        375.00	    21.213
  20.880        232.50	    16.703
  20.900        133.33	    12.649
  20.920        100.83	    11.000
  20.940        103.33	    11.136
  20.960         73.33	     9.381
  20.980         78.33	     9.695
  21.000         80.83	     9.849
  21.020         64.17	     8.775
  21.040         77.50	     9.644
  21.060         36.67	     6.633
  21.080         54.17	     8.062
  21.100         56.67	     8.246
  21.120         43.33	     7.211
  21.140         45.00	     7.348
  21.160         50.00	     7.746
  21.180         55.00	     8.124
  21.200         57.50	     8.307
  21.220         45.00	     7.348
  21.240         40.83	     7.000
  21.260         45.00	     7.348
  21.280         52.50	     7.937
  21.300         44.17	     7.280
  21.320         42.50	     7.141
  21.340         45.00	     7.348
  21.360         40.00	     6.928
  21.380         41.67	     7.071
  21.400         45.00	     7.348
  21.420         50.83	     7.810
  21.440         46.67	     7.483
  21.460         53.33	     8.000
  21.480         55.00	     8.124
  21.500         55.83	     8.185
  21.520         50.00	     7.746
  21.540         51.67	     7.874
  21.560         64.17	     8.775
  21.580         72.50	     9.327
  21.600         64.17	     8.775
  21.620         50.83	     7.810
  21.640         49.17	     7.681
  21.660         48.33	     7.616
  21.680         51.67	     7.874
  21.700         46.67	     7.483
  21.720         51.67	     7.874
  21.740         53.33	     8.000
  21.760         46.67	     7.483
  21.780         49.17	     7.681
  21.800         50.83	     7.810
  21.820         49.17	     7.681
  21.840         55.83	     8.185
  21.860         82.50	     9.950
  21.880        114.17	    11.705
  21.900        120.83	    12.042
  21.920        178.33	    14.629
  21.940        222.50	    16.340
  21.960        228.33	    16.553
  21.980        190.00	    15.100
  22.000        180.83	    14.731
  22.020        142.50	    13.077
  22.040        110.83	    11.533
  22.060         77.50	     9.644
  22.080         63.33	     8.718
  22.100         50.83	     7.810
  22.120         50.00	     7.746
  22.140         56.67	     8.246
  22.160         55.00	     8.124
  22.180         55.83	     8.185
  22.200         44.17	     7.280
  22.220         48.33	     7.616
  22.240         47.50	     7.550
  22.260         52.50	     7.937
  22.280         63.33	     8.718
  22.300         59.17	     8.426
  22.320         60.83	     8.544
  22.340         67.50	     9.000
  22.360         68.33	     9.055
  22.380         74.17	     9.434
  22.400         80.83	     9.849
  22.420         60.00	     8.485
  22.440         59.17	     8.426
  22.460         67.50	     9.000
  22.480         48.33	     7.616
  22.500         40.00	     6.928
  22.520         45.83	     7.416
  22.540         58.33	     8.367
  22.560         48.33	     7.616
  22.580         30.00	     6.000
  22.600         60.83	     8.544
  22.620         45.00	     7.348
  22.640         45.00	     7.348
  22.660         47.50	     7.550
  22.680         45.00	     7.348
  22.700         52.50	     7.937
  22.720         57.50	     8.307
  22.740         55.83	     8.185
  22.760         69.17	     9.110
  22.780         80.00	     9.798
  22.800         75.00	     9.487
  22.820         72.50	     9.327
  22.840         73.33	     9.381
  22.860         76.67	     9.592
  22.880         81.67	     9.899
  22.900         70.00	     9.165
  22.920         67.50	     9.000
  22.940         78.33	     9.695
  22.960         77.50	     9.644
  22.980         85.83	    10.149
  23.000         80.00	     9.798
  23.020         72.50	     9.327
  23.040         65.83	     8.888
  23.060         51.67	     7.874
  23.080         41.67	     7.071
  23.100         51.67	     7.874
  23.120         55.83	     8.185
  23.140         50.83	     7.810
  23.160         49.17	     7.681
  23.180         47.50	     7.550
  23.200         44.17	     7.280
  23.220         48.33	     7.616
  23.240         52.50	     7.937
  23.260         41.67	     7.071
  23.280         59.17	     8.426
  23.300         53.33	     8.000
  23.320         52.50	     7.937
  23.340         69.17	     9.110
  23.360         78.33	     9.695
  23.380         92.50	    10.536
  23.400        128.33	    12.410
  23.420        171.67	    14.353
  23.440        246.67	    17.205
  23.460        241.67	    17.029
  23.480        216.67	    16.125
  23.500        224.17	    16.401
  23.520        159.17	    13.820
  23.540        130.83	    12.530
  23.560        111.67	    11.576
  23.580         90.83	    10.440
  23.600         82.50	     9.950
  23.620         96.67	    10.770
  23.640         64.17	     8.775
  23.660         79.17	     9.747
  23.680         83.33	    10.000
  23.700         78.33	     9.695
  23.720         82.50	     9.950
  23.740         86.67	    10.198
  23.760         80.83	     9.849
  23.780         87.50	    10.247
  23.800         95.83	    10.724
  23.820        106.67	    11.314
  23.840        100.83	    11.000
  23.860        135.00	    12.728
  23.880        126.67	    12.329
  23.900        121.67	    12.083
  23.920        154.17	    13.601
  23.940        123.33	    12.166
  23.960        115.00	    11.747
  23.980         94.17	    10.630
  24.000         83.33	    10.000
  24.020         97.50	    10.817
  24.040        123.33	    12.166
  24.060        113.33	    11.662
  24.080        123.33	    12.166
  24.100        118.33	    11.916
  24.120        137.50	    12.845
  24.140        140.00	    12.961
  24.160        187.50	    15.000
  24.180        233.33	    16.733
  24.200        225.00	    16.432
  24.220        213.33	    16.000
  24.240        170.00	    14.283
  24.260        166.67	    14.142
  24.280        145.00	    13.191
  24.300        115.00	    11.747
  24.320         90.00	    10.392
  24.340        100.83	    11.000
  24.360         87.50	    10.247
  24.380         80.83	     9.849
  24.400        104.17	    11.180
  24.420        111.67	    11.576
  24.440        171.67	    14.353
  24.460        180.00	    14.697
  24.480        195.00	    15.297
  24.500        204.17	    15.652
  24.520        187.50	    15.000
  24.540        175.83	    14.526
  24.560        190.83	    15.133
  24.580        185.83	    14.933
  24.600        163.33	    14.000
  24.620        147.50	    13.304
  24.640        151.67	    13.491
  24.660        118.33	    11.916
  24.680        107.50	    11.358
  24.700        125.83	    12.288
  24.720        120.00	    12.000
  24.740         92.50	    10.536
  24.760         76.67	     9.592
  24.780         92.50	    10.536
  24.800        100.00	    10.954
  24.820         90.83	    10.440
  24.840        101.67	    11.045
  24.860         90.83	    10.440
  24.880         81.67	     9.899
  24.900        106.67	    11.314
  24.920        103.33	    11.136
  24.940        119.17	    11.958
  24.960        128.33	    12.410
  24.980        170.83	    14.318
  25.000        214.17	    16.031
  25.020        276.67	    18.221
  25.040        303.33	    19.079
  25.060        306.67	    19.183
  25.080        285.00	    18.493
  25.100        255.00	    17.493
  25.120        235.00	    16.793
  25.140        182.50	    14.799
  25.160        135.83	    12.767
  25.180        125.83	    12.288
  25.200        100.83	    11.000
  25.220         88.33	    10.296
  25.240        108.33	    11.402
  25.260        113.33	    11.662
  25.280        180.83	    14.731
  25.300        196.67	    15.362
  25.320        165.83	    14.107
  25.340        186.67	    14.967
  25.360        186.67	    14.967
  25.380        226.67	    16.492
  25.400        226.67	    16.492
  25.420        243.33	    17.088
  25.440        199.17	    15.460
  25.460        200.00	    15.492
  25.480        203.33	    15.620
  25.500        145.83	    13.229
  25.520        132.50	    12.610
  25.540        175.83	    14.526
  25.560        147.50	    13.304
  25.580        144.17	    13.153
  25.600        123.33	    12.166
  25.620        126.67	    12.329
  25.640        114.17	    11.705
  25.660        126.67	    12.329
  25.680        100.83	    11.000
  25.700        125.83	    12.288
  25.720        145.83	    13.229
  25.740        165.83	    14.107
  25.760        172.50	    14.387
  25.780        158.33	    13.784
  25.800        133.33	    12.649
  25.820        146.67	    13.266
  25.840        108.33	    11.402
  25.860         95.83	    10.724
  25.880        100.83	    11.000
  25.900         69.17	     9.110
  25.920         82.50	     9.950
  25.940        109.17	    11.446
  25.960         70.00	     9.165
  25.980        100.83	    11.000
  26.000         93.33	    10.583
  26.020         88.33	    10.296
  26.040         79.17	     9.747
  26.060         88.33	    10.296
  26.080         83.33	    10.000
  26.100         93.33	    10.583
  26.120         91.67	    10.488
  26.140         97.50	    10.817
  26.160         95.83	    10.724
  26.180         98.33	    10.863
  26.200        120.83	    12.042
  26.220        117.50	    11.874
  26.240        142.50	    13.077
  26.260        181.67	    14.765
  26.280        210.83	    15.906
  26.300        244.17	    17.117
  26.320        270.00	    18.000
  26.340        298.33	    18.921
  26.360        355.83	    20.664
  26.380        407.50	    22.113
  26.400        430.83	    22.738
  26.420        501.67	    24.536
  26.440        631.67	    27.532
  26.460        992.50	    34.511
  26.480       1790.00	    46.347
  26.500       3343.33	    63.340
  26.520       6572.50	    88.809
  26.540       9340.00	   105.868
  26.560       8164.17	    98.980
  26.580       5880.00	    84.000
  26.600       5488.33	    81.154
  26.620       4725.83	    75.306
  26.640       2919.17	    59.186
  26.660       1541.67	    43.012
  26.680       1073.33	    35.889
  26.700       1119.17	    36.647
  26.720       1356.67	    40.348
  26.740       1494.17	    42.344
  26.760       1804.17	    46.530
  26.780       1754.17	    45.880
  26.800       1720.83	    45.442
  26.820       1431.67	    41.449
  26.840       1000.83	    34.655
  26.860        737.50	    29.749
  26.880        588.33	    26.571
  26.900        369.17	    21.048
  26.920        256.67	    17.550
  26.940        193.33	    15.232
  26.960        210.83	    15.906
  26.980        157.50	    13.748
  27.000        146.67	    13.266
  27.020        148.33	    13.342
  27.040        135.00	    12.728
  27.060        118.33	    11.916
  27.080        105.00	    11.225
  27.100        100.83	    11.000
  27.120        119.17	    11.958
  27.140        107.50	    11.358
  27.160         84.17	    10.050
  27.180         94.17	    10.630
  27.200        118.33	    11.916
  27.220        131.67	    12.570
  27.240        108.33	    11.402
  27.260        135.83	    12.767
  27.280        130.00	    12.490
  27.300        160.00	    13.856
  27.320        166.67	    14.142
  27.340        178.33	    14.629
  27.360        244.17	    17.117
  27.380        360.83	    20.809
  27.400        352.50	    20.567
  27.420        415.00	    22.316
  27.440        466.67	    23.664
  27.460        432.50	    22.782
  27.480        340.83	    20.224
  27.500        308.33	    19.235
  27.520        245.00	    17.146
  27.540        221.67	    16.310
  27.560        154.17	    13.601
  27.580        153.33	    13.565
  27.600        169.17	    14.248
  27.620        222.50	    16.340
  27.640        270.00	    18.000
  27.660        321.67	    19.647
  27.680        299.17	    18.947
  27.700        316.67	    19.494
  27.720        341.67	    20.248
  27.740        340.83	    20.224
  27.760        338.33	    20.149
  27.780        400.83	    21.932
  27.800        355.83	    20.664
  27.820        353.33	    20.591
  27.840        335.83	    20.075
  27.860        319.17	    19.570
  27.880        272.50	    18.083
  27.900        267.50	    17.916
  27.920        215.00	    16.062
  27.940        162.50	    13.964
  27.960        163.33	    14.000
  27.980        167.50	    14.177
  28.000        160.83	    13.892
  28.020        210.83	    15.906
  28.040        214.17	    16.031
  28.060        263.33	    17.776
  28.080        245.83	    17.176
  28.100        235.83	    16.823
  28.120        225.83	    16.462
  28.140        226.67	    16.492
  28.160        232.50	    16.703
  28.180        277.50	    18.248
  28.200        265.00	    17.833
  28.220        206.67	    15.748
  28.240        160.00	    13.856
  28.260        175.83	    14.526
  28.280        151.67	    13.491
  28.300        135.00	    12.728
  28.320         82.50	     9.950
  28.340         75.83	     9.539
  28.360         94.17	    10.630
  28.380         83.33	    10.000
  28.400        115.00	    11.747
  28.420         92.50	    10.536
  28.440        114.17	    11.705
  28.460         92.50	    10.536
  28.480        125.00	    12.247
  28.500        102.50	    11.091
  28.520        141.67	    13.038
  28.540        124.17	    12.207
  28.560        139.17	    12.923
  28.580        151.67	    13.491
  28.600        117.50	    11.874
  28.620        113.33	    11.662
  28.640        106.67	    11.314
  28.660         85.00	    10.100
  28.680         77.50	     9.644
  28.700         83.33	    10.000
  28.720         81.67	     9.899
  28.740         65.83	     8.888
  28.760         58.33	     8.367
  28.780         56.67	     8.246
  28.800         56.67	     8.246
  28.820         61.67	     8.602
  28.840         42.50	     7.141
  28.860         43.33	     7.211
  28.880         49.17	     7.681
  28.900         55.00	     8.124
  28.920         60.00	     8.485
  28.940         41.67	     7.071
  28.960         46.67	     7.483
  28.980         46.67	     7.483
  29.000         52.50	     7.937
  29.020         57.50	     8.307
  29.040         40.83	     7.000
  29.060         63.33	     8.718
  29.080         85.83	    10.149
  29.100         63.33	     8.718
  29.120         54.17	     8.062
  29.140         55.00	     8.124
  29.160         49.17	     7.681
  29.180         51.67	     7.874
  29.200         42.50	     7.141
  29.220         32.50	     6.245
  29.240         50.00	     7.746
  29.260         45.83	     7.416
  29.280         35.00	     6.481
  29.300         53.33	     8.000
  29.320         50.83	     7.810
  29.340         40.00	     6.928
  29.360         40.00	     6.928
  29.380         36.67	     6.633
  29.400         42.50	     7.141
  29.420         35.00	     6.481
  29.440         45.83	     7.416
  29.460         40.00	     6.928
  29.480         54.17	     8.062
  29.500         45.83	     7.416
  29.520         50.00	     7.746
  29.540         69.17	     9.110
  29.560         68.33	     9.055
  29.580         68.33	     9.055
  29.600         72.50	     9.327
  29.620         60.00	     8.485
  29.640         63.33	     8.718
  29.660         81.67	     9.899
  29.680         74.17	     9.434
  29.700         75.00	     9.487
  29.720         71.67	     9.274
  29.740        100.00	    10.954
  29.760        119.17	    11.958
  29.780        107.50	    11.358
  29.800        102.50	    11.091
  29.820        116.67	    11.832
  29.840        120.00	    12.000
  29.860        107.50	    11.358
  29.880        111.67	    11.576
  29.900        106.67	    11.314
  29.920        100.83	    11.000
  29.940        110.00	    11.489
  29.960        101.67	    11.045
  29.980        111.67	    11.576
  30.000        108.33	    11.402
  30.020        125.83	    12.288
  30.040        117.50	    11.874
  30.060        113.33	    11.662
  30.080         89.17	    10.344
  30.100         99.17	    10.909
  30.120        145.00	    13.191
  30.140        124.17	    12.207
  30.160        108.33	    11.402
  30.180         88.33	    10.296
  30.200         90.00	    10.392
  30.220        104.17	    11.180
  30.240        111.67	    11.576
  30.260        140.00	    12.961
  30.280        111.67	    11.576
  30.300         90.00	    10.392
  30.320         99.17	    10.909
  30.340        108.33	    11.402
  30.360        119.17	    11.958
  30.380        123.33	    12.166
  30.400        115.83	    11.790
  30.420        100.83	    11.000
  30.440         80.00	     9.798
  30.460        109.17	    11.446
  30.480        128.33	    12.410
  30.500        152.50	    13.528
  30.520        120.00	    12.000
  30.540         91.67	    10.488
  30.560         77.50	     9.644
  30.580         92.50	    10.536
  30.600         75.83	     9.539
  30.620         61.67	     8.602
  30.640         60.00	     8.485
  30.660         49.17	     7.681
  30.680         65.00	     8.832
  30.700         92.50	    10.536
  30.720        111.67	    11.576
  30.740         81.67	     9.899
  30.760         89.17	    10.344
  30.780         73.33	     9.381
  30.800         75.83	     9.539
  30.820         80.00	     9.798
  30.840         65.00	     8.832
  30.860         49.17	     7.681
  30.880         51.67	     7.874
  30.900         42.50	     7.141
  30.920         56.67	     8.246
  30.940         39.17	     6.856
  30.960         72.50	     9.327
  30.980         48.33	     7.616
  31.000         52.50	     7.937
  31.020         51.67	     7.874
  31.040         61.67	     8.602
  31.060         74.17	     9.434
  31.080         87.50	    10.247
  31.100         99.17	    10.909
  31.120        118.33	    11.916
  31.140        118.33	    11.916
  31.160        119.17	    11.958
  31.180        126.67	    12.329
  31.200        105.83	    11.269
  31.220         80.83	     9.849
  31.240         77.50	     9.644
  31.260         62.50	     8.660
  31.280         74.17	     9.434
  31.300         49.17	     7.681
  31.320         50.83	     7.810
  31.340         42.50	     7.141
  31.360         52.50	     7.937
  31.380         59.17	     8.426
  31.400         78.33	     9.695
  31.420         59.17	     8.426
  31.440         73.33	     9.381
  31.460         85.00	    10.100
  31.480         75.00	     9.487
  31.500         81.67	     9.899
  31.520         80.00	     9.798
  31.540         73.33	     9.381
  31.560         75.00	     9.487
  31.580         72.50	     9.327
  31.600         57.50	     8.307
  31.620         44.17	     7.280
  31.640         48.33	     7.616
  31.660         35.83	     6.557
  31.680         45.00	     7.348
  31.700         46.67	     7.483
  31.720         39.17	     6.856
  31.740         39.17	     6.856
  31.760         45.83	     7.416
  31.780         37.50	     6.708
  31.800         51.67	     7.874
  31.820         54.17	     8.062
  31.840         50.00	     7.746
  31.860         39.17	     6.856
  31.880         33.33	     6.325
  31.900         58.33	     8.367
  31.920         62.50	     8.660
  31.940         58.33	     8.367
  31.960         70.00	     9.165
  31.980         72.50	     9.327
  32.000         60.00	     8.485
  32.020         58.33	     8.367
  32.040         64.17	     8.775
  32.060         74.17	     9.434
  32.080         53.33	     8.000
  32.100         51.67	     7.874
  32.120         53.33	     8.000
  32.140         55.00	     8.124
  32.160         40.00	     6.928
  32.180         45.00	     7.348
  32.200         65.00	     8.832
  32.220         80.83	     9.849
  32.240         78.33	     9.695
  32.260         71.67	     9.274
  32.280         60.00	     8.485
  32.300         50.00	     7.746
  32.320         67.50	     9.000
  32.340         48.33	     7.616
  32.360         48.33	     7.616
  32.380         41.67	     7.071
  32.400         31.67	     6.164
  32.420         30.00	     6.000
  32.440         28.33	     5.831
  32.460         23.33	     5.292
  32.480         29.17	     5.916
  32.500         33.33	     6.325
  32.520         36.67	     6.633
  32.540         20.83	     5.000
  32.560         26.67	     5.657
  32.580         24.17	     5.385
  32.600         26.67	     5.657
  32.620         38.33	     6.782
  32.640         36.67	     6.633
  32.660         23.33	     5.292
  32.680         31.67	     6.164
  32.700         37.50	     6.708
  32.720         25.00	     5.477
  32.740         40.00	     6.928
  32.760         35.00	     6.481
  32.780         32.50	     6.245
  32.800         42.50	     7.141
  32.820         35.00	     6.481
  32.840         40.00	     6.928
  32.860         37.50	     6.708
  32.880         31.67	     6.164
  32.900         43.33	     7.211
  32.920         35.83	     6.557
  32.940         54.17	     8.062
  32.960         80.00	     9.798
  32.980        103.33	    11.136
  33.000        112.50	    11.619
  33.020         99.17	    10.909
  33.040         65.00	     8.832
  33.060         69.17	     9.110
  33.080         70.83	     9.220
  33.100         65.00	     8.832
  33.120         36.67	     6.633
  33.140         33.33	     6.325
  33.160         35.83	     6.557
  33.180         31.67	     6.164
  33.200         30.00	     6.000
  33.220         32.50	     6.245
  33.240         35.00	     6.481
  33.260         32.50	     6.245
  33.280         32.50	     6.245
  33.300         40.00	     6.928
  33.320         41.67	     7.071
  33.340         29.17	     5.916
  33.360         43.33	     7.211
  33.380         61.67	     8.602
  33.400         45.00	     7.348
  33.420         38.33	     6.782
  33.440         41.67	     7.071
  33.460         50.00	     7.746
  33.480         38.33	     6.782
  33.500         48.33	     7.616
  33.520         28.33	     5.831
  33.540         32.50	     6.245
  33.560         41.67	     7.071
  33.580         45.83	     7.416
  33.600         33.33	     6.325
  33.620         32.50	     6.245
  33.640         35.00	     6.481
  33.660         35.83	     6.557
  33.680         36.67	     6.633
  33.700         42.50	     7.141
  33.720         45.00	     7.348
  33.740         50.00	     7.746
  33.760         30.00	     6.000
  33.780         37.50	     6.708
  33.800         46.67	     7.483
  33.820         45.83	     7.416
  33.840         71.67	     9.274
  33.860         65.83	     8.888
  33.880         70.00	     9.165
  33.900         65.83	     8.888
  33.920         59.17	     8.426
  33.940         67.50	     9.000
  33.960         56.67	     8.246
  33.980         57.50	     8.307
  34.000         52.50	     7.937
  34.020         63.33	     8.718
  34.040         53.33	     8.000
  34.060         40.83	     7.000
  34.080         52.50	     7.937
  34.100         58.33	     8.367
  34.120         45.00	     7.348
  34.140         59.17	     8.426
  34.160         42.50	     7.141
  34.180         48.33	     7.616
  34.200         54.17	     8.062
  34.220         49.17	     7.681
  34.240         59.17	     8.426
  34.260         69.17	     9.110
  34.280         69.17	     9.110
  34.300         48.33	     7.616
  34.320         67.50	     9.000
  34.340         65.83	     8.888
  34.360         75.83	     9.539
  34.380         81.67	     9.899
  34.400         65.00	     8.832
  34.420         59.17	     8.426
  34.440         87.50	    10.247
  34.460         93.33	    10.583
  34.480        140.83	    13.000
  34.500         91.67	    10.488
  34.520        107.50	    11.358
  34.540         81.67	     9.899
  34.560         70.00	     9.165
  34.580         99.17	    10.909
  34.600         80.00	     9.798
  34.620         60.00	     8.485
  34.640         83.33	    10.000
  34.660         59.17	     8.426
  34.680         49.17	     7.681
  34.700         62.50	     8.660
  34.720         58.33	     8.367
  34.740         52.50	     7.937
  34.760         50.00	     7.746
  34.780         65.00	     8.832
  34.800         69.17	     9.110
  34.820         87.50	    10.247
  34.840         78.33	     9.695
  34.860         75.00	     9.487
  34.880        114.17	    11.705
  34.900         99.17	    10.909
  34.920        107.50	    11.358
  34.940        112.50	    11.619
  34.960        106.67	    11.314
  34.980         78.33	     9.695
  35.000         82.50	     9.950
  35.020         92.50	    10.536
  35.040         86.67	    10.198
  35.060         95.83	    10.724
  35.080         72.50	     9.327
  35.100         59.17	     8.426
  35.120         80.00	     9.798
  35.140         86.67	    10.198
  35.160         65.83	     8.888
  35.180         63.33	     8.718
  35.200         60.00	     8.485
  35.220         84.17	    10.050
  35.240         58.33	     8.367
  35.260         70.00	     9.165
  35.280         63.33	     8.718
  35.300         65.00	     8.832
  35.320         70.83	     9.220
  35.340         78.33	     9.695
  35.360         80.83	     9.849
  35.380         87.50	    10.247
  35.400        100.83	    11.000
  35.420         94.17	    10.630
  35.440        115.00	    11.747
  35.460        168.33	    14.213
  35.480        160.00	    13.856
  35.500        165.83	    14.107
  35.520        206.67	    15.748
  35.540        180.00	    14.697
  35.560        141.67	    13.038
  35.580        125.00	    12.247
  35.600        126.67	    12.329
  35.620        128.33	    12.410
  35.640         83.33	    10.000
  35.660         89.17	    10.344
  35.680         87.50	    10.247
  35.700         68.33	     9.055
  35.720         83.33	    10.000
  35.740         78.33	     9.695
  35.760         73.33	     9.381
  35.780         87.50	    10.247
  35.800        121.67	    12.083
  35.820        171.67	    14.353
  35.840        193.33	    15.232
  35.860        140.83	    13.000
  35.880        126.67	    12.329
  35.900        140.00	    12.961
  35.920        199.17	    15.460
  35.940        206.67	    15.748
  35.960        185.83	    14.933
  35.980        172.50	    14.387
  36.000        194.17	    15.264
  36.020        185.00	    14.900
  36.040        161.67	    13.928
  36.060        145.00	    13.191
  36.080        105.83	    11.269
  36.100        108.33	    11.402
  36.120         87.50	    10.247
  36.140         67.50	     9.000
  36.160         51.67	     7.874
  36.180         55.83	     8.185
  36.200         46.67	     7.483
  36.220         49.17	     7.681
  36.240         59.17	     8.426
  36.260         58.33	     8.367
  36.280         40.00	     6.928
  36.300         57.50	     8.307
  36.320         54.17	     8.062
  36.340         99.17	    10.909
  36.360        176.67	    14.560
  36.380        198.33	    15.427
  36.400        179.17	    14.663
  36.420        230.83	    16.643
  36.440        370.00	    21.071
  36.460        475.00	    23.875
  36.480        355.83	    20.664
  36.500        241.67	    17.029
  36.520        219.17	    16.217
  36.540        241.67	    17.029
  36.560        242.50	    17.059
  36.580        175.00	    14.491
  36.600        114.17	    11.705
  36.620         80.83	     9.849
  36.640         90.83	    10.440
  36.660         74.17	     9.434
  36.680         70.00	     9.165
  36.700         54.17	     8.062
  36.720         54.17	     8.062
  36.740         71.67	     9.274
  36.760         59.17	     8.426
  36.780         54.17	     8.062
  36.800         47.50	     7.550
  36.820         46.67	     7.483
  36.840         55.00	     8.124
  36.860         36.67	     6.633
  36.880         58.33	     8.367
  36.900         61.67	     8.602
  36.920         55.00	     8.124
  36.940         50.00	     7.746
  36.960         54.17	     8.062
  36.980         55.83	     8.185
  37.000         50.83	     7.810
  37.020         60.00	     8.485
  37.040         39.17	     6.856
  37.060         57.50	     8.307
  37.080         47.50	     7.550
  37.100         48.33	     7.616
  37.120         52.50	     7.937
  37.140         49.17	     7.681
  37.160         45.83	     7.416
  37.180         50.00	     7.746
  37.200         53.33	     8.000
  37.220         37.50	     6.708
  37.240         50.00	     7.746
  37.260         56.67	     8.246
  37.280         60.00	     8.485
  37.300         69.17	     9.110
  37.320         68.33	     9.055
  37.340         71.67	     9.274
  37.360         70.00	     9.165
  37.380         70.83	     9.220
  37.400         67.50	     9.000
  37.420         73.33	     9.381
  37.440         76.67	     9.592
  37.460         70.00	     9.165
  37.480         56.67	     8.246
  37.500         81.67	     9.899
  37.520         83.33	    10.000
  37.540         85.00	    10.100
  37.560         71.67	     9.274
  37.580         71.67	     9.274
  37.600         90.00	    10.392
  37.620         79.17	     9.747
  37.640         83.33	    10.000
  37.660         66.67	     8.944
  37.680         57.50	     8.307
  37.700         68.33	     9.055
  37.720         70.00	     9.165
  37.740         77.50	     9.644
  37.760         60.00	     8.485
  37.780         64.17	     8.775
  37.800         71.67	     9.274
  37.820         80.00	     9.798
  37.840         65.83	     8.888
  37.860         88.33	    10.296
  37.880         85.00	    10.100
  37.900         95.00	    10.677
  37.920        147.50	    13.304
  37.940        247.50	    17.234
  37.960        501.67	    24.536
  37.980        912.50	    33.091
  38.000       1136.67	    36.932
  38.020        885.83	    32.604
  38.040        567.50	    26.096
  38.060        414.17	    22.293
  38.080        583.33	    26.458
  38.100        595.00	    26.721
  38.120        387.50	    21.564
  38.140        240.00	    16.971
  38.160        115.83	    11.790
  38.180         95.00	    10.677
  38.200         73.33	     9.381
  38.220         60.83	     8.544
  38.240         54.17	     8.062
  38.260         43.33	     7.211
  38.280         39.17	     6.856
  38.300         30.00	     6.000
  38.320         32.50	     6.245
  38.340         35.83	     6.557
  38.360         30.00	     6.000
  38.380         45.83	     7.416
  38.400         42.50	     7.141
  38.420         35.00	     6.481
  38.440         36.67	     6.633
  38.460         35.83	     6.557
  38.480         39.17	     6.856
  38.500         36.67	     6.633
  38.520         35.83	     6.557
  38.540         46.67	     7.483
  38.560         44.17	     7.280
  38.580         40.00	     6.928
  38.600         39.17	     6.856
  38.620         36.67	     6.633
  38.640         39.17	     6.856
  38.660         38.33	     6.782
  38.680         38.33	     6.782
  38.700         47.50	     7.550
  38.720         76.67	     9.592
  38.740         88.33	    10.296
  38.760        112.50	    11.619
  38.780         92.50	    10.536
  38.800         71.67	     9.274
  38.820         56.67	     8.246
  38.840         79.17	     9.747
  38.860         75.83	     9.539
  38.880         48.33	     7.616
  38.900         50.83	     7.810
  38.920         54.17	     8.062
  38.940         41.67	     7.071
  38.960         44.17	     7.280
  38.980         34.17	     6.403
  39.000         30.83	     6.083
  39.020         35.00	     6.481
  39.040         41.67	     7.071
  39.060         59.17	     8.426
  39.080         39.17	     6.856
  39.100         36.67	     6.633
  39.120         39.17	     6.856
  39.140         55.83	     8.185
  39.160         45.00	     7.348
  39.180         40.83	     7.000
  39.200         35.83	     6.557
  39.220         56.67	     8.246
  39.240         51.67	     7.874
  39.260         37.50	     6.708
  39.280         43.33	     7.211
  39.300         53.33	     8.000
  39.320         85.00	    10.100
  39.340        134.17	    12.689
  39.360        161.67	    13.928
  39.380        132.50	    12.610
  39.400        140.83	    13.000
  39.420         96.67	    10.770
  39.440        105.83	    11.269
  39.460        110.83	    11.533
  39.480        122.50	    12.124
  39.500         98.33	    10.863
  39.520         66.67	     8.944
  39.540         50.00	     7.746
  39.560         70.83	     9.220
  39.580         46.67	     7.483
  39.600         35.00	     6.481
  39.620         43.33	     7.211
  39.640         36.67	     6.633
  39.660         45.00	     7.348
  39.680         39.17	     6.856
  39.700         38.33	     6.782
  39.720         42.50	     7.141
  39.740         34.17	     6.403
  39.760         41.67	     7.071
  39.780         38.33	     6.782
  39.800         35.83	     6.557
  39.820         29.17	     5.916
  39.840         36.67	     6.633
  39.860         35.83	     6.557
  39.880         61.67	     8.602
  39.900         53.33	     8.000
  39.920         41.67	     7.071
  39.940         42.50	     7.141
  39.960         36.67	     6.633
  39.980         34.17	     6.403
  40.000         46.67	     7.483
  40.020         44.17	     7.280
  40.040         38.33	     6.782
  40.060         42.50	     7.141
  40.080         39.17	     6.856
  40.100         37.50	     6.708
  40.120         39.17	     6.856
  40.140         60.00	     8.485
  40.160        105.83	    11.269
  40.180        170.83	    14.318
  40.200        179.17	    14.663
  40.220        144.17	    13.153
  40.240        110.83	    11.533
  40.260         81.67	     9.899
  40.280        106.67	    11.314
  40.300        103.33	    11.136
  40.320        111.67	    11.576
  40.340         74.17	     9.434
  40.360         54.17	     8.062
  40.380         46.67	     7.483
  40.400         54.17	     8.062
  40.420         44.17	     7.280
  40.440         41.67	     7.071
  40.460         35.83	     6.557
  40.480         30.00	     6.000
  40.500         25.00	     5.477
  40.520         37.50	     6.708
  40.540         24.17	     5.385
  40.560         40.83	     7.000
  40.580         35.00	     6.481
  40.600         29.17	     5.916
  40.620         30.83	     6.083
  40.640         25.83	     5.568
  40.660         31.67	     6.164
  40.680         37.50	     6.708
  40.700         36.67	     6.633
  40.720         20.00	     4.899
  40.740         31.67	     6.164
  40.760         38.33	     6.782
  40.780         32.50	     6.245
  40.800         40.00	     6.928
  40.820         37.50	     6.708
  40.840         35.00	     6.481
  40.860         30.83	     6.083
  40.880         33.33	     6.325
  40.900         35.00	     6.481
  40.920         35.83	     6.557
  40.940         29.17	     5.916
  40.960         29.17	     5.916
  40.980         30.83	     6.083
  41.000         38.33	     6.782
  41.020         34.17	     6.403
  41.040         32.50	     6.245
  41.060         41.67	     7.071
  41.080         55.83	     8.185
  41.100         64.17	     8.775
  41.120         58.33	     8.367
  41.140         53.33	     8.000
  41.160         43.33	     7.211
  41.180         55.83	     8.185
  41.200         55.83	     8.185
  41.220         56.67	     8.246
  41.240         56.67	     8.246
  41.260         45.83	     7.416
  41.280         33.33	     6.325
  41.300         52.50	     7.937
  41.320         50.83	     7.810
  41.340         40.83	     7.000
  41.360         37.50	     6.708
  41.380         33.33	     6.325
  41.400         31.67	     6.164
  41.420         36.67	     6.633
  41.440         40.00	     6.928
  41.460         37.50	     6.708
  41.480         29.17	     5.916
  41.500         36.67	     6.633
  41.520         31.67	     6.164
  41.540         43.33	     7.211
  41.560         46.67	     7.483
  41.580         44.17	     7.280
  41.600         50.00	     7.746
  41.620         69.17	     9.110
  41.640         58.33	     8.367
  41.660         50.00	     7.746
  41.680         59.17	     8.426
  41.700         51.67	     7.874
  41.720         46.67	     7.483
  41.740         55.83	     8.185
  41.760         48.33	     7.616
  41.780         52.50	     7.937
  41.800         61.67	     8.602
  41.820         50.00	     7.746
  41.840         42.50	     7.141
  41.860         55.83	     8.185
  41.880         46.67	     7.483
  41.900         55.00	     8.124
  41.920         50.83	     7.810
  41.940         55.83	     8.185
  41.960         40.00	     6.928
  41.980         55.83	     8.185
  42.000         44.17	     7.280
  42.020         42.50	     7.141
  42.040         40.00	     6.928
  42.060         45.83	     7.416
  42.080         58.33	     8.367
  42.100         55.00	     8.124
  42.120         50.83	     7.810
  42.140         55.83	     8.185
  42.160         51.67	     7.874
  42.180         75.00	     9.487
  42.200         82.50	     9.950
  42.220         91.67	    10.488
  42.240         98.33	    10.863
  42.260        105.83	    11.269
  42.280         96.67	    10.770
  42.300        124.17	    12.207
  42.320        158.33	    13.784
  42.340        191.67	    15.166
  42.360        244.17	    17.117
  42.380        298.33	    18.921
  42.400        298.33	    18.921
  42.420        218.33	    16.186
  42.440        173.33	    14.422
  42.460        135.83	    12.767
  42.480        155.00	    13.638
  42.500        175.83	    14.526
  42.520        131.67	    12.570
  42.540         98.33	    10.863
  42.560         70.00	     9.165
  42.580         60.00	     8.485
  42.600         53.33	     8.000
  42.620         45.83	     7.416
  42.640         51.67	     7.874
  42.660         67.50	     9.000
  42.680         54.17	     8.062
  42.700         34.17	     6.403
  42.720         46.67	     7.483
  42.740         42.50	     7.141
  42.760         44.17	     7.280
  42.780         40.83	     7.000
  42.800         35.83	     6.557
  42.820         41.67	     7.071
  42.840         37.50	     6.708
  42.860         36.67	     6.633
  42.880         45.83	     7.416
  42.900         44.17	     7.280
  42.920         54.17	     8.062
  42.940         30.00	     6.000
  42.960         28.33	     5.831
  42.980         32.50	     6.245
  43.000         44.17	     7.280
  43.020         29.17	     5.916
  43.040         35.83	     6.557
  43.060         37.50	     6.708
  43.080         32.50	     6.245
  43.100         26.67	     5.657
  43.120         34.17	     6.403
  43.140         38.33	     6.782
  43.160         38.33	     6.782
  43.180         32.50	     6.245
  43.200         24.17	     5.385
  43.220         34.17	     6.403
  43.240         27.50	     5.745
  43.260         34.17	     6.403
  43.280         30.83	     6.083
  43.300         33.33	     6.325
  43.320         26.67	     5.657
  43.340         30.00	     6.000
  43.360         32.50	     6.245
  43.380         32.50	     6.245
  43.400         29.17	     5.916
  43.420         36.67	     6.633
  43.440         36.67	     6.633
  43.460         53.33	     8.000
  43.480         40.83	     7.000
  43.500         28.33	     5.831
  43.520         40.83	     7.000
  43.540         30.83	     6.083
  43.560         33.33	     6.325
  43.580         31.67	     6.164
  43.600         41.67	     7.071
  43.620         32.50	     6.245
  43.640         27.50	     5.745
  43.660         35.00	     6.481
  43.680         45.00	     7.348
  43.700         37.50	     6.708
  43.720         25.83	     5.568
  43.740         44.17	     7.280
  43.760         39.17	     6.856
  43.780         35.00	     6.481
  43.800         34.17	     6.403
  43.820         35.83	     6.557
  43.840         40.00	     6.928
  43.860         39.17	     6.856
  43.880         34.17	     6.403
  43.900         25.83	     5.568
  43.920         47.50	     7.550
  43.940         45.83	     7.416
  43.960         49.17	     7.681
  43.980         45.83	     7.416
  44.000         56.67	     8.246
  44.020         50.00	     7.746
  44.040         50.83	     7.810
  44.060         81.67	     9.899
  44.080         90.83	    10.440
  44.100        102.50	    11.091
  44.120        167.50	    14.177
  44.140        265.83	    17.861
  44.160        431.67	    22.760
  44.180        637.50	    27.659
  44.200        611.67	    27.092
  44.220        450.83	    23.259
  44.240        246.67	    17.205
  44.260        253.33	    17.436
  44.280        280.00	    18.330
  44.300        353.33	    20.591
  44.320        357.50	    20.712
  44.340        225.83	    16.462
  44.360        123.33	    12.166
  44.380         94.17	    10.630
  44.400         80.00	     9.798
  44.420         62.50	     8.660
  44.440         58.33	     8.367
  44.460         47.50	     7.550
  44.480         47.50	     7.550
  44.500         45.83	     7.416
  44.520         40.00	     6.928
  44.540         40.83	     7.000
  44.560         52.50	     7.937
  44.580         40.83	     7.000
  44.600         45.00	     7.348
  44.620         46.67	     7.483
  44.640         39.17	     6.856
  44.660         60.83	     8.544
  44.680         52.50	     7.937
  44.700         35.83	     6.557
  44.720         52.50	     7.937
  44.740         40.00	     6.928
  44.760         71.67	     9.274
  44.780         60.83	     8.544
  44.800         65.00	     8.832
  44.820         59.17	     8.426
  44.840         77.50	     9.644
  44.860         72.50	     9.327
  44.880         77.50	     9.644
  44.900         75.00	     9.487
  44.920         70.83	     9.220
  44.940         64.17	     8.775
  44.960         61.67	     8.602
  44.980         84.17	    10.050
  45.000         75.83	     9.539
  45.020         65.00	     8.832
  45.040         66.67	     8.944
  45.060         61.67	     8.602
  45.080         65.00	     8.832
  45.100         85.83	    10.149
  45.120         70.83	     9.220
  45.140         84.17	    10.050
  45.160        100.00	    10.954
  45.180         85.83	    10.149
  45.200         95.00	    10.677
  45.220         98.33	    10.863
  45.240        140.00	    12.961
  45.260        124.17	    12.207
  45.280        162.50	    13.964
  45.300        221.67	    16.310
  45.320        341.67	    20.248
  45.340        491.67	    24.290
  45.360        720.83	    29.411
  45.380        633.33	    27.568
  45.400        635.00	    27.604
  45.420        597.50	    26.777
  45.440        651.67	    27.964
  45.460        657.50	    28.089
  45.480        765.83	    30.315
  45.500        704.17	    29.069
  45.520        611.67	    27.092
  45.540        515.83	    24.880
  45.560        417.50	    22.383
  45.580        334.17	    20.025
  45.600        289.17	    18.628
  45.620        260.00	    17.664
  45.640        277.50	    18.248
  45.660        322.50	    19.672
  45.680        255.00	    17.493
  45.700        248.33	    17.263
  45.720        229.17	    16.583
  45.740        208.33	    15.811
  45.760        169.17	    14.248
  45.780        152.50	    13.528
  45.800        161.67	    13.928
  45.820        159.17	    13.820
  45.840        135.00	    12.728
  45.860        121.67	    12.083
  45.880         88.33	    10.296
  45.900         73.33	     9.381
  45.920         70.00	     9.165
  45.940         52.50	     7.937
  45.960         58.33	     8.367
  45.980         37.50	     6.708
  46.000         45.83	     7.416
  46.020         46.67	     7.483
  46.040         48.33	     7.616
  46.060         41.67	     7.071
  46.080         44.17	     7.280
  46.100         35.00	     6.481
  46.120         40.83	     7.000
  46.140         33.33	     6.325
  46.160         34.17	     6.403
  46.180         29.17	     5.916
  46.200         38.33	     6.782
  46.220         35.83	     6.557
  46.240         30.83	     6.083
  46.260         25.00	     5.477
  46.280         23.33	     5.292
  46.300         31.67	     6.164
  46.320         30.00	     6.000
  46.340         25.83	     5.568
  46.360         34.17	     6.403
  46.380         35.00	     6.481
  46.400         39.17	     6.856
  46.420         42.50	     7.141
  46.440         27.50	     5.745
  46.460         40.00	     6.928
  46.480         45.83	     7.416
  46.500         54.17	     8.062
  46.520         70.00	     9.165
  46.540         56.67	     8.246
  46.560         63.33	     8.718
  46.580         35.83	     6.557
  46.600         45.83	     7.416
  46.620         48.33	     7.616
  46.640         45.00	     7.348
  46.660         42.50	     7.141
  46.680         39.17	     6.856
  46.700         45.00	     7.348
  46.720         38.33	     6.782
  46.740         25.00	     5.477
  46.760         27.50	     5.745
  46.780         36.67	     6.633
  46.800         34.17	     6.403
  46.820         33.33	     6.325
  46.840         28.33	     5.831
  46.860         36.67	     6.633
  46.880         33.33	     6.325
  46.900         36.67	     6.633
  46.920         27.50	     5.745
  46.940         30.83	     6.083
  46.960         40.83	     7.000
  46.980         52.50	     7.937
  47.000         65.00	     8.832
  47.020         72.50	     9.327
  47.040         63.33	     8.718
  47.060         61.67	     8.602
  47.080         79.17	     9.747
  47.100         63.33	     8.718
  47.120         67.50	     9.000
  47.140         64.17	     8.775
  47.160         60.00	     8.485
  47.180         53.33	     8.000
  47.200         49.17	     7.681
  47.220         50.00	     7.746
  47.240         30.00	     6.000
  47.260         35.83	     6.557
  47.280         28.33	     5.831
  47.300         24.17	     5.385
  47.320         25.83	     5.568
  47.340         30.00	     6.000
  47.360         20.83	     5.000
  47.380         25.83	     5.568
  47.400         25.00	     5.477
  47.420         25.83	     5.568
  47.440         27.50	     5.745
  47.460         27.50	     5.745
  47.480         25.83	     5.568
  47.500         37.50	     6.708
  47.520         34.17	     6.403
  47.540         27.50	     5.745
  47.560         30.83	     6.083
  47.580         18.33	     4.690
  47.600         27.50	     5.745
  47.620         25.00	     5.477
  47.640         27.50	     5.745
  47.660         25.00	     5.477
  47.680         21.67	     5.099
  47.700         33.33	     6.325
  47.720         25.83	     5.568
  47.740         26.67	     5.657
  47.760         27.50	     5.745
  47.780         24.17	     5.385
  47.800         34.17	     6.403
  47.820         25.83	     5.568
  47.840         26.67	     5.657
  47.860         22.50	     5.196
  47.880         32.50	     6.245
  47.900         44.17	     7.280
  47.920         35.83	     6.557
  47.940         38.33	     6.782
  47.960         46.67	     7.483
  47.980         41.67	     7.071
  48.000         51.67	     7.874
  48.020         33.33	     6.325
  48.040         52.50	     7.937
  48.060         45.00	     7.348
  48.080         46.67	     7.483
  48.100         61.67	     8.602
  48.120         49.17	     7.681
  48.140         42.50	     7.141
  48.160         45.83	     7.416
  48.180         43.33	     7.211
  48.200         45.00	     7.348
  48.220         43.33	     7.211
  48.240         44.17	     7.280
  48.260         50.83	     7.810
  48.280         47.50	     7.550
  48.300         52.50	     7.937
  48.320         38.33	     6.782
  48.340         37.50	     6.708
  48.360         29.17	     5.916
  48.380         38.33	     6.782
  48.400         45.83	     7.416
  48.420         44.17	     7.280
  48.440         42.50	     7.141
  48.460         52.50	     7.937
  48.480         31.67	     6.164
  48.500         25.00	     5.477
  48.520         35.83	     6.557
  48.540         28.33	     5.831
  48.560         28.33	     5.831
  48.580         29.17	     5.916
  48.600         61.67	     8.602
  48.620         46.67	     7.483
  48.640         53.33	     8.000
  48.660         45.00	     7.348
  48.680         45.00	     7.348
  48.700         25.83	     5.568
  48.720         27.50	     5.745
  48.740         40.83	     7.000
  48.760         51.67	     7.874
  48.780         27.50	     5.745
  48.800         20.83	     5.000
  48.820         30.83	     6.083
  48.840         33.33	     6.325
  48.860         39.17	     6.856
  48.880         46.67	     7.483
  48.900         37.50	     6.708
  48.920         32.50	     6.245
  48.940         34.17	     6.403
  48.960         35.00	     6.481
  48.980         30.00	     6.000
  49.000         40.00	     6.928
  49.020         30.00	     6.000
  49.040         33.33	     6.325
  49.060         35.00	     6.481
  49.080         43.33	     7.211
  49.100         41.67	     7.071
  49.120         50.83	     7.810
  49.140         42.50	     7.141
  49.160         55.83	     8.185
  49.180         50.83	     7.810
  49.200         40.00	     6.928
  49.220         34.17	     6.403
  49.240         30.00	     6.000
  49.260         35.00	     6.481
  49.280         31.67	     6.164
  49.300         40.00	     6.928
  49.320         35.00	     6.481
  49.340         30.00	     6.000
  49.360         33.33	     6.325
  49.380         35.00	     6.481
  49.400         38.33	     6.782
  49.420         29.17	     5.916
  49.440         30.00	     6.000
  49.460         27.50	     5.745
  49.480         30.00	     6.000
  49.500         33.33	     6.325
  49.520         33.33	     6.325
  49.540         29.17	     5.916
  49.560         46.67	     7.483
  49.580         29.17	     5.916
  49.600         38.33	     6.782
  49.620         55.00	     8.124
  49.640         48.33	     7.616
  49.660         45.83	     7.416
  49.680         56.67	     8.246
  49.700         51.67	     7.874
  49.720         49.17	     7.681
  49.740         54.17	     8.062
  49.760         51.67	     7.874
  49.780         63.33	     8.718
  49.800         69.17	     9.110
  49.820         52.50	     7.937
  49.840         58.33	     8.367
  49.860         60.00	     8.485
  49.880         67.50	     9.000
  49.900         61.67	     8.602
  49.920         63.33	     8.718
  49.940         60.83	     8.544
  49.960         93.33	    10.583
  49.980        158.33	    13.784
  50.000        223.33	    16.371
  50.020        339.17	    20.174
  50.040        434.17	    22.825
  50.060        490.83	    24.269
  50.080        370.83	    21.095
  50.100        210.83	    15.906
  50.120        155.00	    13.638
  50.140        192.50	    15.199
  50.160        211.67	    15.937
  50.180        254.17	    17.464
  50.200        243.33	    17.088
  50.220        199.17	    15.460
  50.240        118.33	    11.916
  50.260         75.83	     9.539
  50.280         55.83	     8.185
  50.300         50.00	     7.746
  50.320         46.67	     7.483
  50.340         41.67	     7.071
  50.360         45.83	     7.416
  50.380         35.00	     6.481
  50.400         58.33	     8.367
  50.420         51.67	     7.874
  50.440         73.33	     9.381
  50.460         92.50	    10.536
  50.480         95.83	    10.724
  50.500         92.50	    10.536
  50.520         85.83	    10.149
  50.540         75.00	     9.487
  50.560         69.17	     9.110
  50.580         64.17	     8.775
  50.600         69.17	     9.110
  50.620         59.17	     8.426
  50.640         71.67	     9.274
  50.660         50.83	     7.810
  50.680         55.00	     8.124
  50.700         42.50	     7.141
  50.720         30.00	     6.000
  50.740         30.00	     6.000
  50.760         36.67	     6.633
  50.780         23.33	     5.292
  50.800         28.33	     5.831
  50.820         29.17	     5.916
  50.840         28.33	     5.831
  50.860         25.00	     5.477
  50.880         25.00	     5.477
  50.900         32.50	     6.245
  50.920         37.50	     6.708
  50.940         25.00	     5.477
  50.960         32.50	     6.245
  50.980         26.67	     5.657
  51.000         40.00	     6.928
  51.020         55.00	     8.124
  51.040         59.17	     8.426
  51.060         57.50	     8.307
  51.080         75.83	     9.539
  51.100         75.00	     9.487
  51.120         84.17	    10.050
  51.140         71.67	     9.274
  51.160         55.83	     8.185
  51.180         64.17	     8.775
  51.200         58.33	     8.367
  51.220         53.33	     8.000
  51.240         62.50	     8.660
  51.260         57.50	     8.307
  51.280         48.33	     7.616
  51.300         31.67	     6.164
  51.320         28.33	     5.831
  51.340         33.33	     6.325
  51.360         34.17	     6.403
  51.380         26.67	     5.657
  51.400         35.83	     6.557
  51.420         29.17	     5.916
  51.440         15.83	     4.359
  51.460         25.83	     5.568
  51.480         24.17	     5.385
  51.500         30.83	     6.083
  51.520         29.17	     5.916
  51.540         30.00	     6.000
  51.560         32.50	     6.245
  51.580         34.17	     6.403
  51.600         25.00	     5.477
  51.620         24.17	     5.385
  51.640         20.83	     5.000
  51.660         28.33	     5.831
  51.680         23.33	     5.292
  51.700         23.33	     5.292
  51.720         29.17	     5.916
  51.740         13.33	     4.000
  51.760         27.50	     5.745
  51.780         24.17	     5.385
  51.800         20.00	     4.899
  51.820         28.33	     5.831
  51.840         22.50	     5.196
  51.860         32.50	     6.245
  51.880         27.50	     5.745
  51.900         29.17	     5.916
  51.920         26.67	     5.657
  51.940         29.17	     5.916
  51.960         29.17	     5.916
  51.980         35.83	     6.557
  52.000         42.50	     7.141
  52.020         35.83	     6.557
  52.040         39.17	     6.856
  52.060         38.33	     6.782
  52.080         41.67	     7.071
  52.100         29.17	     5.916
  52.120         35.00	     6.481
  52.140         35.83	     6.557
  52.160         50.00	     7.746
  52.180         38.33	     6.782
  52.200         54.17	     8.062
  52.220         55.00	     8.124
  52.240         43.33	     7.211
  52.260         50.83	     7.810
  52.280         33.33	     6.325
  52.300         36.67	     6.633
  52.320         44.17	     7.280
  52.340         32.50	     6.245
  52.360         46.67	     7.483
  52.380         30.83	     6.083
  52.400         35.83	     6.557
  52.420         43.33	     7.211
  52.440         25.83	     5.568
  52.460         34.17	     6.403
  52.480         28.33	     5.831
  52.500         32.50	     6.245
  52.520         30.00	     6.000
  52.540         28.33	     5.831
  52.560         29.17	     5.916
  52.580         35.00	     6.481
  52.600         32.50	     6.245
  52.620         33.33	     6.325
  52.640         34.17	     6.403
  52.660         30.00	     6.000
  52.680         26.67	     5.657
  52.700         38.33	     6.782
  52.720         36.67	     6.633
  52.740         40.83	     7.000
  52.760         51.67	     7.874
  52.780         76.67	     9.592
  52.800         67.50	     9.000
  52.820         54.17	     8.062
  52.840         27.50	     5.745
  52.860         35.00	     6.481
  52.880         32.50	     6.245
  52.900         55.00	     8.124
  52.920         48.33	     7.616
  52.940         45.83	     7.416
  52.960         50.83	     7.810
  52.980         40.00	     6.928
  53.000         37.50	     6.708
  53.020         28.33	     5.831
  53.040         32.50	     6.245
  53.060         38.33	     6.782
  53.080         43.33	     7.211
  53.100         54.17	     8.062
  53.120         39.17	     6.856
  53.140         44.17	     7.280
  53.160         41.67	     7.071
  53.180         38.33	     6.782
  53.200         33.33	     6.325
  53.220         50.83	     7.810
  53.240         40.83	     7.000
  53.260         39.17	     6.856
  53.280         38.33	     6.782
  53.300         33.33	     6.325
  53.320         35.83	     6.557
  53.340         31.67	     6.164
  53.360         32.50	     6.245
  53.380         37.50	     6.708
  53.400         40.00	     6.928
  53.420         36.67	     6.633
  53.440         33.33	     6.325
  53.460         35.00	     6.481
  53.480         28.33	     5.831
  53.500         39.17	     6.856
  53.520         37.50	     6.708
  53.540         35.00	     6.481
  53.560         24.17	     5.385
  53.580         30.00	     6.000
  53.600         30.00	     6.000
  53.620         31.67	     6.164
  53.640         25.83	     5.568
  53.660         23.33	     5.292
  53.680         33.33	     6.325
  53.700         22.50	     5.196
  53.720         26.67	     5.657
  53.740         30.83	     6.083
  53.760         27.50	     5.745
  53.780         23.33	     5.292
  53.800         28.33	     5.831
  53.820         22.50	     5.196
  53.840         23.33	     5.292
  53.860         25.83	     5.568
  53.880         22.50	     5.196
  53.900         29.17	     5.916
  53.920         22.50	     5.196
  53.940         22.50	     5.196
  53.960         21.67	     5.099
  53.980         23.33	     5.292
  54.000         26.67	     5.657
  54.020         35.83	     6.557
  54.040         31.67	     6.164
  54.060         27.50	     5.745
  54.080         31.67	     6.164
  54.100         24.17	     5.385
  54.120         32.50	     6.245
  54.140         26.67	     5.657
  54.160         26.67	     5.657
  54.180         27.50	     5.745
  54.200         33.33	     6.325
  54.220         33.33	     6.325
  54.240         36.67	     6.633
  54.260         36.67	     6.633
  54.280         24.17	     5.385
  54.300         32.50	     6.245
  54.320         37.50	     6.708
  54.340         25.00	     5.477
  54.360         41.67	     7.071
  54.380         41.67	     7.071
  54.400         41.67	     7.071
  54.420         35.00	     6.481
  54.440         40.00	     6.928
  54.460         37.50	     6.708
  54.480         41.67	     7.071
  54.500         45.00	     7.348
  54.520         41.67	     7.071
  54.540         32.50	     6.245
  54.560         47.50	     7.550
  54.580         43.33	     7.211
  54.600         33.33	     6.325
  54.620         46.67	     7.483
  54.640         54.17	     8.062
  54.660         44.17	     7.280
  54.680         63.33	     8.718
  54.700         75.00	     9.487
  54.720        120.00	    12.000
  54.740        230.83	    16.643
  54.760        439.17	    22.956
  54.780        472.50	    23.812
  54.800        334.17	    20.025
  54.820        205.83	    15.716
  54.840        123.33	    12.166
  54.860        100.00	    10.954
  54.880        126.67	    12.329
  54.900        206.67	    15.748
  54.920        248.33	    17.263
  54.940        235.00	    16.793
  54.960        146.67	    13.266
  54.980         87.50	    10.247
  55.000         65.00	     8.832
  55.020         56.67	     8.246
  55.040         47.50	     7.550
  55.060         53.33	     8.000
  55.080         46.67	     7.483
  55.100         41.67	     7.071
  55.120         61.67	     8.602
  55.140         45.83	     7.416
  55.160         52.50	     7.937
  55.180         62.50	     8.660
  55.200         85.83	    10.149
  55.220        110.00	    11.489
  55.240         86.67	    10.198
  55.260         86.67	    10.198
  55.280         62.50	     8.660
  55.300         51.67	     7.874
  55.320         51.67	     7.874
  55.340         43.33	     7.211
  55.360         67.50	     9.000
  55.380         62.50	     8.660
  55.400         66.67	     8.944
  55.420         57.50	     8.307
  55.440         36.67	     6.633
  55.460         51.67	     7.874
  55.480         55.83	     8.185
  55.500         45.00	     7.348
  55.520         55.83	     8.185
  55.540         37.50	     6.708
  55.560         45.00	     7.348
  55.580         54.17	     8.062
  55.600         55.00	     8.124
  55.620         42.50	     7.141
  55.640         52.50	     7.937
  55.660         48.33	     7.616
  55.680         54.17	     8.062
  55.700         55.83	     8.185
  55.720         59.17	     8.426
  55.740         67.50	     9.000
  55.760         73.33	     9.381
  55.780         82.50	     9.950
  55.800         84.17	    10.050
  55.820         74.17	     9.434
  55.840         84.17	    10.050
  55.860         84.17	    10.050
  55.880         75.83	     9.539
  55.900         55.83	     8.185
  55.920         65.83	     8.888
  55.940         59.17	     8.426
  55.960         69.17	     9.110
  55.980         64.17	     8.775
  56.000         76.67	     9.592
  56.020         59.17	     8.426
  56.040         55.00	     8.124
  56.060         46.67	     7.483
  56.080         45.00	     7.348
  56.100         38.33	     6.782
  56.120         44.17	     7.280
  56.140         55.83	     8.185
  56.160         69.17	     9.110
  56.180         48.33	     7.616
  56.200         38.33	     6.782
  56.220         43.33	     7.211
  56.240         31.67	     6.164
  56.260         28.33	     5.831
  56.280         33.33	     6.325
  56.300         30.00	     6.000
  56.320         43.33	     7.211
  56.340         48.33	     7.616
  56.360         42.50	     7.141
  56.380         45.00	     7.348
  56.400         46.67	     7.483
  56.420         51.67	     7.874
  56.440         54.17	     8.062
  56.460         44.17	     7.280
  56.480         75.00	     9.487
  56.500         69.17	     9.110
  56.520         92.50	    10.536
  56.540         85.83	    10.149
  56.560         85.00	    10.100
  56.580         74.17	     9.434
  56.600         61.67	     8.602
  56.620         61.67	     8.602
  56.640         48.33	     7.616
  56.660         42.50	     7.141
  56.680         66.67	     8.944
  56.700         48.33	     7.616
  56.720         50.00	     7.746
  56.740         45.00	     7.348
  56.760         30.00	     6.000
  56.780         30.83	     6.083
  56.800         37.50	     6.708
  56.820         28.33	     5.831
  56.840         27.50	     5.745
  56.860         27.50	     5.745
  56.880         32.50	     6.245
  56.900         25.00	     5.477
  56.920         40.00	     6.928
  56.940         29.17	     5.916
  56.960         34.17	     6.403
  56.980         31.67	     6.164
  57.000         28.33	     5.831
  57.020         31.67	     6.164
  57.040         32.50	     6.245
  57.060         34.17	     6.403
  57.080         41.67	     7.071
  57.100         34.17	     6.403
  57.120         40.83	     7.000
  57.140         28.33	     5.831
  57.160         32.50	     6.245
  57.180         41.67	     7.071
  57.200         27.50	     5.745
  57.220         40.00	     6.928
  57.240         36.67	     6.633
  57.260         35.83	     6.557
  57.280         33.33	     6.325
  57.300         27.50	     5.745
  57.320         32.50	     6.245
  57.340         38.33	     6.782
  57.360         40.00	     6.928
  57.380         39.17	     6.856
  57.400         47.50	     7.550
  57.420         46.67	     7.483
  57.440         39.17	     6.856
  57.460         44.17	     7.280
  57.480         43.33	     7.211
  57.500         45.83	     7.416
  57.520         54.17	     8.062
  57.540         31.67	     6.164
  57.560         43.33	     7.211
  57.580         40.00	     6.928
  57.600         30.83	     6.083
  57.620         41.67	     7.071
  57.640         50.83	     7.810
  57.660         40.83	     7.000
  57.680         30.83	     6.083
  57.700         44.17	     7.280
  57.720         40.00	     6.928
  57.740         30.00	     6.000
  57.760         45.83	     7.416
  57.780         29.17	     5.916
  57.800         35.00	     6.481
  57.820         35.83	     6.557
  57.840         34.17	     6.403
  57.860         32.50	     6.245
  57.880         45.83	     7.416
  57.900         31.67	     6.164
  57.920         34.17	     6.403
  57.940         33.33	     6.325
  57.960         30.83	     6.083
  57.980         35.00	     6.481
  58.000         31.67	     6.164
  58.020         35.83	     6.557
  58.040         30.00	     6.000
  58.060         34.17	     6.403
  58.080         31.67	     6.164
  58.100         32.50	     6.245
  58.120         28.33	     5.831
  58.140         40.83	     7.000
  58.160         25.00	     5.477
  58.180         30.83	     6.083
  58.200         31.67	     6.164
  58.220         34.17	     6.403
  58.240         35.83	     6.557
  58.260         32.50	     6.245
  58.280         25.83	     5.568
  58.300         26.67	     5.657
  58.320         22.50	     5.196
  58.340         30.83	     6.083
  58.360         35.83	     6.557
  58.380         30.00	     6.000
  58.400         44.17	     7.280
  58.420         33.33	     6.325
  58.440         28.33	     5.831
  58.460         27.50	     5.745
  58.480         29.17	     5.916
  58.500         30.83	     6.083
  58.520         43.33	     7.211
  58.540         33.33	     6.325
  58.560         41.67	     7.071
  58.580         40.83	     7.000
  58.600         42.50	     7.141
  58.620         40.00	     6.928
  58.640         58.33	     8.367
  58.660         54.17	     8.062
  58.680         79.17	     9.747
  58.700         85.00	    10.100
  58.720         60.00	     8.485
  58.740         42.50	     7.141
  58.760         40.83	     7.000
  58.780         49.17	     7.681
  58.800         49.17	     7.681
  58.820         55.00	     8.124
  58.840         62.50	     8.660
  58.860         60.83	     8.544
  58.880         46.67	     7.483
  58.900         45.83	     7.416
  58.920         40.00	     6.928
  58.940         46.67	     7.483
  58.960         32.50	     6.245
  58.980         40.00	     6.928
  59.000         45.83	     7.416
  59.020         31.67	     6.164
  59.040         49.17	     7.681
  59.060         40.83	     7.000
  59.080         49.17	     7.681
  59.100         45.83	     7.416
  59.120         42.50	     7.141
  59.140         53.33	     8.000
  59.160         41.67	     7.071
  59.180         34.17	     6.403
  59.200         35.00	     6.481
  59.220         35.83	     6.557
  59.240         35.00	     6.481
  59.260         34.17	     6.403
  59.280         36.67	     6.633
  59.300         37.50	     6.708
  59.320         35.83	     6.557
  59.340         41.67	     7.071
  59.360         35.00	     6.481
  59.380         28.33	     5.831
  59.400         27.50	     5.745
  59.420         37.50	     6.708
  59.440         28.33	     5.831
  59.460         35.00	     6.481
  59.480         39.17	     6.856
  59.500         26.67	     5.657
  59.520         39.17	     6.856
  59.540         30.83	     6.083
  59.560         40.00	     6.928
  59.580         45.00	     7.348
  59.600         45.83	     7.416
  59.620         44.17	     7.280
  59.640         59.17	     8.426
  59.660         53.33	     8.000
  59.680         56.67	     8.246
  59.700         64.17	     8.775
  59.720         66.67	     8.944
  59.740         70.83	     9.220
  59.760         69.17	     9.110
  59.780        102.50	    11.091
  59.800        135.83	    12.767
  59.820        240.83	    17.000
  59.840        343.33	    20.298
  59.860        482.50	    24.062
  59.880        639.17	    27.695
  59.900        579.17	    26.363
  59.920        420.83	    22.472
  59.940        235.83	    16.823
  59.960        148.33	    13.342
  59.980        165.83	    14.107
  60.000        210.83	    15.906
  60.020        285.00	    18.493
  60.040        326.67	    19.799
  60.060        340.83	    20.224
  60.080        298.33	    18.921
  60.100        174.17	    14.457
  60.120        105.00	    11.225
  60.140         78.33	     9.695
  60.160         75.00	     9.487
  60.180         66.67	     8.944
  60.200         64.17	     8.775
  60.220         65.00	     8.832
  60.240         50.83	     7.810
  60.260         52.50	     7.937
  60.280         42.50	     7.141
  60.300         53.33	     8.000
  60.320         48.33	     7.616
  60.340         47.50	     7.550
  60.360         64.17	     8.775
  60.380         51.67	     7.874
  60.400         65.00	     8.832
  60.420         68.33	     9.055
  60.440         56.67	     8.246
  60.460         85.00	    10.100
  60.480         59.17	     8.426
  60.500         52.50	     7.937
  60.520         48.33	     7.616
  60.540         55.00	     8.124
  60.560         49.17	     7.681
  60.580         47.50	     7.550
  60.600         58.33	     8.367
  60.620         75.83	     9.539
  60.640         79.17	     9.747
  60.660         71.67	     9.274
  60.680         87.50	    10.247
  60.700         83.33	    10.000
  60.720        102.50	    11.091
  60.740         92.50	    10.536
  60.760         92.50	    10.536
  60.780         89.17	    10.344
  60.800         90.00	    10.392
  60.820         68.33	     9.055
  60.840         82.50	     9.950
  60.860         58.33	     8.367
  60.880         72.50	     9.327
  60.900         68.33	     9.055
  60.920         78.33	     9.695
  60.940         60.00	     8.485
  60.960         60.83	     8.544
  60.980         46.67	     7.483
  61.000         35.00	     6.481
  61.020         47.50	     7.550
  61.040         41.67	     7.071
  61.060         41.67	     7.071
  61.080         37.50	     6.708
  61.100         33.33	     6.325
  61.120         39.17	     6.856
  61.140         41.67	     7.071
  61.160         31.67	     6.164
  61.180         34.17	     6.403
  61.200         29.17	     5.916
  61.220         35.83	     6.557
  61.240         45.00	     7.348
  61.260         33.33	     6.325
  61.280         40.00	     6.928
  61.300         45.83	     7.416
  61.320         36.67	     6.633
  61.340         38.33	     6.782
  61.360         50.83	     7.810
  61.380         57.50	     8.307
  61.400         50.00	     7.746
  61.420         38.33	     6.782
  61.440         40.00	     6.928
  61.460         34.17	     6.403
  61.480         37.50	     6.708
  61.500         45.00	     7.348
  61.520         39.17	     6.856
  61.540         42.50	     7.141
  61.560         40.83	     7.000
  61.580         26.67	     5.657
  61.600         35.00	     6.481
  61.620         41.67	     7.071
  61.640         50.00	     7.746
  61.660         40.00	     6.928
  61.680         32.50	     6.245
  61.700         26.67	     5.657
  61.720         36.67	     6.633
  61.740         32.50	     6.245
  61.760         31.67	     6.164
  61.780         35.83	     6.557
  61.800         45.83	     7.416
  61.820         30.83	     6.083
  61.840         29.17	     5.916
  61.860         45.83	     7.416
  61.880         37.50	     6.708
  61.900         34.17	     6.403
  61.920         34.17	     6.403
  61.940         30.83	     6.083
  61.960         33.33	     6.325
  61.980         46.67	     7.483
  62.000         20.83	     5.000
  62.020         20.00	     4.899
  62.040         42.50	     7.141
  62.060         26.67	     5.657
  62.080         24.17	     5.385
  62.100         26.67	     5.657
  62.120         46.67	     7.483
  62.140         30.83	     6.083
  62.160         31.67	     6.164
  62.180         28.33	     5.831
  62.200         24.17	     5.385
  62.220         34.17	     6.403
  62.240         36.67	     6.633
  62.260         36.67	     6.633
  62.280         36.67	     6.633
  62.300         25.83	     5.568
  62.320         28.33	     5.831
  62.340         29.17	     5.916
  62.360         27.50	     5.745
  62.380         24.17	     5.385
  62.400         33.33	     6.325
  62.420         30.00	     6.000
  62.440         26.67	     5.657
  62.460         28.33	     5.831
  62.480         34.17	     6.403
  62.500         32.50	     6.245
  62.520         30.00	     6.000
  62.540         24.17	     5.385
  62.560         32.50	     6.245
  62.580         24.17	     5.385
  62.600         28.33	     5.831
  62.620         40.00	     6.928
  62.640         30.00	     6.000
  62.660         32.50	     6.245
  62.680         22.50	     5.196
  62.700         37.50	     6.708
  62.720         30.83	     6.083
  62.740         25.00	     5.477
  62.760         31.67	     6.164
  62.780         34.17	     6.403
  62.800         26.67	     5.657
  62.820         30.83	     6.083
  62.840         28.33	     5.831
  62.860         23.33	     5.292
  62.880         29.17	     5.916
  62.900         25.83	     5.568
  62.920         31.67	     6.164
  62.940         30.00	     6.000
  62.960         26.67	     5.657
  62.980         34.17	     6.403
  63.000         40.83	     7.000
  63.020         36.67	     6.633
  63.040         33.33	     6.325
  63.060         37.50	     6.708
  63.080         34.17	     6.403
  63.100         25.83	     5.568
  63.120         39.17	     6.856
  63.140         28.33	     5.831
  63.160         35.83	     6.557
  63.180         33.33	     6.325
  63.200         20.00	     4.899
  63.220         34.17	     6.403
  63.240         29.17	     5.916
  63.260         35.83	     6.557
  63.280         31.67	     6.164
  63.300         27.50	     5.745
  63.320         38.33	     6.782
  63.340         32.50	     6.245
  63.360         29.17	     5.916
  63.380         28.33	     5.831
  63.400         37.50	     6.708
  63.420         19.17	     4.796
  63.440         31.67	     6.164
  63.460         40.83	     7.000
  63.480         40.83	     7.000
  63.500         41.67	     7.071
  63.520         32.50	     6.245
  63.540         26.67	     5.657
  63.560         37.50	     6.708
  63.580         45.00	     7.348
  63.600         77.50	     9.644
  63.620         71.67	     9.274
  63.640         60.83	     8.544
  63.660         50.00	     7.746
  63.680         34.17	     6.403
  63.700         42.50	     7.141
  63.720         36.67	     6.633
  63.740         55.00	     8.124
  63.760         60.00	     8.485
  63.780         44.17	     7.280
  63.800         49.17	     7.681
  63.820         45.83	     7.416
  63.840         46.67	     7.483
  63.860         45.83	     7.416
  63.880         45.00	     7.348
  63.900         58.33	     8.367
  63.920         75.83	     9.539
  63.940         97.50	    10.817
  63.960         95.00	    10.677
  63.980        110.83	    11.533
  64.000         71.67	     9.274
  64.020         75.00	     9.487
  64.040         67.50	     9.000
  64.060         70.83	     9.220
  64.080         70.00	     9.165
  64.100         86.67	    10.198
  64.120        105.83	    11.269
  64.140         85.00	    10.100
  64.160         97.50	    10.817
  64.180         71.67	     9.274
  64.200         68.33	     9.055
  64.220         85.00	    10.100
  64.240         89.17	    10.344
  64.260        112.50	    11.619
  64.280        255.83	    17.521
  64.300        377.50	    21.284
  64.320        549.17	    25.671
  64.340        561.67	    25.962
  64.360        415.83	    22.338
  64.380        244.17	    17.117
  64.400        169.17	    14.248
  64.420        121.67	    12.083
  64.440        130.83	    12.530
  64.460        147.50	    13.304
  64.480        261.67	    17.720
  64.500        312.50	    19.365
  64.520        320.00	    19.596
  64.540        229.17	    16.583
  64.560        137.50	    12.845
  64.580         91.67	    10.488
  64.600         80.83	     9.849
  64.620         67.50	     9.000
  64.640         52.50	     7.937
  64.660         55.00	     8.124
  64.680         36.67	     6.633
  64.700         41.67	     7.071
  64.720         37.50	     6.708
  64.740         41.67	     7.071
  64.760         34.17	     6.403
  64.780         31.67	     6.164
  64.800         29.17	     5.916
  64.820         36.67	     6.633
  64.840         34.17	     6.403
  64.860         28.33	     5.831
  64.880         30.83	     6.083
  64.900         25.00	     5.477
  64.920         39.17	     6.856
  64.940         42.50	     7.141
  64.960         44.17	     7.280
  64.980         36.67	     6.633
  65.000         46.67	     7.483
