
Filename:
	C:\Program Files\Thermo Electron\WinXRD\Datafiles\F_HERMAN\FIEN\G28_RT.raw

File Created:
	January 30, 2020 - 02:25 PM

Specimen Id:
	G28 RT

Specimen Name:
	

Specimen Description:
	

Comment:
Scan Type: 2Theta Scan
Start Angle: 3 deg.
Stop Angle: 65 deg.
Num Points: 3101
Step Size: 0.02 deg.
Scan Rate: 1.000000
Scan Mode: Continuous
Wavelength: 1.540562
\Kalpha1: 1.540562	\Kalpha2: 1.544390	\Kbeta: 1.392218

Optics:
		Detector:
			 Type: Fixed Slits
		Tube: 
			 Type: Fixed Slits


Datas:
 Pos [deg]       Rate [CPS]      ESD [-]

Range 1 ---> Iteration 1
   3.000        453.33	    23.324
   3.020        479.17	    23.979
   3.040        450.00	    23.238
   3.060        424.17	    22.561
   3.080        430.83	    22.738
   3.100        452.50	    23.302
   3.120        445.00	    23.108
   3.140        399.17	    21.886
   3.160        450.00	    23.238
   3.180        420.83	    22.472
   3.200        420.00	    22.450
   3.220        435.83	    22.869
   3.240        460.00	    23.495
   3.260        400.83	    21.932
   3.280        396.67	    21.817
   3.300        377.50	    21.284
   3.320        401.67	    21.954
   3.340        369.17	    21.048
   3.360        384.17	    21.471
   3.380        413.33	    22.271
   3.400        387.50	    21.564
   3.420        381.67	    21.401
   3.440        370.83	    21.095
   3.460        415.83	    22.338
   3.480        391.67	    21.679
   3.500        349.17	    20.469
   3.520        361.67	    20.833
   3.540        375.83	    21.237
   3.560        396.67	    21.817
   3.580        369.17	    21.048
   3.600        363.33	    20.881
   3.620        353.33	    20.591
   3.640        353.33	    20.591
   3.660        339.17	    20.174
   3.680        335.83	    20.075
   3.700        380.00	    21.354
   3.720        341.67	    20.248
   3.740        370.83	    21.095
   3.760        350.83	    20.518
   3.780        343.33	    20.298
   3.800        340.83	    20.224
   3.820        333.33	    20.000
   3.840        305.83	    19.157
   3.860        332.50	    19.975
   3.880        357.50	    20.712
   3.900        287.50	    18.574
   3.920        299.17	    18.947
   3.940        337.50	    20.125
   3.960        341.67	    20.248
   3.980        321.67	    19.647
   4.000        347.50	    20.421
   4.020        319.17	    19.570
   4.040        336.67	    20.100
   4.060        314.17	    19.416
   4.080        326.67	    19.799
   4.100        322.50	    19.672
   4.120        328.33	    19.849
   4.140        331.67	    19.950
   4.160        324.17	    19.723
   4.180        335.83	    20.075
   4.200        321.67	    19.647
   4.220        291.67	    18.708
   4.240        310.00	    19.287
   4.260        323.33	    19.698
   4.280        305.83	    19.157
   4.300        307.50	    19.209
   4.320        289.17	    18.628
   4.340        312.50	    19.365
   4.360        312.50	    19.365
   4.380        315.83	    19.468
   4.400        300.83	    19.000
   4.420        255.83	    17.521
   4.440        258.33	    17.607
   4.460        290.00	    18.655
   4.480        281.67	    18.385
   4.500        260.83	    17.692
   4.520        286.67	    18.547
   4.540        296.67	    18.868
   4.560        280.00	    18.330
   4.580        287.50	    18.574
   4.600        266.67	    17.889
   4.620        265.00	    17.833
   4.640        297.50	    18.894
   4.660        281.67	    18.385
   4.680        245.00	    17.146
   4.700        275.83	    18.193
   4.720        256.67	    17.550
   4.740        255.00	    17.493
   4.760        303.33	    19.079
   4.780        273.33	    18.111
   4.800        256.67	    17.550
   4.820        283.33	    18.439
   4.840        263.33	    17.776
   4.860        265.00	    17.833
   4.880        265.00	    17.833
   4.900        261.67	    17.720
   4.920        254.17	    17.464
   4.940        241.67	    17.029
   4.960        235.83	    16.823
   4.980        257.50	    17.578
   5.000        257.50	    17.578
   5.020        227.50	    16.523
   5.040        219.17	    16.217
   5.060        225.00	    16.432
   5.080        227.50	    16.523
   5.100        227.50	    16.523
   5.120        231.67	    16.673
   5.140        249.17	    17.292
   5.160        225.83	    16.462
   5.180        222.50	    16.340
   5.200        220.00	    16.248
   5.220        243.33	    17.088
   5.240        225.00	    16.432
   5.260        251.67	    17.378
   5.280        240.83	    17.000
   5.300        239.17	    16.941
   5.320        226.67	    16.492
   5.340        243.33	    17.088
   5.360        237.50	    16.882
   5.380        220.00	    16.248
   5.400        213.33	    16.000
   5.420        240.00	    16.971
   5.440        270.00	    18.000
   5.460        239.17	    16.941
   5.480        217.50	    16.155
   5.500        231.67	    16.673
   5.520        249.17	    17.292
   5.540        241.67	    17.029
   5.560        199.17	    15.460
   5.580        233.33	    16.733
   5.600        216.67	    16.125
   5.620        195.83	    15.330
   5.640        220.83	    16.279
   5.660        249.17	    17.292
   5.680        216.67	    16.125
   5.700        242.50	    17.059
   5.720        226.67	    16.492
   5.740        232.50	    16.703
   5.760        211.67	    15.937
   5.780        279.17	    18.303
   5.800        260.83	    17.692
   5.820        276.67	    18.221
   5.840        250.83	    17.349
   5.860        325.83	    19.774
   5.880        333.33	    20.000
   5.900        334.17	    20.025
   5.920        297.50	    18.894
   5.940        303.33	    19.079
   5.960        290.83	    18.682
   5.980        250.83	    17.349
   6.000        262.50	    17.748
   6.020        280.83	    18.358
   6.040        295.83	    18.841
   6.060        244.17	    17.117
   6.080        250.00	    17.321
   6.100        283.33	    18.439
   6.120        305.00	    19.131
   6.140        283.33	    18.439
   6.160        307.50	    19.209
   6.180        255.00	    17.493
   6.200        237.50	    16.882
   6.220        220.83	    16.279
   6.240        223.33	    16.371
   6.260        237.50	    16.882
   6.280        208.33	    15.811
   6.300        189.17	    15.067
   6.320        223.33	    16.371
   6.340        198.33	    15.427
   6.360        207.50	    15.780
   6.380        212.50	    15.969
   6.400        178.33	    14.629
   6.420        220.00	    16.248
   6.440        190.83	    15.133
   6.460        199.17	    15.460
   6.480        206.67	    15.748
   6.500        187.50	    15.000
   6.520        189.17	    15.067
   6.540        174.17	    14.457
   6.560        179.17	    14.663
   6.580        191.67	    15.166
   6.600        198.33	    15.427
   6.620        194.17	    15.264
   6.640        207.50	    15.780
   6.660        190.83	    15.133
   6.680        182.50	    14.799
   6.700        185.83	    14.933
   6.720        186.67	    14.967
   6.740        199.17	    15.460
   6.760        196.67	    15.362
   6.780        180.00	    14.697
   6.800        210.83	    15.906
   6.820        182.50	    14.799
   6.840        196.67	    15.362
   6.860        210.00	    15.875
   6.880        202.50	    15.588
   6.900        175.83	    14.526
   6.920        179.17	    14.663
   6.940        184.17	    14.866
   6.960        186.67	    14.967
   6.980        159.17	    13.820
   7.000        198.33	    15.427
   7.020        188.33	    15.033
   7.040        160.83	    13.892
   7.060        163.33	    14.000
   7.080        171.67	    14.353
   7.100        158.33	    13.784
   7.120        196.67	    15.362
   7.140        155.00	    13.638
   7.160        193.33	    15.232
   7.180        179.17	    14.663
   7.200        157.50	    13.748
   7.220        165.83	    14.107
   7.240        167.50	    14.177
   7.260        180.83	    14.731
   7.280        178.33	    14.629
   7.300        171.67	    14.353
   7.320        166.67	    14.142
   7.340        160.00	    13.856
   7.360        185.83	    14.933
   7.380        150.00	    13.416
   7.400        162.50	    13.964
   7.420        167.50	    14.177
   7.440        152.50	    13.528
   7.460        159.17	    13.820
   7.480        157.50	    13.748
   7.500        148.33	    13.342
   7.520        174.17	    14.457
   7.540        170.83	    14.318
   7.560        161.67	    13.928
   7.580        157.50	    13.748
   7.600        144.17	    13.153
   7.620        167.50	    14.177
   7.640        165.83	    14.107
   7.660        149.17	    13.379
   7.680        151.67	    13.491
   7.700        159.17	    13.820
   7.720        164.17	    14.036
   7.740        150.83	    13.454
   7.760        148.33	    13.342
   7.780        148.33	    13.342
   7.800        161.67	    13.928
   7.820        160.00	    13.856
   7.840        156.67	    13.711
   7.860        143.33	    13.115
   7.880        160.00	    13.856
   7.900        150.00	    13.416
   7.920        157.50	    13.748
   7.940        169.17	    14.248
   7.960        145.00	    13.191
   7.980        162.50	    13.964
   8.000        141.67	    13.038
   8.020        129.17	    12.450
   8.040        161.67	    13.928
   8.060        146.67	    13.266
   8.080        160.83	    13.892
   8.100        165.00	    14.071
   8.120        153.33	    13.565
   8.140        164.17	    14.036
   8.160        136.67	    12.806
   8.180        146.67	    13.266
   8.200        147.50	    13.304
   8.220        145.83	    13.229
   8.240        155.00	    13.638
   8.260        174.17	    14.457
   8.280        172.50	    14.387
   8.300        165.83	    14.107
   8.320        145.83	    13.229
   8.340        163.33	    14.000
   8.360        150.00	    13.416
   8.380        153.33	    13.565
   8.400        176.67	    14.560
   8.420        180.00	    14.697
   8.440        180.00	    14.697
   8.460        175.00	    14.491
   8.480        160.83	    13.892
   8.500        189.17	    15.067
   8.520        171.67	    14.353
   8.540        170.00	    14.283
   8.560        185.00	    14.900
   8.580        195.83	    15.330
   8.600        211.67	    15.937
   8.620        221.67	    16.310
   8.640        236.67	    16.852
   8.660        257.50	    17.578
   8.680        296.67	    18.868
   8.700        300.00	    18.974
   8.720        337.50	    20.125
   8.740        450.83	    23.259
   8.760        555.83	    25.826
   8.780        706.67	    29.120
   8.800        820.00	    31.369
   8.820        637.50	    27.659
   8.840        485.83	    24.145
   8.860        266.67	    17.889
   8.880        208.33	    15.811
   8.900        151.67	    13.491
   8.920        154.17	    13.601
   8.940        141.67	    13.038
   8.960        152.50	    13.528
   8.980        156.67	    13.711
   9.000        156.67	    13.711
   9.020        150.00	    13.416
   9.040        145.00	    13.191
   9.060        148.33	    13.342
   9.080        157.50	    13.748
   9.100        168.33	    14.213
   9.120        162.50	    13.964
   9.140        160.83	    13.892
   9.160        122.50	    12.124
   9.180        135.00	    12.728
   9.200        140.00	    12.961
   9.220        148.33	    13.342
   9.240        119.17	    11.958
   9.260        145.83	    13.229
   9.280        135.00	    12.728
   9.300        130.00	    12.490
   9.320        148.33	    13.342
   9.340        155.00	    13.638
   9.360        145.83	    13.229
   9.380        135.83	    12.767
   9.400        144.17	    13.153
   9.420        127.50	    12.369
   9.440        135.00	    12.728
   9.460        128.33	    12.410
   9.480        129.17	    12.450
   9.500        115.00	    11.747
   9.520        128.33	    12.410
   9.540        128.33	    12.410
   9.560        132.50	    12.610
   9.580        119.17	    11.958
   9.600        135.83	    12.767
   9.620        114.17	    11.705
   9.640        114.17	    11.705
   9.660        125.00	    12.247
   9.680        118.33	    11.916
   9.700        130.00	    12.490
   9.720        131.67	    12.570
   9.740        143.33	    13.115
   9.760        110.83	    11.533
   9.780        121.67	    12.083
   9.800        115.00	    11.747
   9.820        118.33	    11.916
   9.840        115.83	    11.790
   9.860        100.00	    10.954
   9.880        102.50	    11.091
   9.900        116.67	    11.832
   9.920        120.83	    12.042
   9.940        110.83	    11.533
   9.960        118.33	    11.916
   9.980        115.00	    11.747
  10.000        115.00	    11.747
  10.020        127.50	    12.369
  10.040        101.67	    11.045
  10.060        115.00	    11.747
  10.080        120.83	    12.042
  10.100        122.50	    12.124
  10.120        110.83	    11.533
  10.140        109.17	    11.446
  10.160        106.67	    11.314
  10.180        112.50	    11.619
  10.200        119.17	    11.958
  10.220        116.67	    11.832
  10.240        110.00	    11.489
  10.260        109.17	    11.446
  10.280        121.67	    12.083
  10.300        106.67	    11.314
  10.320        138.33	    12.884
  10.340        112.50	    11.619
  10.360        136.67	    12.806
  10.380        103.33	    11.136
  10.400        125.83	    12.288
  10.420        130.83	    12.530
  10.440        130.83	    12.530
  10.460        151.67	    13.491
  10.480        121.67	    12.083
  10.500        111.67	    11.576
  10.520        135.83	    12.767
  10.540        123.33	    12.166
  10.560        107.50	    11.358
  10.580        105.83	    11.269
  10.600        105.00	    11.225
  10.620        103.33	    11.136
  10.640        125.00	    12.247
  10.660        101.67	    11.045
  10.680         77.50	     9.644
  10.700        112.50	    11.619
  10.720        113.33	    11.662
  10.740        110.00	    11.489
  10.760        100.00	    10.954
  10.780        100.83	    11.000
  10.800         73.33	     9.381
  10.820        107.50	    11.358
  10.840        100.00	    10.954
  10.860         98.33	    10.863
  10.880        101.67	    11.045
  10.900        109.17	    11.446
  10.920        106.67	    11.314
  10.940         86.67	    10.198
  10.960        108.33	    11.402
  10.980        102.50	    11.091
  11.000        105.83	    11.269
  11.020        103.33	    11.136
  11.040         96.67	    10.770
  11.060        102.50	    11.091
  11.080        101.67	    11.045
  11.100         97.50	    10.817
  11.120        105.00	    11.225
  11.140         92.50	    10.536
  11.160        100.00	    10.954
  11.180        110.83	    11.533
  11.200        101.67	    11.045
  11.220        115.83	    11.790
  11.240         90.83	    10.440
  11.260         87.50	    10.247
  11.280        105.83	    11.269
  11.300        103.33	    11.136
  11.320        103.33	    11.136
  11.340        105.00	    11.225
  11.360         90.00	    10.392
  11.380         92.50	    10.536
  11.400        105.00	    11.225
  11.420        109.17	    11.446
  11.440         86.67	    10.198
  11.460         97.50	    10.817
  11.480         99.17	    10.909
  11.500         82.50	     9.950
  11.520        107.50	    11.358
  11.540        115.83	    11.790
  11.560         92.50	    10.536
  11.580        118.33	    11.916
  11.600        100.83	    11.000
  11.620        100.83	    11.000
  11.640         90.83	    10.440
  11.660        107.50	    11.358
  11.680         97.50	    10.817
  11.700        101.67	    11.045
  11.720         94.17	    10.630
  11.740         91.67	    10.488
  11.760        101.67	    11.045
  11.780         93.33	    10.583
  11.800         93.33	    10.583
  11.820         91.67	    10.488
  11.840        112.50	    11.619
  11.860        100.83	    11.000
  11.880        106.67	    11.314
  11.900        130.83	    12.530
  11.920        127.50	    12.369
  11.940        120.00	    12.000
  11.960        119.17	    11.958
  11.980        116.67	    11.832
  12.000        133.33	    12.649
  12.020        146.67	    13.266
  12.040        147.50	    13.304
  12.060        202.50	    15.588
  12.080        267.50	    17.916
  12.100        291.67	    18.708
  12.120        295.83	    18.841
  12.140        221.67	    16.310
  12.160        195.00	    15.297
  12.180        164.17	    14.036
  12.200        155.00	    13.638
  12.220        170.83	    14.318
  12.240        165.00	    14.071
  12.260        177.50	    14.595
  12.280        161.67	    13.928
  12.300        155.83	    13.675
  12.320        193.33	    15.232
  12.340        196.67	    15.362
  12.360        228.33	    16.553
  12.380        295.83	    18.841
  12.400        373.33	    21.166
  12.420        360.83	    20.809
  12.440        300.00	    18.974
  12.460        245.83	    17.176
  12.480        170.83	    14.318
  12.500        128.33	    12.410
  12.520         93.33	    10.583
  12.540         99.17	    10.909
  12.560         98.33	    10.863
  12.580        107.50	    11.358
  12.600         93.33	    10.583
  12.620         94.17	    10.630
  12.640         88.33	    10.296
  12.660         95.00	    10.677
  12.680         96.67	    10.770
  12.700         98.33	    10.863
  12.720         83.33	    10.000
  12.740        102.50	    11.091
  12.760         93.33	    10.583
  12.780         87.50	    10.247
  12.800         78.33	     9.695
  12.820         91.67	    10.488
  12.840         84.17	    10.050
  12.860        101.67	    11.045
  12.880         82.50	     9.950
  12.900         79.17	     9.747
  12.920        103.33	    11.136
  12.940         94.17	    10.630
  12.960         87.50	    10.247
  12.980         80.00	     9.798
  13.000         88.33	    10.296
  13.020         79.17	     9.747
  13.040         70.00	     9.165
  13.060         89.17	    10.344
  13.080         70.00	     9.165
  13.100         84.17	    10.050
  13.120         82.50	     9.950
  13.140         92.50	    10.536
  13.160         90.83	    10.440
  13.180         77.50	     9.644
  13.200         91.67	    10.488
  13.220         71.67	     9.274
  13.240         92.50	    10.536
  13.260         91.67	    10.488
  13.280         90.00	    10.392
  13.300         79.17	     9.747
  13.320         65.00	     8.832
  13.340         76.67	     9.592
  13.360         75.83	     9.539
  13.380         90.83	    10.440
  13.400         94.17	    10.630
  13.420         87.50	    10.247
  13.440         90.83	    10.440
  13.460         80.83	     9.849
  13.480         80.00	     9.798
  13.500         91.67	    10.488
  13.520         85.83	    10.149
  13.540         84.17	    10.050
  13.560         80.00	     9.798
  13.580         85.83	    10.149
  13.600         57.50	     8.307
  13.620         81.67	     9.899
  13.640         91.67	    10.488
  13.660         84.17	    10.050
  13.680         76.67	     9.592
  13.700         89.17	    10.344
  13.720        100.00	    10.954
  13.740        100.83	    11.000
  13.760        126.67	    12.329
  13.780         92.50	    10.536
  13.800        104.17	    11.180
  13.820        105.00	    11.225
  13.840         96.67	    10.770
  13.860         95.00	    10.677
  13.880         78.33	     9.695
  13.900         83.33	    10.000
  13.920         77.50	     9.644
  13.940         91.67	    10.488
  13.960         92.50	    10.536
  13.980         77.50	     9.644
  14.000         79.17	     9.747
  14.020         78.33	     9.695
  14.040         75.83	     9.539
  14.060         72.50	     9.327
  14.080         80.00	     9.798
  14.100         95.00	    10.677
  14.120         68.33	     9.055
  14.140         70.83	     9.220
  14.160         76.67	     9.592
  14.180         60.00	     8.485
  14.200         70.00	     9.165
  14.220         76.67	     9.592
  14.240         73.33	     9.381
  14.260         63.33	     8.718
  14.280         67.50	     9.000
  14.300         63.33	     8.718
  14.320         80.00	     9.798
  14.340         67.50	     9.000
  14.360         72.50	     9.327
  14.380         83.33	    10.000
  14.400         69.17	     9.110
  14.420         82.50	     9.950
  14.440         69.17	     9.110
  14.460         80.83	     9.849
  14.480         94.17	    10.630
  14.500         91.67	    10.488
  14.520         67.50	     9.000
  14.540         49.17	     7.681
  14.560         81.67	     9.899
  14.580         57.50	     8.307
  14.600         53.33	     8.000
  14.620         69.17	     9.110
  14.640         77.50	     9.644
  14.660         75.00	     9.487
  14.680         80.83	     9.849
  14.700         75.83	     9.539
  14.720         81.67	     9.899
  14.740         69.17	     9.110
  14.760         70.83	     9.220
  14.780         79.17	     9.747
  14.800         65.00	     8.832
  14.820         87.50	    10.247
  14.840         82.50	     9.950
  14.860         83.33	    10.000
  14.880         75.83	     9.539
  14.900         85.83	    10.149
  14.920         93.33	    10.583
  14.940         66.67	     8.944
  14.960         78.33	     9.695
  14.980         88.33	    10.296
  15.000         80.00	     9.798
  15.020         70.00	     9.165
  15.040         70.00	     9.165
  15.060         62.50	     8.660
  15.080         59.17	     8.426
  15.100         70.00	     9.165
  15.120         65.83	     8.888
  15.140         80.83	     9.849
  15.160         76.67	     9.592
  15.180         50.00	     7.746
  15.200         72.50	     9.327
  15.220         69.17	     9.110
  15.240         71.67	     9.274
  15.260         68.33	     9.055
  15.280         71.67	     9.274
  15.300         64.17	     8.775
  15.320         78.33	     9.695
  15.340         69.17	     9.110
  15.360         65.83	     8.888
  15.380         59.17	     8.426
  15.400         60.00	     8.485
  15.420         82.50	     9.950
  15.440         69.17	     9.110
  15.460         75.00	     9.487
  15.480         60.83	     8.544
  15.500         80.83	     9.849
  15.520         69.17	     9.110
  15.540         86.67	    10.198
  15.560         71.67	     9.274
  15.580         70.83	     9.220
  15.600         70.83	     9.220
  15.620         72.50	     9.327
  15.640         63.33	     8.718
  15.660         73.33	     9.381
  15.680         58.33	     8.367
  15.700         70.00	     9.165
  15.720         61.67	     8.602
  15.740         82.50	     9.950
  15.760         65.83	     8.888
  15.780         63.33	     8.718
  15.800         68.33	     9.055
  15.820         71.67	     9.274
  15.840         75.83	     9.539
  15.860         65.00	     8.832
  15.880         77.50	     9.644
  15.900         60.00	     8.485
  15.920         60.00	     8.485
  15.940         54.17	     8.062
  15.960         69.17	     9.110
  15.980         58.33	     8.367
  16.000         69.17	     9.110
  16.020         75.00	     9.487
  16.040         62.50	     8.660
  16.060         70.83	     9.220
  16.080         60.00	     8.485
  16.100         54.17	     8.062
  16.120         60.83	     8.544
  16.140         59.17	     8.426
  16.160         57.50	     8.307
  16.180         66.67	     8.944
  16.200         64.17	     8.775
  16.220         70.83	     9.220
  16.240         66.67	     8.944
  16.260         61.67	     8.602
  16.280         68.33	     9.055
  16.300         66.67	     8.944
  16.320         77.50	     9.644
  16.340         64.17	     8.775
  16.360         64.17	     8.775
  16.380         62.50	     8.660
  16.400         72.50	     9.327
  16.420         55.83	     8.185
  16.440         62.50	     8.660
  16.460         59.17	     8.426
  16.480         68.33	     9.055
  16.500         61.67	     8.602
  16.520         60.00	     8.485
  16.540         55.83	     8.185
  16.560         65.83	     8.888
  16.580         55.83	     8.185
  16.600         61.67	     8.602
  16.620         62.50	     8.660
  16.640         65.00	     8.832
  16.660         52.50	     7.937
  16.680         58.33	     8.367
  16.700         61.67	     8.602
  16.720         80.83	     9.849
  16.740         60.83	     8.544
  16.760         68.33	     9.055
  16.780         72.50	     9.327
  16.800         68.33	     9.055
  16.820         63.33	     8.718
  16.840         54.17	     8.062
  16.860         66.67	     8.944
  16.880         65.00	     8.832
  16.900         52.50	     7.937
  16.920         70.00	     9.165
  16.940         59.17	     8.426
  16.960         66.67	     8.944
  16.980         52.50	     7.937
  17.000         64.17	     8.775
  17.020         57.50	     8.307
  17.040         74.17	     9.434
  17.060         51.67	     7.874
  17.080         61.67	     8.602
  17.100         69.17	     9.110
  17.120         55.00	     8.124
  17.140         53.33	     8.000
  17.160         65.00	     8.832
  17.180         61.67	     8.602
  17.200         67.50	     9.000
  17.220         66.67	     8.944
  17.240         73.33	     9.381
  17.260         65.00	     8.832
  17.280         78.33	     9.695
  17.300         71.67	     9.274
  17.320         73.33	     9.381
  17.340         75.00	     9.487
  17.360         73.33	     9.381
  17.380         63.33	     8.718
  17.400         70.00	     9.165
  17.420         61.67	     8.602
  17.440         66.67	     8.944
  17.460         70.83	     9.220
  17.480         69.17	     9.110
  17.500         67.50	     9.000
  17.520         88.33	    10.296
  17.540         88.33	    10.296
  17.560         80.00	     9.798
  17.580        107.50	    11.358
  17.600         89.17	    10.344
  17.620        100.00	    10.954
  17.640         93.33	    10.583
  17.660        130.83	    12.530
  17.680        168.33	    14.213
  17.700        205.00	    15.684
  17.720        270.83	    18.028
  17.740        296.67	    18.868
  17.760        303.33	    19.079
  17.780        240.00	    16.971
  17.800        165.83	    14.107
  17.820        120.00	    12.000
  17.840         83.33	    10.000
  17.860         95.83	    10.724
  17.880         81.67	     9.899
  17.900         79.17	     9.747
  17.920         82.50	     9.950
  17.940         75.83	     9.539
  17.960         71.67	     9.274
  17.980         75.00	     9.487
  18.000         73.33	     9.381
  18.020         69.17	     9.110
  18.040         75.83	     9.539
  18.060         83.33	    10.000
  18.080         53.33	     8.000
  18.100         62.50	     8.660
  18.120         70.83	     9.220
  18.140         72.50	     9.327
  18.160         57.50	     8.307
  18.180         64.17	     8.775
  18.200         64.17	     8.775
  18.220         62.50	     8.660
  18.240         65.00	     8.832
  18.260         67.50	     9.000
  18.280         90.83	    10.440
  18.300         65.83	     8.888
  18.320         85.00	    10.100
  18.340         75.83	     9.539
  18.360         78.33	     9.695
  18.380         88.33	    10.296
  18.400         82.50	     9.950
  18.420         75.83	     9.539
  18.440         81.67	     9.899
  18.460         89.17	    10.344
  18.480         97.50	    10.817
  18.500        100.83	    11.000
  18.520         85.83	    10.149
  18.540         77.50	     9.644
  18.560         78.33	     9.695
  18.580         81.67	     9.899
  18.600         91.67	    10.488
  18.620         84.17	    10.050
  18.640         90.00	    10.392
  18.660        111.67	    11.576
  18.680        120.83	    12.042
  18.700        135.83	    12.767
  18.720        147.50	    13.304
  18.740        143.33	    13.115
  18.760        129.17	    12.450
  18.780         96.67	    10.770
  18.800         85.83	    10.149
  18.820         73.33	     9.381
  18.840         60.83	     8.544
  18.860         72.50	     9.327
  18.880         64.17	     8.775
  18.900         61.67	     8.602
  18.920         72.50	     9.327
  18.940         59.17	     8.426
  18.960         70.83	     9.220
  18.980         55.83	     8.185
  19.000         69.17	     9.110
  19.020         55.00	     8.124
  19.040         90.00	    10.392
  19.060         69.17	     9.110
  19.080         60.83	     8.544
  19.100         58.33	     8.367
  19.120         55.83	     8.185
  19.140         88.33	    10.296
  19.160         87.50	    10.247
  19.180         72.50	     9.327
  19.200         63.33	     8.718
  19.220         60.00	     8.485
  19.240         71.67	     9.274
  19.260         68.33	     9.055
  19.280         58.33	     8.367
  19.300         65.00	     8.832
  19.320         65.83	     8.888
  19.340         61.67	     8.602
  19.360         65.83	     8.888
  19.380         65.00	     8.832
  19.400         75.00	     9.487
  19.420         66.67	     8.944
  19.440         55.83	     8.185
  19.460         69.17	     9.110
  19.480         76.67	     9.592
  19.500         69.17	     9.110
  19.520         60.00	     8.485
  19.540         60.00	     8.485
  19.560         64.17	     8.775
  19.580         83.33	    10.000
  19.600         79.17	     9.747
  19.620         81.67	     9.899
  19.640         85.83	    10.149
  19.660         85.83	    10.149
  19.680         95.00	    10.677
  19.700        102.50	    11.091
  19.720        106.67	    11.314
  19.740        118.33	    11.916
  19.760        108.33	    11.402
  19.780        118.33	    11.916
  19.800         94.17	    10.630
  19.820         91.67	    10.488
  19.840         98.33	    10.863
  19.860         87.50	    10.247
  19.880         83.33	    10.000
  19.900         77.50	     9.644
  19.920         85.00	    10.100
  19.940         76.67	     9.592
  19.960         65.83	     8.888
  19.980         79.17	     9.747
  20.000         71.67	     9.274
  20.020         63.33	     8.718
  20.040         63.33	     8.718
  20.060         75.00	     9.487
  20.080         73.33	     9.381
  20.100         65.83	     8.888
  20.120         68.33	     9.055
  20.140         64.17	     8.775
  20.160         73.33	     9.381
  20.180         59.17	     8.426
  20.200         65.00	     8.832
  20.220         65.83	     8.888
  20.240         46.67	     7.483
  20.260         59.17	     8.426
  20.280         58.33	     8.367
  20.300         71.67	     9.274
  20.320         62.50	     8.660
  20.340         65.83	     8.888
  20.360         52.50	     7.937
  20.380         70.83	     9.220
  20.400         54.17	     8.062
  20.420         55.00	     8.124
  20.440         63.33	     8.718
  20.460         70.00	     9.165
  20.480         60.83	     8.544
  20.500         68.33	     9.055
  20.520         83.33	    10.000
  20.540         78.33	     9.695
  20.560         80.83	     9.849
  20.580         68.33	     9.055
  20.600         84.17	    10.050
  20.620         63.33	     8.718
  20.640         92.50	    10.536
  20.660         80.83	     9.849
  20.680        132.50	    12.610
  20.700        143.33	    13.115
  20.720        200.83	    15.524
  20.740        374.17	    21.190
  20.760        492.50	    24.310
  20.780        442.50	    23.043
  20.800        431.67	    22.760
  20.820        297.50	    18.894
  20.840        234.17	    16.763
  20.860        157.50	    13.748
  20.880        120.00	    12.000
  20.900        115.00	    11.747
  20.920        110.83	    11.533
  20.940        102.50	    11.091
  20.960         89.17	    10.344
  20.980         94.17	    10.630
  21.000         78.33	     9.695
  21.020         61.67	     8.602
  21.040         68.33	     9.055
  21.060         60.83	     8.544
  21.080         69.17	     9.110
  21.100         50.00	     7.746
  21.120         66.67	     8.944
  21.140         60.83	     8.544
  21.160         65.00	     8.832
  21.180         62.50	     8.660
  21.200         64.17	     8.775
  21.220         76.67	     9.592
  21.240         43.33	     7.211
  21.260         49.17	     7.681
  21.280         49.17	     7.681
  21.300         58.33	     8.367
  21.320         50.00	     7.746
  21.340         60.83	     8.544
  21.360         55.00	     8.124
  21.380         69.17	     9.110
  21.400         59.17	     8.426
  21.420         61.67	     8.602
  21.440         65.83	     8.888
  21.460         65.83	     8.888
  21.480         55.83	     8.185
  21.500         54.17	     8.062
  21.520         70.83	     9.220
  21.540         65.83	     8.888
  21.560         54.17	     8.062
  21.580         70.83	     9.220
  21.600         62.50	     8.660
  21.620         66.67	     8.944
  21.640         75.00	     9.487
  21.660         57.50	     8.307
  21.680         56.67	     8.246
  21.700         52.50	     7.937
  21.720         60.83	     8.544
  21.740         60.00	     8.485
  21.760         58.33	     8.367
  21.780         76.67	     9.592
  21.800         60.00	     8.485
  21.820         55.83	     8.185
  21.840         72.50	     9.327
  21.860         93.33	    10.583
  21.880        110.00	    11.489
  21.900        133.33	    12.649
  21.920        258.33	    17.607
  21.940        320.83	    19.621
  21.960        296.67	    18.868
  21.980        254.17	    17.464
  22.000        199.17	    15.460
  22.020        156.67	    13.711
  22.040        129.17	    12.450
  22.060         75.83	     9.539
  22.080         65.83	     8.888
  22.100         70.83	     9.220
  22.120         56.67	     8.246
  22.140         71.67	     9.274
  22.160         67.50	     9.000
  22.180         65.83	     8.888
  22.200         65.00	     8.832
  22.220         71.67	     9.274
  22.240         60.00	     8.485
  22.260         53.33	     8.000
  22.280         56.67	     8.246
  22.300         55.83	     8.185
  22.320         59.17	     8.426
  22.340         71.67	     9.274
  22.360         48.33	     7.616
  22.380         70.83	     9.220
  22.400         64.17	     8.775
  22.420         71.67	     9.274
  22.440         85.00	    10.100
  22.460         61.67	     8.602
  22.480         65.83	     8.888
  22.500         61.67	     8.602
  22.520         66.67	     8.944
  22.540         54.17	     8.062
  22.560         60.83	     8.544
  22.580         66.67	     8.944
  22.600         57.50	     8.307
  22.620         60.83	     8.544
  22.640         77.50	     9.644
  22.660         66.67	     8.944
  22.680         68.33	     9.055
  22.700         64.17	     8.775
  22.720         70.00	     9.165
  22.740         90.83	    10.440
  22.760        100.83	    11.000
  22.780         97.50	    10.817
  22.800         82.50	     9.950
  22.820         96.67	    10.770
  22.840        103.33	    11.136
  22.860         94.17	    10.630
  22.880         78.33	     9.695
  22.900         85.00	    10.100
  22.920         88.33	    10.296
  22.940        114.17	    11.705
  22.960        110.83	    11.533
  22.980        115.83	    11.790
  23.000         97.50	    10.817
  23.020         79.17	     9.747
  23.040         71.67	     9.274
  23.060         77.50	     9.644
  23.080         81.67	     9.899
  23.100         90.83	    10.440
  23.120         77.50	     9.644
  23.140         71.67	     9.274
  23.160         77.50	     9.644
  23.180         69.17	     9.110
  23.200         56.67	     8.246
  23.220         57.50	     8.307
  23.240         67.50	     9.000
  23.260         70.00	     9.165
  23.280         69.17	     9.110
  23.300         69.17	     9.110
  23.320         61.67	     8.602
  23.340         63.33	     8.718
  23.360         67.50	     9.000
  23.380         95.00	    10.677
  23.400         94.17	    10.630
  23.420        110.00	    11.489
  23.440        140.00	    12.961
  23.460        125.83	    12.288
  23.480        139.17	    12.923
  23.500        118.33	    11.916
  23.520         96.67	    10.770
  23.540         85.00	    10.100
  23.560         89.17	    10.344
  23.580         71.67	     9.274
  23.600         71.67	     9.274
  23.620         85.00	    10.100
  23.640         80.83	     9.849
  23.660         86.67	    10.198
  23.680         90.00	    10.392
  23.700         89.17	    10.344
  23.720         96.67	    10.770
  23.740         85.83	    10.149
  23.760         76.67	     9.592
  23.780         86.67	    10.198
  23.800         75.00	     9.487
  23.820         76.67	     9.592
  23.840         68.33	     9.055
  23.860         87.50	    10.247
  23.880         85.83	    10.149
  23.900         98.33	    10.863
  23.920        111.67	    11.576
  23.940         90.00	    10.392
  23.960         86.67	    10.198
  23.980         99.17	    10.909
  24.000         86.67	    10.198
  24.020        105.83	    11.269
  24.040        134.17	    12.689
  24.060        125.00	    12.247
  24.080        134.17	    12.689
  24.100        127.50	    12.369
  24.120        115.00	    11.747
  24.140        140.83	    13.000
  24.160        155.83	    13.675
  24.180        157.50	    13.748
  24.200        185.00	    14.900
  24.220        203.33	    15.620
  24.240        155.83	    13.675
  24.260        132.50	    12.610
  24.280        125.00	    12.247
  24.300        105.83	    11.269
  24.320        100.00	    10.954
  24.340         96.67	    10.770
  24.360         76.67	     9.592
  24.380         84.17	    10.050
  24.400        105.00	    11.225
  24.420        101.67	    11.045
  24.440        128.33	    12.410
  24.460        123.33	    12.166
  24.480        153.33	    13.565
  24.500        145.00	    13.191
  24.520        159.17	    13.820
  24.540        174.17	    14.457
  24.560        176.67	    14.560
  24.580        166.67	    14.142
  24.600        147.50	    13.304
  24.620        125.00	    12.247
  24.640        124.17	    12.207
  24.660        125.83	    12.288
  24.680         96.67	    10.770
  24.700        110.83	    11.533
  24.720        108.33	    11.402
  24.740        106.67	    11.314
  24.760        100.83	    11.000
  24.780        107.50	    11.358
  24.800        110.00	    11.489
  24.820        102.50	    11.091
  24.840        102.50	    11.091
  24.860        110.83	    11.533
  24.880         95.83	    10.724
  24.900        101.67	    11.045
  24.920        100.83	    11.000
  24.940         94.17	    10.630
  24.960        136.67	    12.806
  24.980        130.83	    12.530
  25.000        147.50	    13.304
  25.020        175.83	    14.526
  25.040        215.00	    16.062
  25.060        240.00	    16.971
  25.080        267.50	    17.916
  25.100        202.50	    15.588
  25.120        195.00	    15.297
  25.140        171.67	    14.353
  25.160        150.00	    13.416
  25.180        110.83	    11.533
  25.200        106.67	    11.314
  25.220         90.83	    10.440
  25.240         92.50	    10.536
  25.260         91.67	    10.488
  25.280        114.17	    11.705
  25.300        158.33	    13.784
  25.320        150.00	    13.416
  25.340        147.50	    13.304
  25.360        162.50	    13.964
  25.380        159.17	    13.820
  25.400        177.50	    14.595
  25.420        149.17	    13.379
  25.440        127.50	    12.369
  25.460        155.00	    13.638
  25.480        144.17	    13.153
  25.500        134.17	    12.689
  25.520        127.50	    12.369
  25.540        121.67	    12.083
  25.560        100.00	    10.954
  25.580         90.00	    10.392
  25.600        102.50	    11.091
  25.620         87.50	    10.247
  25.640         94.17	    10.630
  25.660         90.00	    10.392
  25.680         75.83	     9.539
  25.700         71.67	     9.274
  25.720         68.33	     9.055
  25.740         55.00	     8.124
  25.760         55.00	     8.124
  25.780         63.33	     8.718
  25.800         70.83	     9.220
  25.820         66.67	     8.944
  25.840         81.67	     9.899
  25.860         68.33	     9.055
  25.880         77.50	     9.644
  25.900         60.83	     8.544
  25.920         65.83	     8.888
  25.940         74.17	     9.434
  25.960         65.83	     8.888
  25.980         75.00	     9.487
  26.000         64.17	     8.775
  26.020         80.00	     9.798
  26.040         81.67	     9.899
  26.060         97.50	    10.817
  26.080         85.00	    10.100
  26.100         65.83	     8.888
  26.120         79.17	     9.747
  26.140         95.83	    10.724
  26.160         88.33	    10.296
  26.180        101.67	    11.045
  26.200         92.50	    10.536
  26.220        100.00	    10.954
  26.240        115.00	    11.747
  26.260        111.67	    11.576
  26.280        150.83	    13.454
  26.300        198.33	    15.427
  26.320        192.50	    15.199
  26.340        167.50	    14.177
  26.360        191.67	    15.166
  26.380        203.33	    15.620
  26.400        230.83	    16.643
  26.420        229.17	    16.583
  26.440        280.83	    18.358
  26.460        306.67	    19.183
  26.480        510.00	    24.739
  26.500        932.50	    33.451
  26.520       1787.50	    46.314
  26.540       2612.50	    55.991
  26.560       2592.50	    55.776
  26.580       1894.17	    47.676
  26.600       1690.00	    45.033
  26.620       1505.83	    42.509
  26.640       1088.33	    36.139
  26.660        619.17	    27.258
  26.680        450.83	    23.259
  26.700        424.17	    22.561
  26.720        408.33	    22.136
  26.740        522.50	    25.040
  26.760        624.17	    27.368
  26.780        736.67	    29.732
  26.800        805.00	    31.081
  26.820        719.17	    29.377
  26.840        554.17	    25.788
  26.860        481.67	    24.042
  26.880        391.67	    21.679
  26.900        260.00	    17.664
  26.920        175.00	    14.491
  26.940        140.00	    12.961
  26.960        135.00	    12.728
  26.980        120.83	    12.042
  27.000        113.33	    11.662
  27.020        102.50	    11.091
  27.040        106.67	    11.314
  27.060         98.33	    10.863
  27.080         93.33	    10.583
  27.100         86.67	    10.198
  27.120         87.50	    10.247
  27.140        105.83	    11.269
  27.160        110.00	    11.489
  27.180         91.67	    10.488
  27.200         92.50	    10.536
  27.220         97.50	    10.817
  27.240        102.50	    11.091
  27.260        115.00	    11.747
  27.280        132.50	    12.610
  27.300        110.83	    11.533
  27.320        186.67	    14.967
  27.340        193.33	    15.232
  27.360        171.67	    14.353
  27.380        199.17	    15.460
  27.400        215.00	    16.062
  27.420        193.33	    15.232
  27.440        154.17	    13.601
  27.460        123.33	    12.166
  27.480        130.83	    12.530
  27.500        140.00	    12.961
  27.520        113.33	    11.662
  27.540        100.00	    10.954
  27.560        103.33	    11.136
  27.580        119.17	    11.958
  27.600        193.33	    15.232
  27.620        208.33	    15.811
  27.640        225.83	    16.462
  27.660        268.33	    17.944
  27.680        245.00	    17.146
  27.700        254.17	    17.464
  27.720        268.33	    17.944
  27.740        249.17	    17.292
  27.760        283.33	    18.439
  27.780        281.67	    18.385
  27.800        378.33	    21.307
  27.820        445.00	    23.108
  27.840        402.50	    21.977
  27.860        413.33	    22.271
  27.880        416.67	    22.361
  27.900        321.67	    19.647
  27.920        266.67	    17.889
  27.940        204.17	    15.652
  27.960        185.00	    14.900
  27.980        170.00	    14.283
  28.000        154.17	    13.601
  28.020        169.17	    14.248
  28.040        171.67	    14.353
  28.060        160.00	    13.856
  28.080        166.67	    14.142
  28.100        143.33	    13.115
  28.120        144.17	    13.153
  28.140        132.50	    12.610
  28.160        126.67	    12.329
  28.180        147.50	    13.304
  28.200        148.33	    13.342
  28.220        142.50	    13.077
  28.240        129.17	    12.450
  28.260        128.33	    12.410
  28.280        105.83	    11.269
  28.300        103.33	    11.136
  28.320         88.33	    10.296
  28.340         75.00	     9.487
  28.360         66.67	     8.944
  28.380         55.83	     8.185
  28.400         71.67	     9.274
  28.420         71.67	     9.274
  28.440         71.67	     9.274
  28.460         87.50	    10.247
  28.480         95.00	    10.677
  28.500         75.83	     9.539
  28.520         95.83	    10.724
  28.540         85.00	    10.100
  28.560        109.17	    11.446
  28.580         85.00	    10.100
  28.600         88.33	    10.296
  28.620         83.33	    10.000
  28.640         75.83	     9.539
  28.660         71.67	     9.274
  28.680         80.00	     9.798
  28.700         68.33	     9.055
  28.720         71.67	     9.274
  28.740         56.67	     8.246
  28.760         59.17	     8.426
  28.780         52.50	     7.937
  28.800         59.17	     8.426
  28.820         55.83	     8.185
  28.840         48.33	     7.616
  28.860         62.50	     8.660
  28.880         31.67	     6.164
  28.900         52.50	     7.937
  28.920         49.17	     7.681
  28.940         63.33	     8.718
  28.960         55.83	     8.185
  28.980         67.50	     9.000
  29.000         59.17	     8.426
  29.020         57.50	     8.307
  29.040         60.00	     8.485
  29.060         58.33	     8.367
  29.080         60.83	     8.544
  29.100         59.17	     8.426
  29.120         59.17	     8.426
  29.140         58.33	     8.367
  29.160         50.83	     7.810
  29.180         49.17	     7.681
  29.200         55.83	     8.185
  29.220         59.17	     8.426
  29.240         43.33	     7.211
  29.260         42.50	     7.141
  29.280         45.00	     7.348
  29.300         50.00	     7.746
  29.320         64.17	     8.775
  29.340         58.33	     8.367
  29.360         48.33	     7.616
  29.380         56.67	     8.246
  29.400         52.50	     7.937
  29.420         54.17	     8.062
  29.440         67.50	     9.000
  29.460         45.83	     7.416
  29.480         58.33	     8.367
  29.500         81.67	     9.899
  29.520         80.83	     9.849
  29.540         78.33	     9.695
  29.560         79.17	     9.747
  29.580         80.00	     9.798
  29.600         88.33	    10.296
  29.620         85.00	    10.100
  29.640         75.00	     9.487
  29.660         80.00	     9.798
  29.680         75.83	     9.539
  29.700         84.17	    10.050
  29.720        114.17	    11.705
  29.740        123.33	    12.166
  29.760        125.00	    12.247
  29.780        145.00	    13.191
  29.800        158.33	    13.784
  29.820        115.00	    11.747
  29.840         94.17	    10.630
  29.860        133.33	    12.649
  29.880        101.67	    11.045
  29.900         75.00	     9.487
  29.920         75.00	     9.487
  29.940         98.33	    10.863
  29.960        100.83	    11.000
  29.980         89.17	    10.344
  30.000         95.00	    10.677
  30.020         96.67	    10.770
  30.040        102.50	    11.091
  30.060         95.83	    10.724
  30.080         80.00	     9.798
  30.100         94.17	    10.630
  30.120         91.67	    10.488
  30.140         89.17	    10.344
  30.160         99.17	    10.909
  30.180        100.83	    11.000
  30.200         94.17	    10.630
  30.220         93.33	    10.583
  30.240        102.50	    11.091
  30.260         85.00	    10.100
  30.280         84.17	    10.050
  30.300         84.17	    10.050
  30.320         99.17	    10.909
  30.340        110.00	    11.489
  30.360        100.00	    10.954
  30.380        108.33	    11.402
  30.400        199.17	    15.460
  30.420        210.00	    15.875
  30.440        180.83	    14.731
  30.460        134.17	    12.689
  30.480        112.50	    11.619
  30.500        150.83	    13.454
  30.520        114.17	    11.705
  30.540         80.00	     9.798
  30.560         64.17	     8.775
  30.580         62.50	     8.660
  30.600         63.33	     8.718
  30.620         66.67	     8.944
  30.640         73.33	     9.381
  30.660         85.83	    10.149
  30.680         72.50	     9.327
  30.700         86.67	    10.198
  30.720         77.50	     9.644
  30.740         89.17	    10.344
  30.760         84.17	    10.050
  30.780         83.33	    10.000
  30.800         88.33	    10.296
  30.820         72.50	     9.327
  30.840         53.33	     8.000
  30.860         75.83	     9.539
  30.880         64.17	     8.775
  30.900         77.50	     9.644
  30.920         65.00	     8.832
  30.940         54.17	     8.062
  30.960         73.33	     9.381
  30.980         70.00	     9.165
  31.000         85.00	    10.100
  31.020         95.00	    10.677
  31.040         85.00	    10.100
  31.060         86.67	    10.198
  31.080         90.00	    10.392
  31.100        108.33	    11.402
  31.120        120.00	    12.000
  31.140        121.67	    12.083
  31.160        129.17	    12.450
  31.180        115.00	    11.747
  31.200        107.50	    11.358
  31.220        115.83	    11.790
  31.240         99.17	    10.909
  31.260         95.83	    10.724
  31.280         83.33	    10.000
  31.300         95.83	    10.724
  31.320         76.67	     9.592
  31.340         66.67	     8.944
  31.360         78.33	     9.695
  31.380         71.67	     9.274
  31.400         62.50	     8.660
  31.420         61.67	     8.602
  31.440         71.67	     9.274
  31.460         80.83	     9.849
  31.480         71.67	     9.274
  31.500         84.17	    10.050
  31.520         85.00	    10.100
  31.540         81.67	     9.899
  31.560         83.33	    10.000
  31.580         65.00	     8.832
  31.600         59.17	     8.426
  31.620         51.67	     7.874
  31.640         54.17	     8.062
  31.660         45.00	     7.348
  31.680         57.50	     8.307
  31.700         40.83	     7.000
  31.720         40.83	     7.000
  31.740         57.50	     8.307
  31.760         57.50	     8.307
  31.780         44.17	     7.280
  31.800         50.00	     7.746
  31.820         55.83	     8.185
  31.840         55.00	     8.124
  31.860         58.33	     8.367
  31.880         67.50	     9.000
  31.900         63.33	     8.718
  31.920         71.67	     9.274
  31.940         60.83	     8.544
  31.960         79.17	     9.747
  31.980         75.00	     9.487
  32.000         86.67	    10.198
  32.020         90.00	    10.392
  32.040         80.83	     9.849
  32.060         89.17	    10.344
  32.080         76.67	     9.592
  32.100         68.33	     9.055
  32.120         75.00	     9.487
  32.140        130.00	    12.490
  32.160        257.50	    17.578
  32.180        320.83	    19.621
  32.200        237.50	    16.882
  32.220        123.33	    12.166
  32.240        158.33	    13.784
  32.260        192.50	    15.199
  32.280        130.00	    12.490
  32.300         84.17	    10.050
  32.320         60.83	     8.544
  32.340         64.17	     8.775
  32.360         50.00	     7.746
  32.380         53.33	     8.000
  32.400         56.67	     8.246
  32.420         71.67	     9.274
  32.440         55.00	     8.124
  32.460         48.33	     7.616
  32.480         40.83	     7.000
  32.500         45.83	     7.416
  32.520         55.83	     8.185
  32.540         50.00	     7.746
  32.560         40.83	     7.000
  32.580         41.67	     7.071
  32.600         41.67	     7.071
  32.620         45.83	     7.416
  32.640         35.83	     6.557
  32.660         37.50	     6.708
  32.680         50.83	     7.810
  32.700         50.83	     7.810
  32.720         53.33	     8.000
  32.740         30.00	     6.000
  32.760         46.67	     7.483
  32.780         47.50	     7.550
  32.800         43.33	     7.211
  32.820         44.17	     7.280
  32.840         49.17	     7.681
  32.860         55.83	     8.185
  32.880         55.83	     8.185
  32.900         51.67	     7.874
  32.920         42.50	     7.141
  32.940         55.83	     8.185
  32.960         70.83	     9.220
  32.980         78.33	     9.695
  33.000         72.50	     9.327
  33.020         76.67	     9.592
  33.040         59.17	     8.426
  33.060         50.00	     7.746
  33.080         51.67	     7.874
  33.100         47.50	     7.550
  33.120         42.50	     7.141
  33.140         40.00	     6.928
  33.160         48.33	     7.616
  33.180         48.33	     7.616
  33.200         45.83	     7.416
  33.220         49.17	     7.681
  33.240         48.33	     7.616
  33.260         51.67	     7.874
  33.280         42.50	     7.141
  33.300         64.17	     8.775
  33.320         68.33	     9.055
  33.340         36.67	     6.633
  33.360         47.50	     7.550
  33.380         45.83	     7.416
  33.400         46.67	     7.483
  33.420         47.50	     7.550
  33.440         55.83	     8.185
  33.460         49.17	     7.681
  33.480         55.83	     8.185
  33.500         44.17	     7.280
  33.520         55.83	     8.185
  33.540         34.17	     6.403
  33.560         48.33	     7.616
  33.580         40.83	     7.000
  33.600         54.17	     8.062
  33.620         43.33	     7.211
  33.640         56.67	     8.246
  33.660         45.00	     7.348
  33.680         52.50	     7.937
  33.700         31.67	     6.164
  33.720         45.83	     7.416
  33.740         55.00	     8.124
  33.760         45.83	     7.416
  33.780         62.50	     8.660
  33.800         68.33	     9.055
  33.820         57.50	     8.307
  33.840         70.00	     9.165
  33.860         65.83	     8.888
  33.880         65.00	     8.832
  33.900         65.00	     8.832
  33.920         74.17	     9.434
  33.940         66.67	     8.944
  33.960         65.00	     8.832
  33.980         61.67	     8.602
  34.000         70.83	     9.220
  34.020         89.17	    10.344
  34.040         73.33	     9.381
  34.060         54.17	     8.062
  34.080         51.67	     7.874
  34.100         60.83	     8.544
  34.120         60.83	     8.544
  34.140         45.00	     7.348
  34.160         36.67	     6.633
  34.180         53.33	     8.000
  34.200         60.83	     8.544
  34.220         55.00	     8.124
  34.240         63.33	     8.718
  34.260         68.33	     9.055
  34.280         77.50	     9.644
  34.300         83.33	    10.000
  34.320         74.17	     9.434
  34.340         68.33	     9.055
  34.360         88.33	    10.296
  34.380        126.67	    12.329
  34.400        140.00	    12.961
  34.420        115.83	    11.790
  34.440        141.67	    13.038
  34.460        172.50	    14.387
  34.480        173.33	    14.422
  34.500        153.33	    13.565
  34.520        142.50	    13.077
  34.540        140.00	    12.961
  34.560        133.33	    12.649
  34.580        133.33	    12.649
  34.600        123.33	    12.166
  34.620        105.83	    11.269
  34.640         98.33	    10.863
  34.660        139.17	    12.923
  34.680        125.83	    12.288
  34.700        148.33	    13.342
  34.720        186.67	    14.967
  34.740        169.17	    14.248
  34.760        192.50	    15.199
  34.780        167.50	    14.177
  34.800        166.67	    14.142
  34.820        182.50	    14.799
  34.840        185.83	    14.933
  34.860        163.33	    14.000
  34.880        155.00	    13.638
  34.900        150.00	    13.416
  34.920        145.00	    13.191
  34.940        157.50	    13.748
  34.960        138.33	    12.884
  34.980        115.00	    11.747
  35.000        107.50	    11.358
  35.020        105.00	    11.225
  35.040         90.83	    10.440
  35.060         95.00	    10.677
  35.080         80.83	     9.849
  35.100         81.67	     9.899
  35.120         80.00	     9.798
  35.140         88.33	    10.296
  35.160         75.83	     9.539
  35.180         78.33	     9.695
  35.200         90.00	    10.392
  35.220        110.00	    11.489
  35.240        124.17	    12.207
  35.260        122.50	    12.124
  35.280         90.00	    10.392
  35.300        123.33	    12.166
  35.320        135.00	    12.728
  35.340        139.17	    12.923
  35.360        150.00	    13.416
  35.380        132.50	    12.610
  35.400        116.67	    11.832
  35.420        140.83	    13.000
  35.440        154.17	    13.601
  35.460        173.33	    14.422
  35.480        171.67	    14.353
  35.500        140.00	    12.961
  35.520        128.33	    12.410
  35.540        120.00	    12.000
  35.560        120.00	    12.000
  35.580        106.67	    11.314
  35.600         83.33	    10.000
  35.620         79.17	     9.747
  35.640         61.67	     8.602
  35.660         61.67	     8.602
  35.680         75.00	     9.487
  35.700         62.50	     8.660
  35.720         70.83	     9.220
  35.740         64.17	     8.775
  35.760         62.50	     8.660
  35.780         58.33	     8.367
  35.800         46.67	     7.483
  35.820         53.33	     8.000
  35.840         62.50	     8.660
  35.860         61.67	     8.602
  35.880         63.33	     8.718
  35.900         65.83	     8.888
  35.920         65.83	     8.888
  35.940         70.00	     9.165
  35.960         77.50	     9.644
  35.980         90.83	    10.440
  36.000         72.50	     9.327
  36.020         98.33	    10.863
  36.040         98.33	    10.863
  36.060         91.67	    10.488
  36.080         72.50	     9.327
  36.100         74.17	     9.434
  36.120         64.17	     8.775
  36.140         65.83	     8.888
  36.160         55.00	     8.124
  36.180         53.33	     8.000
  36.200         48.33	     7.616
  36.220         59.17	     8.426
  36.240         65.00	     8.832
  36.260         58.33	     8.367
  36.280         63.33	     8.718
  36.300         58.33	     8.367
  36.320         63.33	     8.718
  36.340         76.67	     9.592
  36.360         84.17	    10.050
  36.380         96.67	    10.770
  36.400        120.83	    12.042
  36.420        126.67	    12.329
  36.440        172.50	    14.387
  36.460        173.33	    14.422
  36.480        180.00	    14.697
  36.500        123.33	    12.166
  36.520        130.83	    12.530
  36.540        124.17	    12.207
  36.560        130.83	    12.530
  36.580        105.83	    11.269
  36.600         85.83	    10.149
  36.620         91.67	    10.488
  36.640         95.83	    10.724
  36.660         91.67	    10.488
  36.680         71.67	     9.274
  36.700         74.17	     9.434
  36.720         50.00	     7.746
  36.740         73.33	     9.381
  36.760         45.00	     7.348
  36.780         65.83	     8.888
  36.800         57.50	     8.307
  36.820         48.33	     7.616
  36.840         55.00	     8.124
  36.860         64.17	     8.775
  36.880         70.83	     9.220
  36.900         49.17	     7.681
  36.920         53.33	     8.000
  36.940         66.67	     8.944
  36.960         50.83	     7.810
  36.980         57.50	     8.307
  37.000         40.83	     7.000
  37.020         61.67	     8.602
  37.040         49.17	     7.681
  37.060         60.83	     8.544
  37.080         50.83	     7.810
  37.100         50.00	     7.746
  37.120         51.67	     7.874
  37.140         42.50	     7.141
  37.160         60.83	     8.544
  37.180         60.00	     8.485
  37.200         55.83	     8.185
  37.220         62.50	     8.660
  37.240         74.17	     9.434
  37.260         70.83	     9.220
  37.280         87.50	    10.247
  37.300         64.17	     8.775
  37.320         73.33	     9.381
  37.340         78.33	     9.695
  37.360         95.00	    10.677
  37.380         84.17	    10.050
  37.400         73.33	     9.381
  37.420         70.83	     9.220
  37.440         72.50	     9.327
  37.460         82.50	     9.950
  37.480         77.50	     9.644
  37.500         75.00	     9.487
  37.520         77.50	     9.644
  37.540         82.50	     9.950
  37.560         90.83	    10.440
  37.580         85.83	    10.149
  37.600         79.17	     9.747
  37.620         93.33	    10.583
  37.640         87.50	    10.247
  37.660         80.00	     9.798
  37.680         76.67	     9.592
  37.700         85.83	    10.149
  37.720         64.17	     8.775
  37.740         63.33	     8.718
  37.760         47.50	     7.550
  37.780         46.67	     7.483
  37.800         45.00	     7.348
  37.820         48.33	     7.616
  37.840         40.83	     7.000
  37.860         43.33	     7.211
  37.880         55.00	     8.124
  37.900         50.00	     7.746
  37.920         50.83	     7.810
  37.940         49.17	     7.681
  37.960         45.83	     7.416
  37.980         34.17	     6.403
  38.000         38.33	     6.782
  38.020         41.67	     7.071
  38.040         33.33	     6.325
  38.060         45.00	     7.348
  38.080         39.17	     6.856
  38.100         43.33	     7.211
  38.120         34.17	     6.403
  38.140         35.00	     6.481
  38.160         42.50	     7.141
  38.180         46.67	     7.483
  38.200         42.50	     7.141
  38.220         40.00	     6.928
  38.240         35.83	     6.557
  38.260         36.67	     6.633
  38.280         37.50	     6.708
  38.300         30.83	     6.083
  38.320         53.33	     8.000
  38.340         40.83	     7.000
  38.360         46.67	     7.483
  38.380         45.83	     7.416
  38.400         50.00	     7.746
  38.420         47.50	     7.550
  38.440         50.00	     7.746
  38.460         42.50	     7.141
  38.480         33.33	     6.325
  38.500         46.67	     7.483
  38.520         56.67	     8.246
  38.540         40.83	     7.000
  38.560         47.50	     7.550
  38.580         40.00	     6.928
  38.600         59.17	     8.426
  38.620         40.00	     6.928
  38.640         42.50	     7.141
  38.660         48.33	     7.616
  38.680         46.67	     7.483
  38.700         61.67	     8.602
  38.720         57.50	     8.307
  38.740         60.83	     8.544
  38.760         73.33	     9.381
  38.780         60.00	     8.485
  38.800         50.00	     7.746
  38.820         50.00	     7.746
  38.840         55.83	     8.185
  38.860         50.83	     7.810
  38.880         41.67	     7.071
  38.900         50.00	     7.746
  38.920         40.00	     6.928
  38.940         60.83	     8.544
  38.960         56.67	     8.246
  38.980         70.83	     9.220
  39.000         52.50	     7.937
  39.020         45.83	     7.416
  39.040         45.83	     7.416
  39.060         52.50	     7.937
  39.080         50.83	     7.810
  39.100         45.83	     7.416
  39.120         60.00	     8.485
  39.140         45.00	     7.348
  39.160         49.17	     7.681
  39.180         39.17	     6.856
  39.200         40.83	     7.000
  39.220         53.33	     8.000
  39.240         36.67	     6.633
  39.260         60.83	     8.544
  39.280         70.83	     9.220
  39.300         69.17	     9.110
  39.320         86.67	    10.198
  39.340        125.83	    12.288
  39.360        160.83	    13.892
  39.380        180.00	    14.697
  39.400        122.50	    12.124
  39.420        117.50	    11.874
  39.440         99.17	    10.909
  39.460        102.50	    11.091
  39.480        120.00	    12.000
  39.500        107.50	    11.358
  39.520         75.00	     9.487
  39.540         64.17	     8.775
  39.560         55.00	     8.124
  39.580         67.50	     9.000
  39.600         64.17	     8.775
  39.620         62.50	     8.660
  39.640         59.17	     8.426
  39.660         48.33	     7.616
  39.680         52.50	     7.937
  39.700         61.67	     8.602
  39.720         60.00	     8.485
  39.740         54.17	     8.062
  39.760         43.33	     7.211
  39.780         60.83	     8.544
  39.800         55.83	     8.185
  39.820         56.67	     8.246
  39.840         52.50	     7.937
  39.860         59.17	     8.426
  39.880         45.00	     7.348
  39.900         47.50	     7.550
  39.920         51.67	     7.874
  39.940         47.50	     7.550
  39.960         50.83	     7.810
  39.980         44.17	     7.280
  40.000         50.83	     7.810
  40.020         60.00	     8.485
  40.040         40.83	     7.000
  40.060         55.83	     8.185
  40.080         48.33	     7.616
  40.100         52.50	     7.937
  40.120         59.17	     8.426
  40.140         83.33	    10.000
  40.160         87.50	    10.247
  40.180        109.17	    11.446
  40.200        128.33	    12.410
  40.220        100.00	    10.954
  40.240         92.50	    10.536
  40.260         89.17	    10.344
  40.280         95.83	    10.724
  40.300        111.67	    11.576
  40.320         84.17	    10.050
  40.340         62.50	     8.660
  40.360         56.67	     8.246
  40.380         50.00	     7.746
  40.400         42.50	     7.141
  40.420         47.50	     7.550
  40.440         49.17	     7.681
  40.460         46.67	     7.483
  40.480         44.17	     7.280
  40.500         43.33	     7.211
  40.520         45.00	     7.348
  40.540         41.67	     7.071
  40.560         41.67	     7.071
  40.580         37.50	     6.708
  40.600         56.67	     8.246
  40.620         47.50	     7.550
  40.640         40.83	     7.000
  40.660         48.33	     7.616
  40.680         50.00	     7.746
  40.700         42.50	     7.141
  40.720         50.00	     7.746
  40.740         55.00	     8.124
  40.760         41.67	     7.071
  40.780         41.67	     7.071
  40.800         55.83	     8.185
  40.820         55.83	     8.185
  40.840         59.17	     8.426
  40.860         50.83	     7.810
  40.880         50.00	     7.746
  40.900         47.50	     7.550
  40.920         47.50	     7.550
  40.940         46.67	     7.483
  40.960         53.33	     8.000
  40.980         42.50	     7.141
  41.000         58.33	     8.367
  41.020         53.33	     8.000
  41.040         47.50	     7.550
  41.060         53.33	     8.000
  41.080         36.67	     6.633
  41.100         49.17	     7.681
  41.120         70.00	     9.165
  41.140         47.50	     7.550
  41.160         57.50	     8.307
  41.180         66.67	     8.944
  41.200         70.83	     9.220
  41.220         63.33	     8.718
  41.240         61.67	     8.602
  41.260         50.00	     7.746
  41.280         46.67	     7.483
  41.300         56.67	     8.246
  41.320         49.17	     7.681
  41.340         40.00	     6.928
  41.360         50.83	     7.810
  41.380         36.67	     6.633
  41.400         40.83	     7.000
  41.420         40.83	     7.000
  41.440         53.33	     8.000
  41.460         55.83	     8.185
  41.480         50.00	     7.746
  41.500         54.17	     8.062
  41.520         54.17	     8.062
  41.540         62.50	     8.660
  41.560         52.50	     7.937
  41.580         60.00	     8.485
  41.600         69.17	     9.110
  41.620         67.50	     9.000
  41.640         59.17	     8.426
  41.660         64.17	     8.775
  41.680         74.17	     9.434
  41.700         70.83	     9.220
  41.720         70.00	     9.165
  41.740         62.50	     8.660
  41.760         54.17	     8.062
  41.780         57.50	     8.307
  41.800         62.50	     8.660
  41.820         57.50	     8.307
  41.840         74.17	     9.434
  41.860         70.83	     9.220
  41.880         60.00	     8.485
  41.900         59.17	     8.426
  41.920         65.83	     8.888
  41.940         60.83	     8.544
  41.960         48.33	     7.616
  41.980         72.50	     9.327
  42.000         64.17	     8.775
  42.020         63.33	     8.718
  42.040         66.67	     8.944
  42.060         60.83	     8.544
  42.080         61.67	     8.602
  42.100         59.17	     8.426
  42.120         66.67	     8.944
  42.140         54.17	     8.062
  42.160         55.00	     8.124
  42.180         58.33	     8.367
  42.200         62.50	     8.660
  42.220         75.00	     9.487
  42.240         97.50	    10.817
  42.260         88.33	    10.296
  42.280        112.50	    11.619
  42.300        115.00	    11.747
  42.320        152.50	    13.528
  42.340        213.33	    16.000
  42.360        224.17	    16.401
  42.380        185.83	    14.933
  42.400        154.17	    13.601
  42.420        130.00	    12.490
  42.440        106.67	    11.314
  42.460        135.83	    12.767
  42.480        118.33	    11.916
  42.500        111.67	    11.576
  42.520         78.33	     9.695
  42.540         77.50	     9.644
  42.560         76.67	     9.592
  42.580         68.33	     9.055
  42.600         81.67	     9.899
  42.620         70.83	     9.220
  42.640         66.67	     8.944
  42.660         61.67	     8.602
  42.680         59.17	     8.426
  42.700         70.83	     9.220
  42.720         72.50	     9.327
  42.740         54.17	     8.062
  42.760         72.50	     9.327
  42.780         67.50	     9.000
  42.800         64.17	     8.775
  42.820         68.33	     9.055
  42.840         53.33	     8.000
  42.860         57.50	     8.307
  42.880         70.00	     9.165
  42.900         49.17	     7.681
  42.920         45.00	     7.348
  42.940         49.17	     7.681
  42.960         41.67	     7.071
  42.980         45.83	     7.416
  43.000         55.00	     8.124
  43.020         45.83	     7.416
  43.040         50.83	     7.810
  43.060         50.83	     7.810
  43.080         37.50	     6.708
  43.100         38.33	     6.782
  43.120         53.33	     8.000
  43.140         57.50	     8.307
  43.160         55.83	     8.185
  43.180         50.00	     7.746
  43.200         44.17	     7.280
  43.220         48.33	     7.616
  43.240         50.83	     7.810
  43.260         50.83	     7.810
  43.280         48.33	     7.616
  43.300         55.00	     8.124
  43.320         65.00	     8.832
  43.340         57.50	     8.307
  43.360         70.83	     9.220
  43.380         77.50	     9.644
  43.400         65.83	     8.888
  43.420         70.83	     9.220
  43.440         70.00	     9.165
  43.460         79.17	     9.747
  43.480         90.83	    10.440
  43.500         86.67	    10.198
  43.520         80.83	     9.849
  43.540         78.33	     9.695
  43.560         82.50	     9.950
  43.580         80.00	     9.798
  43.600         95.00	    10.677
  43.620         90.00	    10.392
  43.640         90.83	    10.440
  43.660         90.83	    10.440
  43.680         86.67	    10.198
  43.700         80.83	     9.849
  43.720         95.00	    10.677
  43.740         81.67	     9.899
  43.760         75.83	     9.539
  43.780         78.33	     9.695
  43.800         81.67	     9.899
  43.820         83.33	    10.000
  43.840         82.50	     9.950
  43.860         99.17	    10.909
  43.880         80.83	     9.849
  43.900         91.67	    10.488
  43.920         81.67	     9.899
  43.940         88.33	    10.296
  43.960         87.50	    10.247
  43.980        105.83	    11.269
  44.000        114.17	    11.705
  44.020        120.00	    12.000
  44.040        120.00	    12.000
  44.060        116.67	    11.832
  44.080        145.83	    13.229
  44.100        140.00	    12.961
  44.120        137.50	    12.845
  44.140        156.67	    13.711
  44.160        174.17	    14.457
  44.180        178.33	    14.629
  44.200        183.33	    14.832
  44.220        214.17	    16.031
  44.240        232.50	    16.703
  44.260        254.17	    17.464
  44.280        280.00	    18.330
  44.300        275.00	    18.166
  44.320        265.00	    17.833
  44.340        328.33	    19.849
  44.360        317.50	    19.519
  44.380        300.00	    18.974
  44.400        337.50	    20.125
  44.420        330.00	    19.900
  44.440        341.67	    20.248
  44.460        302.50	    19.053
  44.480        288.33	    18.601
  44.500        306.67	    19.183
  44.520        279.17	    18.303
  44.540        266.67	    17.889
  44.560        285.00	    18.493
  44.580        265.00	    17.833
  44.600        206.67	    15.748
  44.620        205.83	    15.716
  44.640        233.33	    16.733
  44.660        171.67	    14.353
  44.680        202.50	    15.588
  44.700        177.50	    14.595
  44.720        176.67	    14.560
  44.740        155.00	    13.638
  44.760        152.50	    13.528
  44.780        135.83	    12.767
  44.800        130.83	    12.530
  44.820        133.33	    12.649
  44.840        128.33	    12.410
  44.860        129.17	    12.450
  44.880        111.67	    11.576
  44.900        117.50	    11.874
  44.920        125.83	    12.288
  44.940        112.50	    11.619
  44.960        108.33	    11.402
  44.980        116.67	    11.832
  45.000        116.67	    11.832
  45.020         97.50	    10.817
  45.040        122.50	    12.124
  45.060        100.00	    10.954
  45.080         85.83	    10.149
  45.100         78.33	     9.695
  45.120         89.17	    10.344
  45.140         91.67	    10.488
  45.160        104.17	    11.180
  45.180         99.17	    10.909
  45.200         90.00	    10.392
  45.220        110.00	    11.489
  45.240         88.33	    10.296
  45.260         93.33	    10.583
  45.280        102.50	    11.091
  45.300        100.00	    10.954
  45.320        121.67	    12.083
  45.340        146.67	    13.266
  45.360        170.00	    14.283
  45.380        168.33	    14.213
  45.400        196.67	    15.362
  45.420        195.00	    15.297
  45.440        195.83	    15.330
  45.460        227.50	    16.523
  45.480        187.50	    15.000
  45.500        229.17	    16.583
  45.520        227.50	    16.523
  45.540        199.17	    15.460
  45.560        190.83	    15.133
  45.580        153.33	    13.565
  45.600        154.17	    13.601
  45.620        171.67	    14.353
  45.640        172.50	    14.387
  45.660        172.50	    14.387
  45.680        157.50	    13.748
  45.700        166.67	    14.142
  45.720        136.67	    12.806
  45.740         98.33	    10.863
  45.760         88.33	    10.296
  45.780         80.83	     9.849
  45.800         87.50	    10.247
  45.820         98.33	    10.863
  45.840         99.17	    10.909
  45.860        100.00	    10.954
  45.880         63.33	     8.718
  45.900         75.00	     9.487
  45.920         63.33	     8.718
  45.940         57.50	     8.307
  45.960         51.67	     7.874
  45.980         62.50	     8.660
  46.000         60.00	     8.485
  46.020         63.33	     8.718
  46.040         48.33	     7.616
  46.060         57.50	     8.307
  46.080         51.67	     7.874
  46.100         55.83	     8.185
  46.120         54.17	     8.062
  46.140         49.17	     7.681
  46.160         45.83	     7.416
  46.180         47.50	     7.550
  46.200         43.33	     7.211
  46.220         34.17	     6.403
  46.240         42.50	     7.141
  46.260         42.50	     7.141
  46.280         35.00	     6.481
  46.300         41.67	     7.071
  46.320         40.83	     7.000
  46.340         35.00	     6.481
  46.360         46.67	     7.483
  46.380         37.50	     6.708
  46.400         42.50	     7.141
  46.420         51.67	     7.874
  46.440         43.33	     7.211
  46.460         41.67	     7.071
  46.480         35.83	     6.557
  46.500         36.67	     6.633
  46.520         43.33	     7.211
  46.540         37.50	     6.708
  46.560         37.50	     6.708
  46.580         40.00	     6.928
  46.600         35.00	     6.481
  46.620         38.33	     6.782
  46.640         45.00	     7.348
  46.660         51.67	     7.874
  46.680         39.17	     6.856
  46.700         40.83	     7.000
  46.720         45.83	     7.416
  46.740         50.00	     7.746
  46.760         46.67	     7.483
  46.780         37.50	     6.708
  46.800         35.00	     6.481
  46.820         34.17	     6.403
  46.840         42.50	     7.141
  46.860         45.00	     7.348
  46.880         50.83	     7.810
  46.900         41.67	     7.071
  46.920         47.50	     7.550
  46.940         45.83	     7.416
  46.960         42.50	     7.141
  46.980         58.33	     8.367
  47.000         59.17	     8.426
  47.020         71.67	     9.274
  47.040         66.67	     8.944
  47.060         61.67	     8.602
  47.080         75.00	     9.487
  47.100         56.67	     8.246
  47.120         59.17	     8.426
  47.140         52.50	     7.937
  47.160         55.00	     8.124
  47.180         54.17	     8.062
  47.200         49.17	     7.681
  47.220         51.67	     7.874
  47.240         43.33	     7.211
  47.260         40.00	     6.928
  47.280         35.83	     6.557
  47.300         37.50	     6.708
  47.320         36.67	     6.633
  47.340         31.67	     6.164
  47.360         40.00	     6.928
  47.380         55.00	     8.124
  47.400         46.67	     7.483
  47.420         41.67	     7.071
  47.440         42.50	     7.141
  47.460         37.50	     6.708
  47.480         31.67	     6.164
  47.500         50.00	     7.746
  47.520         40.00	     6.928
  47.540         45.83	     7.416
  47.560         27.50	     5.745
  47.580         35.00	     6.481
  47.600         25.83	     5.568
  47.620         35.00	     6.481
  47.640         44.17	     7.280
  47.660         42.50	     7.141
  47.680         41.67	     7.071
  47.700         30.00	     6.000
  47.720         42.50	     7.141
  47.740         42.50	     7.141
  47.760         44.17	     7.280
  47.780         50.83	     7.810
  47.800         36.67	     6.633
  47.820         50.83	     7.810
  47.840         47.50	     7.550
  47.860         69.17	     9.110
  47.880         78.33	     9.695
  47.900         70.00	     9.165
  47.920         70.00	     9.165
  47.940         43.33	     7.211
  47.960         50.00	     7.746
  47.980         52.50	     7.937
  48.000         67.50	     9.000
  48.020         72.50	     9.327
  48.040         63.33	     8.718
  48.060         55.00	     8.124
  48.080         60.83	     8.544
  48.100         62.50	     8.660
  48.120         60.83	     8.544
  48.140         58.33	     8.367
  48.160         62.50	     8.660
  48.180         51.67	     7.874
  48.200         61.67	     8.602
  48.220         42.50	     7.141
  48.240         46.67	     7.483
  48.260         47.50	     7.550
  48.280         50.00	     7.746
  48.300         54.17	     8.062
  48.320         61.67	     8.602
  48.340         51.67	     7.874
  48.360         62.50	     8.660
  48.380         50.83	     7.810
  48.400         45.00	     7.348
  48.420         36.67	     6.633
  48.440         42.50	     7.141
  48.460         38.33	     6.782
  48.480         46.67	     7.483
  48.500         59.17	     8.426
  48.520         42.50	     7.141
  48.540         40.00	     6.928
  48.560         55.83	     8.185
  48.580         39.17	     6.856
  48.600         44.17	     7.280
  48.620         45.00	     7.348
  48.640         53.33	     8.000
  48.660         55.83	     8.185
  48.680         50.00	     7.746
  48.700         39.17	     6.856
  48.720         36.67	     6.633
  48.740         59.17	     8.426
  48.760         38.33	     6.782
  48.780         44.17	     7.280
  48.800         33.33	     6.325
  48.820         58.33	     8.367
  48.840         38.33	     6.782
  48.860         53.33	     8.000
  48.880         54.17	     8.062
  48.900         59.17	     8.426
  48.920         73.33	     9.381
  48.940         64.17	     8.775
  48.960         60.83	     8.544
  48.980         60.83	     8.544
  49.000         46.67	     7.483
  49.020         43.33	     7.211
  49.040         75.00	     9.487
  49.060         55.83	     8.185
  49.080         61.67	     8.602
  49.100         62.50	     8.660
  49.120         64.17	     8.775
  49.140         57.50	     8.307
  49.160         50.00	     7.746
  49.180         50.00	     7.746
  49.200         40.00	     6.928
  49.220         60.83	     8.544
  49.240         64.17	     8.775
  49.260         51.67	     7.874
  49.280         50.00	     7.746
  49.300         51.67	     7.874
  49.320         50.00	     7.746
  49.340         54.17	     8.062
  49.360         50.00	     7.746
  49.380         54.17	     8.062
  49.400         57.50	     8.307
  49.420         56.67	     8.246
  49.440         50.00	     7.746
  49.460         55.83	     8.185
  49.480         45.00	     7.348
  49.500         59.17	     8.426
  49.520         62.50	     8.660
  49.540         61.67	     8.602
  49.560         59.17	     8.426
  49.580         57.50	     8.307
  49.600         64.17	     8.775
  49.620         61.67	     8.602
  49.640         60.83	     8.544
  49.660         95.00	    10.677
  49.680         80.00	     9.798
  49.700         76.67	     9.592
  49.720         85.00	    10.100
  49.740         68.33	     9.055
  49.760         64.17	     8.775
  49.780         85.00	    10.100
  49.800        107.50	    11.358
  49.820        102.50	    11.091
  49.840        120.83	    12.042
  49.860         94.17	    10.630
  49.880         89.17	    10.344
  49.900         94.17	    10.630
  49.920         99.17	    10.909
  49.940        100.00	    10.954
  49.960        143.33	    13.115
  49.980        226.67	    16.492
  50.000        339.17	    20.174
  50.020        478.33	    23.958
  50.040        511.67	    24.779
  50.060        435.00	    22.847
  50.080        335.00	    20.050
  50.100        203.33	    15.620
  50.120        170.00	    14.283
  50.140        213.33	    16.000
  50.160        289.17	    18.628
  50.180        312.50	    19.365
  50.200        247.50	    17.234
  50.220        157.50	    13.748
  50.240        114.17	    11.705
  50.260         76.67	     9.592
  50.280         50.00	     7.746
  50.300         52.50	     7.937
  50.320         55.00	     8.124
  50.340         57.50	     8.307
  50.360         55.83	     8.185
  50.380         59.17	     8.426
  50.400         67.50	     9.000
  50.420         70.83	     9.220
  50.440         70.00	     9.165
  50.460         63.33	     8.718
  50.480         70.83	     9.220
  50.500         79.17	     9.747
  50.520         63.33	     8.718
  50.540         65.83	     8.888
  50.560         71.67	     9.274
  50.580         59.17	     8.426
  50.600         76.67	     9.592
  50.620         75.83	     9.539
  50.640         92.50	    10.536
  50.660         68.33	     9.055
  50.680         62.50	     8.660
  50.700         65.83	     8.888
  50.720         57.50	     8.307
  50.740         52.50	     7.937
  50.760         68.33	     9.055
  50.780         40.00	     6.928
  50.800         56.67	     8.246
  50.820         56.67	     8.246
  50.840         36.67	     6.633
  50.860         32.50	     6.245
  50.880         40.83	     7.000
  50.900         32.50	     6.245
  50.920         38.33	     6.782
  50.940         31.67	     6.164
  50.960         50.00	     7.746
  50.980         57.50	     8.307
  51.000         75.83	     9.539
  51.020         72.50	     9.327
  51.040         77.50	     9.644
  51.060         58.33	     8.367
  51.080         56.67	     8.246
  51.100         56.67	     8.246
  51.120         58.33	     8.367
  51.140         66.67	     8.944
  51.160         68.33	     9.055
  51.180         74.17	     9.434
  51.200         60.83	     8.544
  51.220         56.67	     8.246
  51.240         55.83	     8.185
  51.260         55.83	     8.185
  51.280         53.33	     8.000
  51.300         45.83	     7.416
  51.320         43.33	     7.211
  51.340         40.00	     6.928
  51.360         35.00	     6.481
  51.380         38.33	     6.782
  51.400         41.67	     7.071
  51.420         41.67	     7.071
  51.440         39.17	     6.856
  51.460         45.83	     7.416
  51.480         32.50	     6.245
  51.500         32.50	     6.245
  51.520         32.50	     6.245
  51.540         33.33	     6.325
  51.560         44.17	     7.280
  51.580         25.00	     5.477
  51.600         40.83	     7.000
  51.620         36.67	     6.633
  51.640         41.67	     7.071
  51.660         25.00	     5.477
  51.680         29.17	     5.916
  51.700         42.50	     7.141
  51.720         41.67	     7.071
  51.740         26.67	     5.657
  51.760         28.33	     5.831
  51.780         35.00	     6.481
  51.800         45.83	     7.416
  51.820         36.67	     6.633
  51.840         40.00	     6.928
  51.860         30.83	     6.083
  51.880         34.17	     6.403
  51.900         34.17	     6.403
  51.920         47.50	     7.550
  51.940         35.83	     6.557
  51.960         40.83	     7.000
  51.980         37.50	     6.708
  52.000         34.17	     6.403
  52.020         55.83	     8.185
  52.040         48.33	     7.616
  52.060         50.00	     7.746
  52.080         71.67	     9.274
  52.100         52.50	     7.937
  52.120         64.17	     8.775
  52.140         43.33	     7.211
  52.160         45.00	     7.348
  52.180         65.00	     8.832
  52.200         60.00	     8.485
  52.220         65.00	     8.832
  52.240         64.17	     8.775
  52.260         69.17	     9.110
  52.280         47.50	     7.550
  52.300         45.00	     7.348
  52.320         49.17	     7.681
  52.340         62.50	     8.660
  52.360         74.17	     9.434
  52.380         53.33	     8.000
  52.400         68.33	     9.055
  52.420         52.50	     7.937
  52.440         58.33	     8.367
  52.460         50.83	     7.810
  52.480         35.00	     6.481
  52.500         46.67	     7.483
  52.520         55.00	     8.124
  52.540         59.17	     8.426
  52.560         54.17	     8.062
  52.580         43.33	     7.211
  52.600         46.67	     7.483
  52.620         43.33	     7.211
  52.640         45.83	     7.416
  52.660         37.50	     6.708
  52.680         54.17	     8.062
  52.700         45.00	     7.348
  52.720         54.17	     8.062
  52.740         65.83	     8.888
  52.760         56.67	     8.246
  52.780         35.83	     6.557
  52.800         50.00	     7.746
  52.820         53.33	     8.000
  52.840         38.33	     6.782
  52.860         50.83	     7.810
  52.880         46.67	     7.483
  52.900         55.83	     8.185
  52.920         60.83	     8.544
  52.940         43.33	     7.211
  52.960         53.33	     8.000
  52.980         61.67	     8.602
  53.000         42.50	     7.141
  53.020         49.17	     7.681
  53.040         57.50	     8.307
  53.060         45.83	     7.416
  53.080         51.67	     7.874
  53.100         52.50	     7.937
  53.120         45.00	     7.348
  53.140         41.67	     7.071
  53.160         48.33	     7.616
  53.180         54.17	     8.062
  53.200         33.33	     6.325
  53.220         45.00	     7.348
  53.240         55.83	     8.185
  53.260         47.50	     7.550
  53.280         40.83	     7.000
  53.300         42.50	     7.141
  53.320         40.83	     7.000
  53.340         46.67	     7.483
  53.360         42.50	     7.141
  53.380         36.67	     6.633
  53.400         37.50	     6.708
  53.420         42.50	     7.141
  53.440         39.17	     6.856
  53.460         31.67	     6.164
  53.480         40.83	     7.000
  53.500         37.50	     6.708
  53.520         35.83	     6.557
  53.540         45.83	     7.416
  53.560         38.33	     6.782
  53.580         31.67	     6.164
  53.600         37.50	     6.708
  53.620         41.67	     7.071
  53.640         33.33	     6.325
  53.660         34.17	     6.403
  53.680         27.50	     5.745
  53.700         37.50	     6.708
  53.720         35.83	     6.557
  53.740         46.67	     7.483
  53.760         52.50	     7.937
  53.780         39.17	     6.856
  53.800         42.50	     7.141
  53.820         32.50	     6.245
  53.840         33.33	     6.325
  53.860         45.83	     7.416
  53.880         38.33	     6.782
  53.900         33.33	     6.325
  53.920         38.33	     6.782
  53.940         51.67	     7.874
  53.960         36.67	     6.633
  53.980         35.83	     6.557
  54.000         36.67	     6.633
  54.020         33.33	     6.325
  54.040         31.67	     6.164
  54.060         34.17	     6.403
  54.080         46.67	     7.483
  54.100         28.33	     5.831
  54.120         37.50	     6.708
  54.140         44.17	     7.280
  54.160         50.00	     7.746
  54.180         51.67	     7.874
  54.200         58.33	     8.367
  54.220         66.67	     8.944
  54.240         75.83	     9.539
  54.260         66.67	     8.944
  54.280         59.17	     8.426
  54.300         31.67	     6.164
  54.320         55.83	     8.185
  54.340         40.00	     6.928
  54.360         62.50	     8.660
  54.380         56.67	     8.246
  54.400         58.33	     8.367
  54.420         42.50	     7.141
  54.440         48.33	     7.616
  54.460         55.83	     8.185
  54.480         41.67	     7.071
  54.500         46.67	     7.483
  54.520         47.50	     7.550
  54.540         59.17	     8.426
  54.560         51.67	     7.874
  54.580         55.83	     8.185
  54.600         46.67	     7.483
  54.620         47.50	     7.550
  54.640         46.67	     7.483
  54.660         57.50	     8.307
  54.680         50.83	     7.810
  54.700         50.83	     7.810
  54.720         70.00	     9.165
  54.740        108.33	    11.402
  54.760        116.67	    11.832
  54.780        126.67	    12.329
  54.800        128.33	    12.410
  54.820         90.00	    10.392
  54.840         60.00	     8.485
  54.860         60.00	     8.485
  54.880         64.17	     8.775
  54.900         81.67	     9.899
  54.920        101.67	    11.045
  54.940         89.17	    10.344
  54.960         83.33	    10.000
  54.980         66.67	     8.944
  55.000         62.50	     8.660
  55.020         58.33	     8.367
  55.040         55.83	     8.185
  55.060         60.83	     8.544
  55.080         50.00	     7.746
  55.100         55.83	     8.185
  55.120         63.33	     8.718
  55.140         67.50	     9.000
  55.160         62.50	     8.660
  55.180         76.67	     9.592
  55.200         79.17	     9.747
  55.220         85.00	    10.100
  55.240         71.67	     9.274
  55.260         84.17	    10.050
  55.280         68.33	     9.055
  55.300         58.33	     8.367
  55.320         52.50	     7.937
  55.340         46.67	     7.483
  55.360         57.50	     8.307
  55.380         60.00	     8.485
  55.400         60.83	     8.544
  55.420         53.33	     8.000
  55.440         78.33	     9.695
  55.460         53.33	     8.000
  55.480         49.17	     7.681
  55.500         51.67	     7.874
  55.520         42.50	     7.141
  55.540         50.00	     7.746
  55.560         53.33	     8.000
  55.580         62.50	     8.660
  55.600         56.67	     8.246
  55.620         57.50	     8.307
  55.640         69.17	     9.110
  55.660         66.67	     8.944
  55.680         60.83	     8.544
  55.700         67.50	     9.000
  55.720         66.67	     8.944
  55.740         73.33	     9.381
  55.760         70.00	     9.165
  55.780         74.17	     9.434
  55.800         67.50	     9.000
  55.820         64.17	     8.775
  55.840         56.67	     8.246
  55.860         61.67	     8.602
  55.880         70.00	     9.165
  55.900         75.00	     9.487
  55.920         63.33	     8.718
  55.940         67.50	     9.000
  55.960         52.50	     7.937
  55.980         57.50	     8.307
  56.000         65.00	     8.832
  56.020         71.67	     9.274
  56.040         90.00	    10.392
  56.060         93.33	    10.583
  56.080        123.33	    12.166
  56.100        124.17	    12.207
  56.120         84.17	    10.050
  56.140         76.67	     9.592
  56.160         57.50	     8.307
  56.180         60.83	     8.544
  56.200         71.67	     9.274
  56.220         86.67	    10.198
  56.240         97.50	    10.817
  56.260         81.67	     9.899
  56.280         60.83	     8.544
  56.300         56.67	     8.246
  56.320         50.00	     7.746
  56.340         64.17	     8.775
  56.360         54.17	     8.062
  56.380         35.00	     6.481
  56.400         40.00	     6.928
  56.420         42.50	     7.141
  56.440         55.00	     8.124
  56.460         46.67	     7.483
  56.480         51.67	     7.874
  56.500         57.50	     8.307
  56.520         40.00	     6.928
  56.540         35.00	     6.481
  56.560         50.83	     7.810
  56.580         35.00	     6.481
  56.600         40.00	     6.928
  56.620         46.67	     7.483
  56.640         42.50	     7.141
  56.660         49.17	     7.681
  56.680         46.67	     7.483
  56.700         47.50	     7.550
  56.720         38.33	     6.782
  56.740         45.00	     7.348
  56.760         43.33	     7.211
  56.780         37.50	     6.708
  56.800         40.00	     6.928
  56.820         40.83	     7.000
  56.840         44.17	     7.280
  56.860         45.83	     7.416
  56.880         54.17	     8.062
  56.900         45.00	     7.348
  56.920         30.00	     6.000
  56.940         50.83	     7.810
  56.960         46.67	     7.483
  56.980         35.83	     6.557
  57.000         50.00	     7.746
  57.020         44.17	     7.280
  57.040         39.17	     6.856
  57.060         43.33	     7.211
  57.080         44.17	     7.280
  57.100         42.50	     7.141
  57.120         50.83	     7.810
  57.140         45.83	     7.416
  57.160         49.17	     7.681
  57.180         53.33	     8.000
  57.200         45.00	     7.348
  57.220         48.33	     7.616
  57.240         50.83	     7.810
  57.260         60.83	     8.544
  57.280         65.00	     8.832
  57.300         89.17	    10.344
  57.320         84.17	    10.050
  57.340         64.17	     8.775
  57.360         63.33	     8.718
  57.380         53.33	     8.000
  57.400         38.33	     6.782
  57.420         58.33	     8.367
  57.440         55.00	     8.124
  57.460         77.50	     9.644
  57.480         78.33	     9.695
  57.500         69.17	     9.110
  57.520         65.00	     8.832
  57.540         45.83	     7.416
  57.560         57.50	     8.307
  57.580         44.17	     7.280
  57.600         43.33	     7.211
  57.620         51.67	     7.874
  57.640         61.67	     8.602
  57.660         50.83	     7.810
  57.680         55.00	     8.124
  57.700         51.67	     7.874
  57.720         55.00	     8.124
  57.740         46.67	     7.483
  57.760         60.83	     8.544
  57.780         44.17	     7.280
  57.800         37.50	     6.708
  57.820         39.17	     6.856
  57.840         45.83	     7.416
  57.860         35.00	     6.481
  57.880         40.00	     6.928
  57.900         51.67	     7.874
  57.920         45.83	     7.416
  57.940         41.67	     7.071
  57.960         35.00	     6.481
  57.980         33.33	     6.325
  58.000         48.33	     7.616
  58.020         48.33	     7.616
  58.040         49.17	     7.681
  58.060         45.00	     7.348
  58.080         45.83	     7.416
  58.100         46.67	     7.483
  58.120         49.17	     7.681
  58.140         40.83	     7.000
  58.160         35.00	     6.481
  58.180         38.33	     6.782
  58.200         37.50	     6.708
  58.220         55.83	     8.185
  58.240         57.50	     8.307
  58.260         40.00	     6.928
  58.280         28.33	     5.831
  58.300         28.33	     5.831
  58.320         38.33	     6.782
  58.340         41.67	     7.071
  58.360         41.67	     7.071
  58.380         35.00	     6.481
  58.400         34.17	     6.403
  58.420         42.50	     7.141
  58.440         45.83	     7.416
  58.460         49.17	     7.681
  58.480         55.83	     8.185
  58.500         61.67	     8.602
  58.520         64.17	     8.775
  58.540         65.00	     8.832
  58.560         66.67	     8.944
  58.580         70.00	     9.165
  58.600         60.00	     8.485
  58.620         65.00	     8.832
  58.640         72.50	     9.327
  58.660         60.83	     8.544
  58.680         60.00	     8.485
  58.700         60.83	     8.544
  58.720         51.67	     7.874
  58.740         53.33	     8.000
  58.760         49.17	     7.681
  58.780         49.17	     7.681
  58.800         45.00	     7.348
  58.820         57.50	     8.307
  58.840         44.17	     7.280
  58.860         55.00	     8.124
  58.880         39.17	     6.856
  58.900         53.33	     8.000
  58.920         48.33	     7.616
  58.940         46.67	     7.483
  58.960         42.50	     7.141
  58.980         46.67	     7.483
  59.000         49.17	     7.681
  59.020         56.67	     8.246
  59.040         45.00	     7.348
  59.060         65.83	     8.888
  59.080         65.00	     8.832
  59.100         60.00	     8.485
  59.120         61.67	     8.602
  59.140         60.83	     8.544
  59.160         60.83	     8.544
  59.180         55.00	     8.124
  59.200         61.67	     8.602
  59.220         63.33	     8.718
  59.240         54.17	     8.062
  59.260         51.67	     7.874
  59.280         48.33	     7.616
  59.300         47.50	     7.550
  59.320         53.33	     8.000
  59.340         55.00	     8.124
  59.360         50.83	     7.810
  59.380         52.50	     7.937
  59.400         41.67	     7.071
  59.420         48.33	     7.616
  59.440         53.33	     8.000
  59.460         60.83	     8.544
  59.480         36.67	     6.633
  59.500         51.67	     7.874
  59.520         47.50	     7.550
  59.540         38.33	     6.782
  59.560         50.83	     7.810
  59.580         57.50	     8.307
  59.600         48.33	     7.616
  59.620         41.67	     7.071
  59.640         40.00	     6.928
  59.660         54.17	     8.062
  59.680         58.33	     8.367
  59.700         68.33	     9.055
  59.720         59.17	     8.426
  59.740         70.00	     9.165
  59.760         80.00	     9.798
  59.780        110.83	    11.533
  59.800        161.67	    13.928
  59.820        192.50	    15.199
  59.840        262.50	    17.748
  59.860        320.00	    19.596
  59.880        337.50	    20.125
  59.900        277.50	    18.248
  59.920        185.00	    14.900
  59.940        144.17	    13.153
  59.960        132.50	    12.610
  59.980        147.50	    13.304
  60.000        156.67	    13.711
  60.020        190.83	    15.133
  60.040        172.50	    14.387
  60.060        137.50	    12.845
  60.080        120.00	    12.000
  60.100         96.67	    10.770
  60.120         81.67	     9.899
  60.140         55.00	     8.124
  60.160         61.67	     8.602
  60.180         56.67	     8.246
  60.200         49.17	     7.681
  60.220         54.17	     8.062
  60.240         57.50	     8.307
  60.260         59.17	     8.426
  60.280         42.50	     7.141
  60.300         54.17	     8.062
  60.320         45.83	     7.416
  60.340         50.00	     7.746
  60.360         46.67	     7.483
  60.380         60.83	     8.544
  60.400         68.33	     9.055
  60.420         65.83	     8.888
  60.440         49.17	     7.681
  60.460         52.50	     7.937
  60.480         55.83	     8.185
  60.500         61.67	     8.602
  60.520         55.83	     8.185
  60.540         66.67	     8.944
  60.560         64.17	     8.775
  60.580         55.00	     8.124
  60.600         67.50	     9.000
  60.620         88.33	    10.296
  60.640         64.17	     8.775
  60.660         78.33	     9.695
  60.680         83.33	    10.000
  60.700         70.00	     9.165
  60.720         74.17	     9.434
  60.740         81.67	     9.899
  60.760         79.17	     9.747
  60.780         80.83	     9.849
  60.800         61.67	     8.602
  60.820         64.17	     8.775
  60.840         75.00	     9.487
  60.860         70.00	     9.165
  60.880         66.67	     8.944
  60.900         63.33	     8.718
  60.920         57.50	     8.307
  60.940         63.33	     8.718
  60.960         50.00	     7.746
  60.980         48.33	     7.616
  61.000         54.17	     8.062
  61.020         50.83	     7.810
  61.040         50.00	     7.746
  61.060         50.00	     7.746
  61.080         50.00	     7.746
  61.100         48.33	     7.616
  61.120         46.67	     7.483
  61.140         39.17	     6.856
  61.160         41.67	     7.071
  61.180         40.00	     6.928
  61.200         53.33	     8.000
  61.220         50.83	     7.810
  61.240         50.00	     7.746
  61.260         58.33	     8.367
  61.280         59.17	     8.426
  61.300         50.00	     7.746
  61.320         76.67	     9.592
  61.340         69.17	     9.110
  61.360         56.67	     8.246
  61.380         66.67	     8.944
  61.400         61.67	     8.602
  61.420         61.67	     8.602
  61.440         66.67	     8.944
  61.460         72.50	     9.327
  61.480         60.83	     8.544
  61.500         70.83	     9.220
  61.520         77.50	     9.644
  61.540         60.83	     8.544
  61.560         70.00	     9.165
  61.580         70.83	     9.220
  61.600         74.17	     9.434
  61.620         63.33	     8.718
  61.640         80.83	     9.849
  61.660         60.00	     8.485
  61.680         61.67	     8.602
  61.700         57.50	     8.307
  61.720         53.33	     8.000
  61.740         56.67	     8.246
  61.760         56.67	     8.246
  61.780         60.00	     8.485
  61.800         65.83	     8.888
  61.820         55.00	     8.124
  61.840         57.50	     8.307
  61.860         54.17	     8.062
  61.880         63.33	     8.718
  61.900         60.83	     8.544
  61.920         59.17	     8.426
  61.940         44.17	     7.280
  61.960         41.67	     7.071
  61.980         45.83	     7.416
  62.000         55.83	     8.185
  62.020         43.33	     7.211
  62.040         38.33	     6.782
  62.060         49.17	     7.681
  62.080         38.33	     6.782
  62.100         48.33	     7.616
  62.120         46.67	     7.483
  62.140         31.67	     6.164
  62.160         50.83	     7.810
  62.180         44.17	     7.280
  62.200         45.83	     7.416
  62.220         27.50	     5.745
  62.240         47.50	     7.550
  62.260         49.17	     7.681
  62.280         42.50	     7.141
  62.300         35.00	     6.481
  62.320         35.00	     6.481
  62.340         39.17	     6.856
  62.360         43.33	     7.211
  62.380         33.33	     6.325
  62.400         40.00	     6.928
  62.420         38.33	     6.782
  62.440         35.00	     6.481
  62.460         37.50	     6.708
  62.480         40.83	     7.000
  62.500         35.00	     6.481
  62.520         36.67	     6.633
  62.540         33.33	     6.325
  62.560         32.50	     6.245
  62.580         44.17	     7.280
  62.600         56.67	     8.246
  62.620         42.50	     7.141
  62.640         51.67	     7.874
  62.660         43.33	     7.211
  62.680         44.17	     7.280
  62.700         48.33	     7.616
  62.720         50.00	     7.746
  62.740         45.83	     7.416
  62.760         47.50	     7.550
  62.780         38.33	     6.782
  62.800         53.33	     8.000
  62.820         51.67	     7.874
  62.840         52.50	     7.937
  62.860         49.17	     7.681
  62.880         39.17	     6.856
  62.900         40.00	     6.928
  62.920         25.00	     5.477
  62.940         40.83	     7.000
  62.960         47.50	     7.550
  62.980         40.00	     6.928
  63.000         50.00	     7.746
  63.020         45.83	     7.416
  63.040         46.67	     7.483
  63.060         44.17	     7.280
  63.080         45.83	     7.416
  63.100         33.33	     6.325
  63.120         40.83	     7.000
  63.140         50.00	     7.746
  63.160         52.50	     7.937
  63.180         39.17	     6.856
  63.200         48.33	     7.616
  63.220         36.67	     6.633
  63.240         55.83	     8.185
  63.260         45.83	     7.416
  63.280         48.33	     7.616
  63.300         40.00	     6.928
  63.320         56.67	     8.246
  63.340         72.50	     9.327
  63.360         70.83	     9.220
  63.380         63.33	     8.718
  63.400         73.33	     9.381
  63.420         75.00	     9.487
  63.440         58.33	     8.367
  63.460         65.00	     8.832
  63.480         46.67	     7.483
  63.500         58.33	     8.367
  63.520         72.50	     9.327
  63.540         64.17	     8.775
  63.560         55.00	     8.124
  63.580         57.50	     8.307
  63.600         65.83	     8.888
  63.620         59.17	     8.426
  63.640         57.50	     8.307
  63.660         53.33	     8.000
  63.680         58.33	     8.367
  63.700         63.33	     8.718
  63.720         64.17	     8.775
  63.740         68.33	     9.055
  63.760         57.50	     8.307
  63.780         64.17	     8.775
  63.800         65.00	     8.832
  63.820         51.67	     7.874
  63.840         63.33	     8.718
  63.860         68.33	     9.055
  63.880         77.50	     9.644
  63.900         69.17	     9.110
  63.920         84.17	    10.050
  63.940         87.50	    10.247
  63.960        100.83	    11.000
  63.980         69.17	     9.110
  64.000         80.00	     9.798
  64.020         62.50	     8.660
  64.040         54.17	     8.062
  64.060         60.83	     8.544
  64.080         75.00	     9.487
  64.100         71.67	     9.274
  64.120         63.33	     8.718
  64.140         61.67	     8.602
  64.160         77.50	     9.644
  64.180         55.83	     8.185
  64.200         62.50	     8.660
  64.220         55.83	     8.185
  64.240         50.00	     7.746
  64.260         54.17	     8.062
  64.280         50.83	     7.810
  64.300         50.83	     7.810
  64.320         45.83	     7.416
  64.340         60.83	     8.544
  64.360         46.67	     7.483
  64.380         51.67	     7.874
  64.400         51.67	     7.874
  64.420         36.67	     6.633
  64.440         45.83	     7.416
  64.460         47.50	     7.550
  64.480         48.33	     7.616
  64.500         45.83	     7.416
  64.520         51.67	     7.874
  64.540         45.00	     7.348
  64.560         54.17	     8.062
  64.580         56.67	     8.246
  64.600         55.00	     8.124
  64.620         59.17	     8.426
  64.640         67.50	     9.000
  64.660         49.17	     7.681
  64.680         70.00	     9.165
  64.700         63.33	     8.718
  64.720         43.33	     7.211
  64.740         57.50	     8.307
  64.760         43.33	     7.211
  64.780         50.83	     7.810
  64.800         61.67	     8.602
  64.820         55.00	     8.124
  64.840         42.50	     7.141
  64.860         41.67	     7.071
  64.880         39.17	     6.856
  64.900         49.17	     7.681
  64.920         51.67	     7.874
  64.940         40.83	     7.000
  64.960         53.33	     8.000
  64.980         45.00	     7.348
  65.000         50.83	     7.810
