
Filename:
	C:\Program Files\Thermo Electron\WinXRD\Datafiles\F_HERMAN\FIEN\G29_FT.raw

File Created:
	October 09, 2019 - 07:45 AM

Specimen Id:
	G29  FT RT

Specimen Name:
	

Specimen Description:
	

Comment:
Scan Type: 2Theta Scan
Start Angle: 2 deg.
Stop Angle: 65 deg.
Num Points: 3151
Step Size: 0.02 deg.
Scan Rate: 1.000000
Scan Mode: Continuous
Wavelength: 1.540562
\Kalpha1: 1.540562	\Kalpha2: 1.544390	\Kbeta: 1.392218

Optics:
		Detector:
			 Type: Fixed Slits
		Tube: 
			 Type: Fixed Slits


Datas:
 Pos [deg]       Rate [CPS]      ESD [-]

Range 1 ---> Iteration 1
   2.000        937.50	    33.541
   2.020        930.00	    33.407
   2.040        858.33	    32.094
   2.060        895.83	    32.787
   2.080        948.33	    33.734
   2.100        810.00	    31.177
   2.120        814.17	    31.257
   2.140        807.50	    31.129
   2.160        864.17	    32.202
   2.180        821.67	    31.401
   2.200        818.33	    31.337
   2.220        820.83	    31.385
   2.240        756.67	    30.133
   2.260        762.50	    30.249
   2.280        760.00	    30.199
   2.300        752.50	    30.050
   2.320        766.67	    30.332
   2.340        740.00	    29.799
   2.360        738.33	    29.766
   2.380        730.83	    29.614
   2.400        746.67	    29.933
   2.420        717.50	    29.343
   2.440        695.00	    28.879
   2.460        719.17	    29.377
   2.480        703.33	    29.052
   2.500        638.33	    27.677
   2.520        667.50	    28.302
   2.540        682.50	    28.618
   2.560        622.50	    27.331
   2.580        630.00	    27.495
   2.600        650.00	    27.928
   2.620        636.67	    27.641
   2.640        643.33	    27.785
   2.660        620.83	    27.295
   2.680        638.33	    27.677
   2.700        581.67	    26.420
   2.720        612.50	    27.111
   2.740        590.00	    26.608
   2.760        622.50	    27.331
   2.780        610.00	    27.055
   2.800        590.83	    26.627
   2.820        601.67	    26.870
   2.840        606.67	    26.981
   2.860        563.33	    26.000
   2.880        578.33	    26.344
   2.900        546.67	    25.612
   2.920        544.17	    25.554
   2.940        551.67	    25.729
   2.960        555.00	    25.807
   2.980        541.67	    25.495
   3.000        580.00	    26.382
   3.020        507.50	    24.678
   3.040        573.33	    26.230
   3.060        526.67	    25.140
   3.080        508.33	    24.698
   3.100        520.00	    24.980
   3.120        532.50	    25.278
   3.140        525.00	    25.100
   3.160        497.50	    24.434
   3.180        497.50	    24.434
   3.200        507.50	    24.678
   3.220        534.17	    25.318
   3.240        496.67	    24.413
   3.260        470.00	    23.749
   3.280        473.33	    23.833
   3.300        525.00	    25.100
   3.320        485.00	    24.125
   3.340        478.33	    23.958
   3.360        475.00	    23.875
   3.380        500.83	    24.515
   3.400        464.17	    23.601
   3.420        435.83	    22.869
   3.440        450.83	    23.259
   3.460        410.00	    22.181
   3.480        422.50	    22.517
   3.500        454.17	    23.345
   3.520        445.00	    23.108
   3.540        446.67	    23.152
   3.560        454.17	    23.345
   3.580        441.67	    23.022
   3.600        427.50	    22.650
   3.620        413.33	    22.271
   3.640        393.33	    21.726
   3.660        427.50	    22.650
   3.680        412.50	    22.249
   3.700        440.00	    22.978
   3.720        423.33	    22.539
   3.740        395.83	    21.794
   3.760        431.67	    22.760
   3.780        408.33	    22.136
   3.800        373.33	    21.166
   3.820        401.67	    21.954
   3.840        410.00	    22.181
   3.860        405.00	    22.045
   3.880        414.17	    22.293
   3.900        375.83	    21.237
   3.920        372.50	    21.142
   3.940        378.33	    21.307
   3.960        384.17	    21.471
   3.980        397.50	    21.840
   4.000        372.50	    21.142
   4.020        390.83	    21.656
   4.040        373.33	    21.166
   4.060        379.17	    21.331
   4.080        394.17	    21.749
   4.100        370.00	    21.071
   4.120        350.00	    20.494
   4.140        374.17	    21.190
   4.160        383.33	    21.448
   4.180        354.17	    20.616
   4.200        354.17	    20.616
   4.220        378.33	    21.307
   4.240        378.33	    21.307
   4.260        323.33	    19.698
   4.280        338.33	    20.149
   4.300        333.33	    20.000
   4.320        350.00	    20.494
   4.340        344.17	    20.322
   4.360        355.83	    20.664
   4.380        372.50	    21.142
   4.400        331.67	    19.950
   4.420        351.67	    20.543
   4.440        334.17	    20.025
   4.460        345.00	    20.347
   4.480        345.00	    20.347
   4.500        324.17	    19.723
   4.520        355.83	    20.664
   4.540        321.67	    19.647
   4.560        330.83	    19.925
   4.580        360.00	    20.785
   4.600        318.33	    19.545
   4.620        345.00	    20.347
   4.640        305.83	    19.157
   4.660        290.83	    18.682
   4.680        300.83	    19.000
   4.700        315.83	    19.468
   4.720        322.50	    19.672
   4.740        310.83	    19.313
   4.760        331.67	    19.950
   4.780        330.00	    19.900
   4.800        309.17	    19.261
   4.820        317.50	    19.519
   4.840        310.83	    19.313
   4.860        306.67	    19.183
   4.880        330.83	    19.925
   4.900        306.67	    19.183
   4.920        287.50	    18.574
   4.940        309.17	    19.261
   4.960        320.83	    19.621
   4.980        285.83	    18.520
   5.000        272.50	    18.083
   5.020        269.17	    17.972
   5.040        310.00	    19.287
   5.060        305.00	    19.131
   5.080        291.67	    18.708
   5.100        307.50	    19.209
   5.120        305.00	    19.131
   5.140        272.50	    18.083
   5.160        263.33	    17.776
   5.180        285.83	    18.520
   5.200        275.00	    18.166
   5.220        295.00	    18.815
   5.240        268.33	    17.944
   5.260        299.17	    18.947
   5.280        285.83	    18.520
   5.300        293.33	    18.762
   5.320        295.83	    18.841
   5.340        299.17	    18.947
   5.360        255.00	    17.493
   5.380        292.50	    18.735
   5.400        301.67	    19.026
   5.420        285.83	    18.520
   5.440        290.00	    18.655
   5.460        295.83	    18.841
   5.480        286.67	    18.547
   5.500        293.33	    18.762
   5.520        296.67	    18.868
   5.540        343.33	    20.298
   5.560        323.33	    19.698
   5.580        365.00	    20.928
   5.600        371.67	    21.119
   5.620        406.67	    22.091
   5.640        416.67	    22.361
   5.660        412.50	    22.249
   5.680        475.00	    23.875
   5.700        521.67	    25.020
   5.720        583.33	    26.458
   5.740        657.50	    28.089
   5.760        756.67	    30.133
   5.780        770.83	    30.414
   5.800        731.67	    29.631
   5.820        626.67	    27.423
   5.840        488.33	    24.207
   5.860        474.17	    23.854
   5.880        486.67	    24.166
   5.900        415.83	    22.338
   5.920        424.17	    22.561
   5.940        401.67	    21.954
   5.960        438.33	    22.935
   5.980        494.17	    24.352
   6.000        487.50	    24.187
   6.020        545.00	    25.573
   6.040        548.33	    25.652
   6.060        632.50	    27.550
   6.080        677.50	    28.513
   6.100        745.83	    29.917
   6.120        548.33	    25.652
   6.140        395.83	    21.794
   6.160        334.17	    20.025
   6.180        300.83	    19.000
   6.200        307.50	    19.209
   6.220        279.17	    18.303
   6.240        271.67	    18.055
   6.260        247.50	    17.234
   6.280        274.17	    18.138
   6.300        255.83	    17.521
   6.320        255.83	    17.521
   6.340        277.50	    18.248
   6.360        269.17	    17.972
   6.380        256.67	    17.550
   6.400        268.33	    17.944
   6.420        247.50	    17.234
   6.440        268.33	    17.944
   6.460        245.83	    17.176
   6.480        257.50	    17.578
   6.500        239.17	    16.941
   6.520        255.83	    17.521
   6.540        238.33	    16.912
   6.560        236.67	    16.852
   6.580        240.00	    16.971
   6.600        242.50	    17.059
   6.620        230.83	    16.643
   6.640        249.17	    17.292
   6.660        219.17	    16.217
   6.680        250.83	    17.349
   6.700        226.67	    16.492
   6.720        235.83	    16.823
   6.740        251.67	    17.378
   6.760        222.50	    16.340
   6.780        225.83	    16.462
   6.800        238.33	    16.912
   6.820        220.00	    16.248
   6.840        215.00	    16.062
   6.860        225.83	    16.462
   6.880        239.17	    16.941
   6.900        220.00	    16.248
   6.920        250.83	    17.349
   6.940        225.00	    16.432
   6.960        221.67	    16.310
   6.980        208.33	    15.811
   7.000        246.67	    17.205
   7.020        195.83	    15.330
   7.040        214.17	    16.031
   7.060        225.00	    16.432
   7.080        188.33	    15.033
   7.100        231.67	    16.673
   7.120        222.50	    16.340
   7.140        220.83	    16.279
   7.160        213.33	    16.000
   7.180        207.50	    15.780
   7.200        218.33	    16.186
   7.220        178.33	    14.629
   7.240        204.17	    15.652
   7.260        196.67	    15.362
   7.280        165.83	    14.107
   7.300        203.33	    15.620
   7.320        206.67	    15.748
   7.340        167.50	    14.177
   7.360        219.17	    16.217
   7.380        183.33	    14.832
   7.400        214.17	    16.031
   7.420        188.33	    15.033
   7.440        217.50	    16.155
   7.460        186.67	    14.967
   7.480        201.67	    15.556
   7.500        172.50	    14.387
   7.520        185.00	    14.900
   7.540        212.50	    15.969
   7.560        189.17	    15.067
   7.580        180.83	    14.731
   7.600        186.67	    14.967
   7.620        195.00	    15.297
   7.640        205.00	    15.684
   7.660        188.33	    15.033
   7.680        177.50	    14.595
   7.700        179.17	    14.663
   7.720        190.83	    15.133
   7.740        185.83	    14.933
   7.760        185.00	    14.900
   7.780        180.00	    14.697
   7.800        174.17	    14.457
   7.820        190.00	    15.100
   7.840        208.33	    15.811
   7.860        162.50	    13.964
   7.880        188.33	    15.033
   7.900        196.67	    15.362
   7.920        188.33	    15.033
   7.940        197.50	    15.395
   7.960        190.00	    15.100
   7.980        185.00	    14.900
   8.000        186.67	    14.967
   8.020        189.17	    15.067
   8.040        194.17	    15.264
   8.060        195.83	    15.330
   8.080        219.17	    16.217
   8.100        175.00	    14.491
   8.120        194.17	    15.264
   8.140        191.67	    15.166
   8.160        207.50	    15.780
   8.180        210.83	    15.906
   8.200        213.33	    16.000
   8.220        210.00	    15.875
   8.240        201.67	    15.556
   8.260        203.33	    15.620
   8.280        218.33	    16.186
   8.300        252.50	    17.407
   8.320        230.83	    16.643
   8.340        244.17	    17.117
   8.360        255.83	    17.521
   8.380        256.67	    17.550
   8.400        265.00	    17.833
   8.420        282.50	    18.412
   8.440        285.83	    18.520
   8.460        314.17	    19.416
   8.480        356.67	    20.688
   8.500        380.83	    21.378
   8.520        448.33	    23.195
   8.540        515.00	    24.860
   8.560        610.83	    27.074
   8.580        602.50	    26.889
   8.600        672.50	    28.408
   8.620        784.17	    30.676
   8.640        876.67	    32.435
   8.660       1220.83	    38.275
   8.680       1819.17	    46.723
   8.700       2556.67	    55.390
   8.720       3507.50	    64.877
   8.740       3825.00	    67.750
   8.760       3069.17	    60.688
   8.780       1710.00	    45.299
   8.800        706.67	    29.120
   8.820        410.83	    22.204
   8.840        323.33	    19.698
   8.860        280.00	    18.330
   8.880        270.83	    18.028
   8.900        265.00	    17.833
   8.920        284.17	    18.466
   8.940        286.67	    18.547
   8.960        263.33	    17.776
   8.980        292.50	    18.735
   9.000        311.67	    19.339
   9.020        294.17	    18.788
   9.040        299.17	    18.947
   9.060        269.17	    17.972
   9.080        222.50	    16.340
   9.100        180.00	    14.697
   9.120        165.00	    14.071
   9.140        188.33	    15.033
   9.160        179.17	    14.663
   9.180        179.17	    14.663
   9.200        182.50	    14.799
   9.220        182.50	    14.799
   9.240        195.83	    15.330
   9.260        227.50	    16.523
   9.280        234.17	    16.763
   9.300        255.83	    17.521
   9.320        235.83	    16.823
   9.340        190.83	    15.133
   9.360        182.50	    14.799
   9.380        169.17	    14.248
   9.400        139.17	    12.923
   9.420        150.00	    13.416
   9.440        174.17	    14.457
   9.460        162.50	    13.964
   9.480        136.67	    12.806
   9.500        162.50	    13.964
   9.520        156.67	    13.711
   9.540        162.50	    13.964
   9.560        154.17	    13.601
   9.580        139.17	    12.923
   9.600        148.33	    13.342
   9.620        154.17	    13.601
   9.640        156.67	    13.711
   9.660        152.50	    13.528
   9.680        145.83	    13.229
   9.700        145.00	    13.191
   9.720        139.17	    12.923
   9.740        148.33	    13.342
   9.760        135.00	    12.728
   9.780        149.17	    13.379
   9.800        130.00	    12.490
   9.820        139.17	    12.923
   9.840        131.67	    12.570
   9.860        133.33	    12.649
   9.880        126.67	    12.329
   9.900        105.00	    11.225
   9.920        135.00	    12.728
   9.940        140.00	    12.961
   9.960        125.00	    12.247
   9.980        142.50	    13.077
  10.000        138.33	    12.884
  10.020        133.33	    12.649
  10.040        138.33	    12.884
  10.060        140.83	    13.000
  10.080        129.17	    12.450
  10.100        141.67	    13.038
  10.120        125.00	    12.247
  10.140        130.00	    12.490
  10.160        130.83	    12.530
  10.180        120.83	    12.042
  10.200        142.50	    13.077
  10.220        132.50	    12.610
  10.240        134.17	    12.689
  10.260        150.83	    13.454
  10.280        150.00	    13.416
  10.300        171.67	    14.353
  10.320        186.67	    14.967
  10.340        219.17	    16.217
  10.360        255.00	    17.493
  10.380        336.67	    20.100
  10.400        316.67	    19.494
  10.420        234.17	    16.763
  10.440        162.50	    13.964
  10.460        140.00	    12.961
  10.480        121.67	    12.083
  10.500        114.17	    11.705
  10.520        149.17	    13.379
  10.540        128.33	    12.410
  10.560        135.00	    12.728
  10.580        126.67	    12.329
  10.600        142.50	    13.077
  10.620        126.67	    12.329
  10.640        107.50	    11.358
  10.660        115.00	    11.747
  10.680        112.50	    11.619
  10.700        113.33	    11.662
  10.720        115.00	    11.747
  10.740        121.67	    12.083
  10.760        110.83	    11.533
  10.780        123.33	    12.166
  10.800        132.50	    12.610
  10.820        115.83	    11.790
  10.840        120.83	    12.042
  10.860        125.83	    12.288
  10.880         99.17	    10.909
  10.900        117.50	    11.874
  10.920        100.00	    10.954
  10.940        115.00	    11.747
  10.960        145.00	    13.191
  10.980        107.50	    11.358
  11.000        115.00	    11.747
  11.020         93.33	    10.583
  11.040        111.67	    11.576
  11.060        134.17	    12.689
  11.080        121.67	    12.083
  11.100        113.33	    11.662
  11.120        125.83	    12.288
  11.140        115.00	    11.747
  11.160        117.50	    11.874
  11.180        130.00	    12.490
  11.200        117.50	    11.874
  11.220        115.00	    11.747
  11.240        108.33	    11.402
  11.260        113.33	    11.662
  11.280        115.00	    11.747
  11.300        105.00	    11.225
  11.320        110.83	    11.533
  11.340        119.17	    11.958
  11.360        109.17	    11.446
  11.380        110.00	    11.489
  11.400        115.83	    11.790
  11.420        110.83	    11.533
  11.440        110.83	    11.533
  11.460        127.50	    12.369
  11.480        111.67	    11.576
  11.500        122.50	    12.124
  11.520        133.33	    12.649
  11.540        101.67	    11.045
  11.560        132.50	    12.610
  11.580        126.67	    12.329
  11.600        126.67	    12.329
  11.620        117.50	    11.874
  11.640        130.83	    12.530
  11.660        138.33	    12.884
  11.680        138.33	    12.884
  11.700        145.83	    13.229
  11.720        166.67	    14.142
  11.740        146.67	    13.266
  11.760        140.00	    12.961
  11.780        114.17	    11.705
  11.800        151.67	    13.491
  11.820        145.00	    13.191
  11.840        145.00	    13.191
  11.860        156.67	    13.711
  11.880        173.33	    14.422
  11.900        171.67	    14.353
  11.920        178.33	    14.629
  11.940        264.17	    17.804
  11.960        335.00	    20.050
  11.980        475.83	    23.896
  12.000        707.50	    29.138
  12.020        925.00	    33.317
  12.040        985.00	    34.380
  12.060        850.00	    31.937
  12.080        567.50	    26.096
  12.100        402.50	    21.977
  12.120        308.33	    19.235
  12.140        302.50	    19.053
  12.160        330.00	    19.900
  12.180        385.00	    21.494
  12.200        375.83	    21.237
  12.220        440.83	    23.000
  12.240        413.33	    22.271
  12.260        432.50	    22.782
  12.280        529.17	    25.199
  12.300        679.17	    28.548
  12.320        995.83	    34.569
  12.340       1387.50	    40.804
  12.360       1364.17	    40.460
  12.380       1056.67	    35.609
  12.400        663.33	    28.213
  12.420        310.83	    19.313
  12.440        215.83	    16.093
  12.460        160.00	    13.856
  12.480        164.17	    14.036
  12.500        144.17	    13.153
  12.520        145.00	    13.191
  12.540        143.33	    13.115
  12.560        124.17	    12.207
  12.580        127.50	    12.369
  12.600        109.17	    11.446
  12.620        125.83	    12.288
  12.640        119.17	    11.958
  12.660        105.00	    11.225
  12.680        110.00	    11.489
  12.700         86.67	    10.198
  12.720         85.00	    10.100
  12.740        102.50	    11.091
  12.760         85.00	    10.100
  12.780         97.50	    10.817
  12.800        109.17	    11.446
  12.820        112.50	    11.619
  12.840        105.83	    11.269
  12.860        102.50	    11.091
  12.880        103.33	    11.136
  12.900         90.83	    10.440
  12.920         97.50	    10.817
  12.940         90.83	    10.440
  12.960        111.67	    11.576
  12.980        110.00	    11.489
  13.000        100.00	    10.954
  13.020        104.17	    11.180
  13.040         96.67	    10.770
  13.060         95.00	    10.677
  13.080        106.67	    11.314
  13.100         98.33	    10.863
  13.120         96.67	    10.770
  13.140        105.83	    11.269
  13.160        115.83	    11.790
  13.180        103.33	    11.136
  13.200        104.17	    11.180
  13.220        109.17	    11.446
  13.240         76.67	     9.592
  13.260         92.50	    10.536
  13.280        115.83	    11.790
  13.300        100.00	    10.954
  13.320         83.33	    10.000
  13.340        101.67	    11.045
  13.360         95.83	    10.724
  13.380         82.50	     9.950
  13.400        100.83	    11.000
  13.420        101.67	    11.045
  13.440        110.00	    11.489
  13.460        101.67	    11.045
  13.480        108.33	    11.402
  13.500        115.83	    11.790
  13.520        115.83	    11.790
  13.540        123.33	    12.166
  13.560         81.67	     9.899
  13.580         92.50	    10.536
  13.600         99.17	    10.909
  13.620        112.50	    11.619
  13.640        137.50	    12.845
  13.660        155.00	    13.638
  13.680        137.50	    12.845
  13.700        137.50	    12.845
  13.720        139.17	    12.923
  13.740        108.33	    11.402
  13.760        111.67	    11.576
  13.780        108.33	    11.402
  13.800        105.83	    11.269
  13.820         87.50	    10.247
  13.840         96.67	    10.770
  13.860        115.00	    11.747
  13.880        112.50	    11.619
  13.900        106.67	    11.314
  13.920        120.00	    12.000
  13.940        105.00	    11.225
  13.960        100.00	    10.954
  13.980         95.83	    10.724
  14.000         85.00	    10.100
  14.020         99.17	    10.909
  14.040         71.67	     9.274
  14.060         80.83	     9.849
  14.080         73.33	     9.381
  14.100         75.00	     9.487
  14.120         81.67	     9.899
  14.140         75.00	     9.487
  14.160         85.83	    10.149
  14.180         90.00	    10.392
  14.200         66.67	     8.944
  14.220         71.67	     9.274
  14.240         79.17	     9.747
  14.260         65.00	     8.832
  14.280         76.67	     9.592
  14.300         91.67	    10.488
  14.320         82.50	     9.950
  14.340         72.50	     9.327
  14.360         68.33	     9.055
  14.380         82.50	     9.950
  14.400         94.17	    10.630
  14.420         75.83	     9.539
  14.440         81.67	     9.899
  14.460         80.00	     9.798
  14.480         67.50	     9.000
  14.500         80.00	     9.798
  14.520         82.50	     9.950
  14.540         94.17	    10.630
  14.560         76.67	     9.592
  14.580         70.00	     9.165
  14.600         79.17	     9.747
  14.620         79.17	     9.747
  14.640         75.00	     9.487
  14.660         84.17	    10.050
  14.680         84.17	    10.050
  14.700         72.50	     9.327
  14.720         74.17	     9.434
  14.740         76.67	     9.592
  14.760         81.67	     9.899
  14.780         83.33	    10.000
  14.800         74.17	     9.434
  14.820         98.33	    10.863
  14.840         81.67	     9.899
  14.860        113.33	    11.662
  14.880         62.50	     8.660
  14.900         86.67	    10.198
  14.920         83.33	    10.000
  14.940         90.83	    10.440
  14.960         85.83	    10.149
  14.980         72.50	     9.327
  15.000         89.17	    10.344
  15.020         88.33	    10.296
  15.040         74.17	     9.434
  15.060         65.83	     8.888
  15.080         75.83	     9.539
  15.100         74.17	     9.434
  15.120         77.50	     9.644
  15.140         75.83	     9.539
  15.160         66.67	     8.944
  15.180         55.83	     8.185
  15.200         83.33	    10.000
  15.220         80.00	     9.798
  15.240         65.00	     8.832
  15.260         73.33	     9.381
  15.280         80.00	     9.798
  15.300         76.67	     9.592
  15.320         70.83	     9.220
  15.340         55.00	     8.124
  15.360         62.50	     8.660
  15.380         65.00	     8.832
  15.400         70.00	     9.165
  15.420         60.83	     8.544
  15.440         59.17	     8.426
  15.460         75.00	     9.487
  15.480         56.67	     8.246
  15.500         69.17	     9.110
  15.520         78.33	     9.695
  15.540         84.17	    10.050
  15.560         72.50	     9.327
  15.580         76.67	     9.592
  15.600         55.83	     8.185
  15.620         74.17	     9.434
  15.640         61.67	     8.602
  15.660         78.33	     9.695
  15.680         80.83	     9.849
  15.700         90.83	    10.440
  15.720         81.67	     9.899
  15.740         75.83	     9.539
  15.760         67.50	     9.000
  15.780         79.17	     9.747
  15.800         68.33	     9.055
  15.820         59.17	     8.426
  15.840         74.17	     9.434
  15.860         79.17	     9.747
  15.880         64.17	     8.775
  15.900         80.00	     9.798
  15.920         84.17	    10.050
  15.940         72.50	     9.327
  15.960         68.33	     9.055
  15.980         77.50	     9.644
  16.000         72.50	     9.327
  16.020         74.17	     9.434
  16.040         82.50	     9.950
  16.060         78.33	     9.695
  16.080         69.17	     9.110
  16.100         67.50	     9.000
  16.120         73.33	     9.381
  16.140         64.17	     8.775
  16.160         80.00	     9.798
  16.180         67.50	     9.000
  16.200         89.17	    10.344
  16.220         65.83	     8.888
  16.240         72.50	     9.327
  16.260         83.33	    10.000
  16.280         74.17	     9.434
  16.300         65.00	     8.832
  16.320         67.50	     9.000
  16.340         77.50	     9.644
  16.360         66.67	     8.944
  16.380         56.67	     8.246
  16.400         78.33	     9.695
  16.420         75.00	     9.487
  16.440         60.00	     8.485
  16.460         65.83	     8.888
  16.480         90.83	    10.440
  16.500         61.67	     8.602
  16.520         72.50	     9.327
  16.540         77.50	     9.644
  16.560         69.17	     9.110
  16.580         66.67	     8.944
  16.600         70.83	     9.220
  16.620         73.33	     9.381
  16.640         79.17	     9.747
  16.660         78.33	     9.695
  16.680         70.00	     9.165
  16.700         73.33	     9.381
  16.720         58.33	     8.367
  16.740         59.17	     8.426
  16.760         70.83	     9.220
  16.780         71.67	     9.274
  16.800         68.33	     9.055
  16.820         78.33	     9.695
  16.840         81.67	     9.899
  16.860         72.50	     9.327
  16.880         77.50	     9.644
  16.900         61.67	     8.602
  16.920         91.67	    10.488
  16.940         74.17	     9.434
  16.960         82.50	     9.950
  16.980         61.67	     8.602
  17.000         76.67	     9.592
  17.020         68.33	     9.055
  17.040         80.00	     9.798
  17.060         74.17	     9.434
  17.080         60.83	     8.544
  17.100         81.67	     9.899
  17.120         73.33	     9.381
  17.140         72.50	     9.327
  17.160         59.17	     8.426
  17.180         80.83	     9.849
  17.200         75.00	     9.487
  17.220         77.50	     9.644
  17.240         85.83	    10.149
  17.260         63.33	     8.718
  17.280         95.83	    10.724
  17.300         80.00	     9.798
  17.320         85.00	    10.100
  17.340         78.33	     9.695
  17.360         85.00	    10.100
  17.380         76.67	     9.592
  17.400         80.83	     9.849
  17.420         96.67	    10.770
  17.440         90.83	    10.440
  17.460        112.50	    11.619
  17.480        104.17	    11.180
  17.500        119.17	    11.958
  17.520        102.50	    11.091
  17.540        153.33	    13.565
  17.560        187.50	    15.000
  17.580        287.50	    18.574
  17.600        436.67	    22.891
  17.620        605.00	    26.944
  17.640        837.50	    31.702
  17.660       1146.67	    37.094
  17.680       1307.50	    39.611
  17.700       1198.33	    37.921
  17.720        891.67	    32.711
  17.740        581.67	    26.420
  17.760        300.00	    18.974
  17.780        207.50	    15.780
  17.800        120.83	    12.042
  17.820        139.17	    12.923
  17.840        113.33	    11.662
  17.860        110.00	    11.489
  17.880        100.00	    10.954
  17.900         96.67	    10.770
  17.920        108.33	    11.402
  17.940         89.17	    10.344
  17.960         79.17	     9.747
  17.980         88.33	    10.296
  18.000         84.17	    10.050
  18.020         80.00	     9.798
  18.040         91.67	    10.488
  18.060         71.67	     9.274
  18.080         98.33	    10.863
  18.100         83.33	    10.000
  18.120         82.50	     9.950
  18.140         85.00	    10.100
  18.160         96.67	    10.770
  18.180         84.17	    10.050
  18.200        101.67	    11.045
  18.220        105.83	    11.269
  18.240        129.17	    12.450
  18.260        127.50	    12.369
  18.280        122.50	    12.124
  18.300        129.17	    12.450
  18.320        112.50	    11.619
  18.340        105.00	    11.225
  18.360        150.83	    13.454
  18.380        168.33	    14.213
  18.400        176.67	    14.560
  18.420        179.17	    14.663
  18.440        151.67	    13.491
  18.460        161.67	    13.928
  18.480        145.00	    13.191
  18.500        126.67	    12.329
  18.520        135.83	    12.767
  18.540        155.00	    13.638
  18.560        184.17	    14.866
  18.580        247.50	    17.234
  18.600        310.00	    19.287
  18.620        397.50	    21.840
  18.640        496.67	    24.413
  18.660        471.67	    23.791
  18.680        416.67	    22.361
  18.700        303.33	    19.079
  18.720        212.50	    15.969
  18.740        132.50	    12.610
  18.760        100.00	    10.954
  18.780         90.83	    10.440
  18.800         95.83	    10.724
  18.820         90.00	    10.392
  18.840         91.67	    10.488
  18.860         82.50	     9.950
  18.880         91.67	    10.488
  18.900         81.67	     9.899
  18.920         80.83	     9.849
  18.940         75.83	     9.539
  18.960         87.50	    10.247
  18.980         87.50	    10.247
  19.000         75.83	     9.539
  19.020         99.17	    10.909
  19.040         96.67	    10.770
  19.060         79.17	     9.747
  19.080         69.17	     9.110
  19.100         85.83	    10.149
  19.120         80.83	     9.849
  19.140         65.00	     8.832
  19.160         84.17	    10.050
  19.180         96.67	    10.770
  19.200         81.67	     9.899
  19.220         85.83	    10.149
  19.240         74.17	     9.434
  19.260         71.67	     9.274
  19.280         85.00	    10.100
  19.300         80.00	     9.798
  19.320         68.33	     9.055
  19.340         69.17	     9.110
  19.360         79.17	     9.747
  19.380         65.00	     8.832
  19.400         76.67	     9.592
  19.420         86.67	    10.198
  19.440         85.83	    10.149
  19.460         92.50	    10.536
  19.480         90.00	    10.392
  19.500        100.00	    10.954
  19.520         99.17	    10.909
  19.540        118.33	    11.916
  19.560        111.67	    11.576
  19.580        116.67	    11.832
  19.600        116.67	    11.832
  19.620         98.33	    10.863
  19.640        133.33	    12.649
  19.660        139.17	    12.923
  19.680        120.83	    12.042
  19.700        127.50	    12.369
  19.720        134.17	    12.689
  19.740        110.00	    11.489
  19.760         95.83	    10.724
  19.780         89.17	    10.344
  19.800         71.67	     9.274
  19.820         78.33	     9.695
  19.840         90.00	    10.392
  19.860         85.83	    10.149
  19.880         75.83	     9.539
  19.900         76.67	     9.592
  19.920         77.50	     9.644
  19.940         55.83	     8.185
  19.960         76.67	     9.592
  19.980         69.17	     9.110
  20.000         80.00	     9.798
  20.020         76.67	     9.592
  20.040         65.00	     8.832
  20.060         68.33	     9.055
  20.080         72.50	     9.327
  20.100         70.00	     9.165
  20.120         55.00	     8.124
  20.140         86.67	    10.198
  20.160         77.50	     9.644
  20.180         49.17	     7.681
  20.200         65.00	     8.832
  20.220         75.00	     9.487
  20.240         60.83	     8.544
  20.260         74.17	     9.434
  20.280         81.67	     9.899
  20.300         66.67	     8.944
  20.320         75.00	     9.487
  20.340         71.67	     9.274
  20.360         70.83	     9.220
  20.380         69.17	     9.110
  20.400         74.17	     9.434
  20.420         83.33	    10.000
  20.440         90.83	    10.440
  20.460         87.50	    10.247
  20.480        100.00	    10.954
  20.500        101.67	    11.045
  20.520         99.17	    10.909
  20.540         87.50	    10.247
  20.560        119.17	    11.958
  20.580         95.00	    10.677
  20.600        115.00	    11.747
  20.620        218.33	    16.186
  20.640        508.33	    24.698
  20.660        673.33	    28.425
  20.680        867.50	    32.265
  20.700        832.50	    31.607
  20.720        715.83	    29.309
  20.740        515.00	    24.860
  20.760        360.83	    20.809
  20.780        229.17	    16.583
  20.800        161.67	    13.928
  20.820        143.33	    13.115
  20.840        134.17	    12.689
  20.860        125.00	    12.247
  20.880        128.33	    12.410
  20.900        106.67	    11.314
  20.920        105.00	    11.225
  20.940        111.67	    11.576
  20.960         95.83	    10.724
  20.980         77.50	     9.644
  21.000         81.67	     9.899
  21.020         80.83	     9.849
  21.040         63.33	     8.718
  21.060         72.50	     9.327
  21.080         65.00	     8.832
  21.100         76.67	     9.592
  21.120         72.50	     9.327
  21.140         75.83	     9.539
  21.160         61.67	     8.602
  21.180         57.50	     8.307
  21.200         71.67	     9.274
  21.220         61.67	     8.602
  21.240         62.50	     8.660
  21.260         64.17	     8.775
  21.280         60.00	     8.485
  21.300         67.50	     9.000
  21.320         73.33	     9.381
  21.340         66.67	     8.944
  21.360         61.67	     8.602
  21.380         69.17	     9.110
  21.400         78.33	     9.695
  21.420         61.67	     8.602
  21.440         77.50	     9.644
  21.460         70.83	     9.220
  21.480         66.67	     8.944
  21.500         77.50	     9.644
  21.520         75.00	     9.487
  21.540         62.50	     8.660
  21.560         68.33	     9.055
  21.580         72.50	     9.327
  21.600         75.00	     9.487
  21.620         65.00	     8.832
  21.640         67.50	     9.000
  21.660         50.83	     7.810
  21.680         70.83	     9.220
  21.700         80.00	     9.798
  21.720         72.50	     9.327
  21.740         66.67	     8.944
  21.760         81.67	     9.899
  21.780         75.00	     9.487
  21.800        105.00	    11.225
  21.820        145.00	    13.191
  21.840        220.00	    16.248
  21.860        307.50	    19.209
  21.880        387.50	    21.564
  21.900        355.00	    20.640
  21.920        293.33	    18.762
  21.940        235.83	    16.823
  21.960        184.17	    14.866
  21.980        124.17	    12.207
  22.000         78.33	     9.695
  22.020         70.00	     9.165
  22.040         80.00	     9.798
  22.060         95.83	    10.724
  22.080         76.67	     9.592
  22.100         85.83	    10.149
  22.120         62.50	     8.660
  22.140         66.67	     8.944
  22.160         64.17	     8.775
  22.180         72.50	     9.327
  22.200         76.67	     9.592
  22.220         66.67	     8.944
  22.240         68.33	     9.055
  22.260         73.33	     9.381
  22.280         60.83	     8.544
  22.300         55.83	     8.185
  22.320         65.83	     8.888
  22.340         84.17	    10.050
  22.360         69.17	     9.110
  22.380         73.33	     9.381
  22.400         72.50	     9.327
  22.420         63.33	     8.718
  22.440         84.17	    10.050
  22.460         67.50	     9.000
  22.480         60.00	     8.485
  22.500         58.33	     8.367
  22.520         65.83	     8.888
  22.540         70.83	     9.220
  22.560         65.83	     8.888
  22.580         57.50	     8.307
  22.600         72.50	     9.327
  22.620         69.17	     9.110
  22.640         80.00	     9.798
  22.660         72.50	     9.327
  22.680         94.17	    10.630
  22.700        123.33	    12.166
  22.720        135.83	    12.767
  22.740        119.17	    11.958
  22.760        114.17	    11.705
  22.780        118.33	    11.916
  22.800        108.33	    11.402
  22.820        105.00	    11.225
  22.840        117.50	    11.874
  22.860        140.83	    13.000
  22.880        163.33	    14.000
  22.900        172.50	    14.387
  22.920        185.00	    14.900
  22.940        143.33	    13.115
  22.960        121.67	    12.083
  22.980        102.50	    11.091
  23.000         91.67	    10.488
  23.020         66.67	     8.944
  23.040         74.17	     9.434
  23.060         69.17	     9.110
  23.080         60.83	     8.544
  23.100         71.67	     9.274
  23.120         64.17	     8.775
  23.140         81.67	     9.899
  23.160         70.83	     9.220
  23.180         69.17	     9.110
  23.200         65.00	     8.832
  23.220         65.00	     8.832
  23.240         71.67	     9.274
  23.260         63.33	     8.718
  23.280         79.17	     9.747
  23.300        109.17	    11.446
  23.320        133.33	    12.649
  23.340        189.17	    15.067
  23.360        216.67	    16.125
  23.380        165.83	    14.107
  23.400        193.33	    15.232
  23.420        161.67	    13.928
  23.440        163.33	    14.000
  23.460        145.83	    13.229
  23.480        118.33	    11.916
  23.500        107.50	    11.358
  23.520        114.17	    11.705
  23.540         89.17	    10.344
  23.560         85.00	    10.100
  23.580         88.33	    10.296
  23.600         85.00	    10.100
  23.620        118.33	    11.916
  23.640        109.17	    11.446
  23.660        116.67	    11.832
  23.680        133.33	    12.649
  23.700        100.83	    11.000
  23.720        101.67	    11.045
  23.740        110.00	    11.489
  23.760         92.50	    10.536
  23.780        105.00	    11.225
  23.800         98.33	    10.863
  23.820        105.00	    11.225
  23.840        117.50	    11.874
  23.860        125.00	    12.247
  23.880         97.50	    10.817
  23.900        110.00	    11.489
  23.920        108.33	    11.402
  23.940        130.83	    12.530
  23.960        175.00	    14.491
  23.980        202.50	    15.588
  24.000        255.83	    17.521
  24.020        213.33	    16.000
  24.040        209.17	    15.843
  24.060        207.50	    15.780
  24.080        225.83	    16.462
  24.100        236.67	    16.852
  24.120        313.33	    19.391
  24.140        395.00	    21.772
  24.160        271.67	    18.055
  24.180        215.00	    16.062
  24.200        252.50	    17.407
  24.220        189.17	    15.067
  24.240        130.00	    12.490
  24.260        110.83	    11.533
  24.280         99.17	    10.909
  24.300        126.67	    12.329
  24.320        115.83	    11.790
  24.340        145.00	    13.191
  24.360        181.67	    14.765
  24.380        222.50	    16.340
  24.400        275.83	    18.193
  24.420        308.33	    19.235
  24.440        345.83	    20.372
  24.460        400.00	    21.909
  24.480        436.67	    22.891
  24.500        436.67	    22.891
  24.520        378.33	    21.307
  24.540        344.17	    20.322
  24.560        311.67	    19.339
  24.580        253.33	    17.436
  24.600        234.17	    16.763
  24.620        206.67	    15.748
  24.640        212.50	    15.969
  24.660        196.67	    15.362
  24.680        210.00	    15.875
  24.700        166.67	    14.142
  24.720        188.33	    15.033
  24.740        152.50	    13.528
  24.760        173.33	    14.422
  24.780        150.00	    13.416
  24.800        162.50	    13.964
  24.820        167.50	    14.177
  24.840        150.00	    13.416
  24.860        177.50	    14.595
  24.880        235.83	    16.823
  24.900        259.17	    17.635
  24.920        334.17	    20.025
  24.940        388.33	    21.587
  24.960        526.67	    25.140
  24.980        700.00	    28.983
  25.000        831.67	    31.591
  25.020        875.83	    32.419
  25.040        800.83	    31.000
  25.060        733.33	    29.665
  25.080        578.33	    26.344
  25.100        419.17	    22.428
  25.120        300.83	    19.000
  25.140        213.33	    16.000
  25.160        173.33	    14.422
  25.180        142.50	    13.077
  25.200        168.33	    14.213
  25.220        195.83	    15.330
  25.240        169.17	    14.248
  25.260        200.83	    15.524
  25.280        165.00	    14.071
  25.300        193.33	    15.232
  25.320        200.83	    15.524
  25.340        220.00	    16.248
  25.360        222.50	    16.340
  25.380        211.67	    15.937
  25.400        203.33	    15.620
  25.420        195.00	    15.297
  25.440        158.33	    13.784
  25.460        154.17	    13.601
  25.480        151.67	    13.491
  25.500        141.67	    13.038
  25.520        116.67	    11.832
  25.540        145.00	    13.191
  25.560        143.33	    13.115
  25.580        137.50	    12.845
  25.600        114.17	    11.705
  25.620        125.00	    12.247
  25.640         95.00	    10.677
  25.660        115.83	    11.790
  25.680         94.17	    10.630
  25.700        109.17	    11.446
  25.720        100.00	    10.954
  25.740        109.17	    11.446
  25.760        105.83	    11.269
  25.780        108.33	    11.402
  25.800         99.17	    10.909
  25.820         91.67	    10.488
  25.840         96.67	    10.770
  25.860        100.00	    10.954
  25.880        104.17	    11.180
  25.900        109.17	    11.446
  25.920         98.33	    10.863
  25.940        102.50	    11.091
  25.960        105.83	    11.269
  25.980         95.00	    10.677
  26.000        100.83	    11.000
  26.020        116.67	    11.832
  26.040        130.00	    12.490
  26.060        130.00	    12.490
  26.080        128.33	    12.410
  26.100        144.17	    13.153
  26.120        147.50	    13.304
  26.140        182.50	    14.799
  26.160        190.83	    15.133
  26.180        185.83	    14.933
  26.200        244.17	    17.117
  26.220        266.67	    17.889
  26.240        317.50	    19.519
  26.260        381.67	    21.401
  26.280        419.17	    22.428
  26.300        425.00	    22.583
  26.320        436.67	    22.891
  26.340        544.17	    25.554
  26.360        559.17	    25.904
  26.380        687.50	    28.723
  26.400        928.33	    33.377
  26.420       1576.67	    43.497
  26.440       3196.67	    61.935
  26.460       5755.00	    83.102
  26.480       7396.67	    94.213
  26.500       6295.00	    86.914
  26.520       4611.67	    74.391
  26.540       4250.83	    71.421
  26.560       3582.50	    65.567
  26.580       2009.17	    49.102
  26.600       1112.50	    36.538
  26.620        991.67	    34.496
  26.640       1190.00	    37.789
  26.660       1505.83	    42.509
  26.680       2283.33	    52.345
  26.700       3056.67	    60.564
  26.720       3445.83	    64.304
  26.740       3209.17	    62.056
  26.760       2913.33	    59.127
  26.780       2416.67	    53.852
  26.800       1907.50	    47.843
  26.820       1315.00	    39.724
  26.840        910.00	    33.045
  26.860        568.33	    26.115
  26.880        441.67	    23.022
  26.900        344.17	    20.322
  26.920        260.00	    17.664
  26.940        273.33	    18.111
  26.960        216.67	    16.125
  26.980        209.17	    15.843
  27.000        168.33	    14.213
  27.020        147.50	    13.304
  27.040        149.17	    13.379
  27.060        157.50	    13.748
  27.080        133.33	    12.649
  27.100        149.17	    13.379
  27.120        161.67	    13.928
  27.140        133.33	    12.649
  27.160        155.83	    13.675
  27.180        155.83	    13.675
  27.200        173.33	    14.422
  27.220        174.17	    14.457
  27.240        240.00	    16.971
  27.260        285.83	    18.520
  27.280        371.67	    21.119
  27.300        530.00	    25.219
  27.320        755.00	    30.100
  27.340       1013.33	    34.871
  27.360       1000.00	    34.641
  27.380        805.83	    31.097
  27.400        693.33	    28.844
  27.420        609.17	    27.037
  27.440        488.33	    24.207
  27.460        361.67	    20.833
  27.480        293.33	    18.762
  27.500        326.67	    19.799
  27.520        687.50	    28.723
  27.540       1234.17	    38.484
  27.560        944.17	    33.660
  27.580        673.33	    28.425
  27.600        795.00	    30.887
  27.620        838.33	    31.718
  27.640        617.50	    27.221
  27.660        517.50	    24.920
  27.680        503.33	    24.576
  27.700        486.67	    24.166
  27.720        559.17	    25.904
  27.740        651.67	    27.964
  27.760        726.67	    29.530
  27.780        751.67	    30.033
  27.800        756.67	    30.133
  27.820        659.17	    28.125
  27.840        572.50	    26.211
  27.860        431.67	    22.760
  27.880        350.83	    20.518
  27.900        317.50	    19.519
  27.920        240.83	    17.000
  27.940        197.50	    15.395
  27.960        215.83	    16.093
  27.980        195.00	    15.297
  28.000        205.00	    15.684
  28.020        209.17	    15.843
  28.040        192.50	    15.199
  28.060        204.17	    15.652
  28.080        271.67	    18.055
  28.100        337.50	    20.125
  28.120        482.50	    24.062
  28.140        560.83	    25.942
  28.160        394.17	    21.749
  28.180        309.17	    19.261
  28.200        335.00	    20.050
  28.220        280.83	    18.358
  28.240        167.50	    14.177
  28.260        128.33	    12.410
  28.280        112.50	    11.619
  28.300        103.33	    11.136
  28.320        124.17	    12.207
  28.340        115.83	    11.790
  28.360        108.33	    11.402
  28.380        126.67	    12.329
  28.400        157.50	    13.748
  28.420        157.50	    13.748
  28.440        148.33	    13.342
  28.460        186.67	    14.967
  28.480        211.67	    15.937
  28.500        183.33	    14.832
  28.520        169.17	    14.248
  28.540        190.83	    15.133
  28.560        142.50	    13.077
  28.580        153.33	    13.565
  28.600        109.17	    11.446
  28.620        123.33	    12.166
  28.640         92.50	    10.536
  28.660         72.50	     9.327
  28.680         77.50	     9.644
  28.700         82.50	     9.950
  28.720         76.67	     9.592
  28.740         80.00	     9.798
  28.760         85.00	    10.100
  28.780         85.00	    10.100
  28.800         71.67	     9.274
  28.820         71.67	     9.274
  28.840         68.33	     9.055
  28.860         75.83	     9.539
  28.880         71.67	     9.274
  28.900         50.83	     7.810
  28.920         70.83	     9.220
  28.940         68.33	     9.055
  28.960         82.50	     9.950
  28.980         69.17	     9.110
  29.000         65.83	     8.888
  29.020         69.17	     9.110
  29.040         65.83	     8.888
  29.060         66.67	     8.944
  29.080         61.67	     8.602
  29.100         67.50	     9.000
  29.120         59.17	     8.426
  29.140         76.67	     9.592
  29.160         54.17	     8.062
  29.180         65.00	     8.832
  29.200         74.17	     9.434
  29.220         81.67	     9.899
  29.240         65.83	     8.888
  29.260         62.50	     8.660
  29.280         78.33	     9.695
  29.300         70.83	     9.220
  29.320         57.50	     8.307
  29.340         62.50	     8.660
  29.360         74.17	     9.434
  29.380         78.33	     9.695
  29.400         77.50	     9.644
  29.420         68.33	     9.055
  29.440         82.50	     9.950
  29.460         83.33	    10.000
  29.480         91.67	    10.488
  29.500         94.17	    10.630
  29.520         78.33	     9.695
  29.540        105.00	    11.225
  29.560        111.67	    11.576
  29.580        125.00	    12.247
  29.600        133.33	    12.649
  29.620        153.33	    13.565
  29.640        181.67	    14.765
  29.660        171.67	    14.353
  29.680        190.83	    15.133
  29.700        221.67	    16.310
  29.720        190.00	    15.100
  29.740        201.67	    15.556
  29.760        190.00	    15.100
  29.780        188.33	    15.033
  29.800        172.50	    14.387
  29.820        147.50	    13.304
  29.840        149.17	    13.379
  29.860        126.67	    12.329
  29.880        173.33	    14.422
  29.900        147.50	    13.304
  29.920        138.33	    12.884
  29.940        138.33	    12.884
  29.960        124.17	    12.207
  29.980        100.00	    10.954
  30.000        100.83	    11.000
  30.020        101.67	    11.045
  30.040        113.33	    11.662
  30.060        153.33	    13.565
  30.080        153.33	    13.565
  30.100        147.50	    13.304
  30.120        108.33	    11.402
  30.140        135.83	    12.767
  30.160        105.83	    11.269
  30.180        118.33	    11.916
  30.200        103.33	    11.136
  30.220        101.67	    11.045
  30.240        121.67	    12.083
  30.260        131.67	    12.570
  30.280        140.83	    13.000
  30.300        160.83	    13.892
  30.320        177.50	    14.595
  30.340        128.33	    12.410
  30.360        135.00	    12.728
  30.380        116.67	    11.832
  30.400        115.00	    11.747
  30.420         99.17	    10.909
  30.440        105.00	    11.225
  30.460         70.83	     9.220
  30.480         72.50	     9.327
  30.500         69.17	     9.110
  30.520         62.50	     8.660
  30.540         93.33	    10.583
  30.560         88.33	    10.296
  30.580         93.33	    10.583
  30.600         90.83	    10.440
  30.620        103.33	    11.136
  30.640        106.67	    11.314
  30.660        110.00	    11.489
  30.680        136.67	    12.806
  30.700        176.67	    14.560
  30.720        180.83	    14.731
  30.740        162.50	    13.964
  30.760        274.17	    18.138
  30.780        546.67	    25.612
  30.800        868.33	    32.280
  30.820        754.17	    30.083
  30.840        408.33	    22.136
  30.860        321.67	    19.647
  30.880        456.67	    23.409
  30.900        458.33	    23.452
  30.920        222.50	    16.340
  30.940        128.33	    12.410
  30.960        130.00	    12.490
  30.980        151.67	    13.491
  31.000        187.50	    15.000
  31.020        187.50	    15.000
  31.040        187.50	    15.000
  31.060        184.17	    14.866
  31.080        189.17	    15.067
  31.100        213.33	    16.000
  31.120        172.50	    14.387
  31.140        150.00	    13.416
  31.160        105.83	    11.269
  31.180        139.17	    12.923
  31.200        119.17	    11.958
  31.220         97.50	    10.817
  31.240        103.33	    11.136
  31.260        100.83	    11.000
  31.280         90.83	    10.440
  31.300         80.83	     9.849
  31.320        108.33	    11.402
  31.340        116.67	    11.832
  31.360        137.50	    12.845
  31.380        112.50	    11.619
  31.400        135.00	    12.728
  31.420        160.83	    13.892
  31.440        180.00	    14.697
  31.460        199.17	    15.460
  31.480        153.33	    13.565
  31.500        152.50	    13.528
  31.520        148.33	    13.342
  31.540        154.17	    13.601
  31.560        111.67	    11.576
  31.580         93.33	    10.583
  31.600         87.50	    10.247
  31.620         90.83	    10.440
  31.640         84.17	    10.050
  31.660        110.83	    11.533
  31.680        245.83	    17.176
  31.700        420.00	    22.450
  31.720        442.50	    23.043
  31.740        318.33	    19.545
  31.760        216.67	    16.125
  31.780        234.17	    16.763
  31.800        262.50	    17.748
  31.820        254.17	    17.464
  31.840        158.33	    13.784
  31.860        140.00	    12.961
  31.880        138.33	    12.884
  31.900        141.67	    13.038
  31.920        128.33	    12.410
  31.940        155.83	    13.675
  31.960        131.67	    12.570
  31.980        122.50	    12.124
  32.000        114.17	    11.705
  32.020        109.17	    11.446
  32.040         88.33	    10.296
  32.060         87.50	    10.247
  32.080         75.00	     9.487
  32.100         77.50	     9.644
  32.120         65.83	     8.888
  32.140         55.83	     8.185
  32.160         52.50	     7.937
  32.180         62.50	     8.660
  32.200         56.67	     8.246
  32.220         59.17	     8.426
  32.240         36.67	     6.633
  32.260         49.17	     7.681
  32.280         45.83	     7.416
  32.300         37.50	     6.708
  32.320         54.17	     8.062
  32.340         43.33	     7.211
  32.360         43.33	     7.211
  32.380         47.50	     7.550
  32.400         45.83	     7.416
  32.420         46.67	     7.483
  32.440         45.00	     7.348
  32.460         41.67	     7.071
  32.480         41.67	     7.071
  32.500         48.33	     7.616
  32.520         51.67	     7.874
  32.540         43.33	     7.211
  32.560         52.50	     7.937
  32.580         54.17	     8.062
  32.600         36.67	     6.633
  32.620         45.00	     7.348
  32.640         41.67	     7.071
  32.660         42.50	     7.141
  32.680         34.17	     6.403
  32.700         43.33	     7.211
  32.720         43.33	     7.211
  32.740         40.00	     6.928
  32.760         63.33	     8.718
  32.780         46.67	     7.483
  32.800         51.67	     7.874
  32.820         42.50	     7.141
  32.840         55.83	     8.185
  32.860         55.00	     8.124
  32.880         65.00	     8.832
  32.900         77.50	     9.644
  32.920         69.17	     9.110
  32.940         67.50	     9.000
  32.960         65.83	     8.888
  32.980         60.83	     8.544
  33.000         66.67	     8.944
  33.020         56.67	     8.246
  33.040         54.17	     8.062
  33.060         40.83	     7.000
  33.080         48.33	     7.616
  33.100         59.17	     8.426
  33.120         50.00	     7.746
  33.140         42.50	     7.141
  33.160         38.33	     6.782
  33.180         50.00	     7.746
  33.200         57.50	     8.307
  33.220         57.50	     8.307
  33.240         56.67	     8.246
  33.260         55.83	     8.185
  33.280         50.83	     7.810
  33.300         44.17	     7.280
  33.320         47.50	     7.550
  33.340         41.67	     7.071
  33.360         62.50	     8.660
  33.380         52.50	     7.937
  33.400         53.33	     8.000
  33.420         43.33	     7.211
  33.440         45.83	     7.416
  33.460         66.67	     8.944
  33.480         59.17	     8.426
  33.500         37.50	     6.708
  33.520         57.50	     8.307
  33.540         56.67	     8.246
  33.560         40.83	     7.000
  33.580         50.00	     7.746
  33.600         74.17	     9.434
  33.620         87.50	    10.247
  33.640        103.33	    11.136
  33.660         84.17	    10.050
  33.680         72.50	     9.327
  33.700         70.83	     9.220
  33.720         99.17	    10.909
  33.740        131.67	    12.570
  33.760        161.67	    13.928
  33.780        111.67	    11.576
  33.800        102.50	    11.091
  33.820         84.17	    10.050
  33.840        105.00	    11.225
  33.860        102.50	    11.091
  33.880         88.33	    10.296
  33.900         71.67	     9.274
  33.920         55.00	     8.124
  33.940         58.33	     8.367
  33.960         62.50	     8.660
  33.980         61.67	     8.602
  34.000         75.00	     9.487
  34.020         65.83	     8.888
  34.040         60.83	     8.544
  34.060         57.50	     8.307
  34.080         56.67	     8.246
  34.100         81.67	     9.899
  34.120         66.67	     8.944
  34.140         57.50	     8.307
  34.160         64.17	     8.775
  34.180         76.67	     9.592
  34.200         80.00	     9.798
  34.220         84.17	    10.050
  34.240         82.50	     9.950
  34.260         96.67	    10.770
  34.280        107.50	    11.358
  34.300         99.17	    10.909
  34.320        127.50	    12.369
  34.340        116.67	    11.832
  34.360        128.33	    12.410
  34.380        120.00	    12.000
  34.400        132.50	    12.610
  34.420        107.50	    11.358
  34.440        145.83	    13.229
  34.460        136.67	    12.806
  34.480        143.33	    13.115
  34.500        139.17	    12.923
  34.520        120.83	    12.042
  34.540        111.67	    11.576
  34.560        108.33	    11.402
  34.580        100.00	    10.954
  34.600        105.83	    11.269
  34.620        100.83	    11.000
  34.640         99.17	    10.909
  34.660        105.83	    11.269
  34.680        115.83	    11.790
  34.700        110.83	    11.533
  34.720        140.83	    13.000
  34.740        138.33	    12.884
  34.760        165.00	    14.071
  34.780        165.00	    14.071
  34.800        192.50	    15.199
  34.820        174.17	    14.457
  34.840        178.33	    14.629
  34.860        203.33	    15.620
  34.880        206.67	    15.748
  34.900        191.67	    15.166
  34.920        140.83	    13.000
  34.940        152.50	    13.528
  34.960        122.50	    12.124
  34.980        133.33	    12.649
  35.000        123.33	    12.166
  35.020        108.33	    11.402
  35.040        105.83	    11.269
  35.060         80.83	     9.849
  35.080        100.83	    11.000
  35.100        105.00	    11.225
  35.120         95.83	    10.724
  35.140        111.67	    11.576
  35.160         98.33	    10.863
  35.180         90.00	    10.392
  35.200         97.50	    10.817
  35.220        106.67	    11.314
  35.240         99.17	    10.909
  35.260        110.83	    11.533
  35.280        129.17	    12.450
  35.300        137.50	    12.845
  35.320        111.67	    11.576
  35.340        140.83	    13.000
  35.360        160.83	    13.892
  35.380        165.00	    14.071
  35.400        157.50	    13.748
  35.420        160.00	    13.856
  35.440        158.33	    13.784
  35.460        150.00	    13.416
  35.480        133.33	    12.649
  35.500        125.00	    12.247
  35.520        107.50	    11.358
  35.540        105.83	    11.269
  35.560         98.33	    10.863
  35.580         92.50	    10.536
  35.600         90.83	    10.440
  35.620         77.50	     9.644
  35.640         82.50	     9.950
  35.660         95.00	    10.677
  35.680         90.00	    10.392
  35.700         79.17	     9.747
  35.720         95.00	    10.677
  35.740         86.67	    10.198
  35.760         84.17	    10.050
  35.780         92.50	    10.536
  35.800         95.00	    10.677
  35.820         84.17	    10.050
  35.840        107.50	    11.358
  35.860        143.33	    13.115
  35.880        165.00	    14.071
  35.900        250.00	    17.321
  35.920        291.67	    18.708
  35.940        325.83	    19.774
  35.960        285.00	    18.493
  35.980        257.50	    17.578
  36.000        235.83	    16.823
  36.020        227.50	    16.523
  36.040        209.17	    15.843
  36.060        181.67	    14.765
  36.080        146.67	    13.266
  36.100        126.67	    12.329
  36.120        104.17	    11.180
  36.140         93.33	    10.583
  36.160         89.17	    10.344
  36.180        100.83	    11.000
  36.200        115.00	    11.747
  36.220        279.17	    18.303
  36.240        440.83	    23.000
  36.260        366.67	    20.976
  36.280        182.50	    14.799
  36.300        189.17	    15.067
  36.320        303.33	    19.079
  36.340        452.50	    23.302
  36.360        532.50	    25.278
  36.380        637.50	    27.659
  36.400        540.83	    25.475
  36.420        395.00	    21.772
  36.440        313.33	    19.391
  36.460        355.83	    20.664
  36.480        375.83	    21.237
  36.500        349.17	    20.469
  36.520        231.67	    16.673
  36.540        165.83	    14.107
  36.560        150.83	    13.454
  36.580        144.17	    13.153
  36.600        137.50	    12.845
  36.620        125.00	    12.247
  36.640        111.67	    11.576
  36.660        100.83	    11.000
  36.680         90.83	    10.440
  36.700         85.83	    10.149
  36.720         75.83	     9.539
  36.740         54.17	     8.062
  36.760         70.83	     9.220
  36.780         67.50	     9.000
  36.800         82.50	     9.950
  36.820         85.00	    10.100
  36.840         61.67	     8.602
  36.860         71.67	     9.274
  36.880         73.33	     9.381
  36.900         60.00	     8.485
  36.920         60.00	     8.485
  36.940         78.33	     9.695
  36.960         58.33	     8.367
  36.980         77.50	     9.644
  37.000         65.00	     8.832
  37.020         70.83	     9.220
  37.040         90.00	    10.392
  37.060         65.83	     8.888
  37.080         72.50	     9.327
  37.100         69.17	     9.110
  37.120         60.00	     8.485
  37.140         72.50	     9.327
  37.160         71.67	     9.274
  37.180         70.00	     9.165
  37.200         73.33	     9.381
  37.220         77.50	     9.644
  37.240         65.83	     8.888
  37.260         88.33	    10.296
  37.280         77.50	     9.644
  37.300         81.67	     9.899
  37.320         82.50	     9.950
  37.340         72.50	     9.327
  37.360         82.50	     9.950
  37.380         95.00	    10.677
  37.400        105.83	    11.269
  37.420         90.83	    10.440
  37.440         95.00	    10.677
  37.460         82.50	     9.950
  37.480        107.50	    11.358
  37.500        100.00	    10.954
  37.520        111.67	    11.576
  37.540         90.00	    10.392
  37.560         98.33	    10.863
  37.580         98.33	    10.863
  37.600        106.67	    11.314
  37.620        102.50	    11.091
  37.640         76.67	     9.592
  37.660         82.50	     9.950
  37.680         59.17	     8.426
  37.700         64.17	     8.775
  37.720         62.50	     8.660
  37.740         54.17	     8.062
  37.760         55.83	     8.185
  37.780         55.00	     8.124
  37.800         50.00	     7.746
  37.820         50.00	     7.746
  37.840         45.83	     7.416
  37.860         38.33	     6.782
  37.880         50.83	     7.810
  37.900         40.00	     6.928
  37.920         40.83	     7.000
  37.940         36.67	     6.633
  37.960         39.17	     6.856
  37.980         43.33	     7.211
  38.000         39.17	     6.856
  38.020         35.00	     6.481
  38.040         38.33	     6.782
  38.060         44.17	     7.280
  38.080         40.00	     6.928
  38.100         36.67	     6.633
  38.120         44.17	     7.280
  38.140         45.83	     7.416
  38.160         39.17	     6.856
  38.180         36.67	     6.633
  38.200         42.50	     7.141
  38.220         43.33	     7.211
  38.240         38.33	     6.782
  38.260         50.00	     7.746
  38.280         50.83	     7.810
  38.300         53.33	     8.000
  38.320         57.50	     8.307
  38.340         52.50	     7.937
  38.360         64.17	     8.775
  38.380         79.17	     9.747
  38.400         56.67	     8.246
  38.420         56.67	     8.246
  38.440         55.00	     8.124
  38.460         45.83	     7.416
  38.480         61.67	     8.602
  38.500         50.00	     7.746
  38.520         60.83	     8.544
  38.540         87.50	    10.247
  38.560         95.00	    10.677
  38.580         64.17	     8.775
  38.600         83.33	    10.000
  38.620        130.00	    12.490
  38.640        232.50	    16.703
  38.660        255.83	    17.521
  38.680        122.50	    12.124
  38.700         86.67	    10.198
  38.720         95.83	    10.724
  38.740        128.33	    12.410
  38.760        148.33	    13.342
  38.780         68.33	     9.055
  38.800         65.83	     8.888
  38.820         49.17	     7.681
  38.840         63.33	     8.718
  38.860         50.00	     7.746
  38.880         44.17	     7.280
  38.900         51.67	     7.874
  38.920         53.33	     8.000
  38.940         52.50	     7.937
  38.960         74.17	     9.434
  38.980         83.33	    10.000
  39.000         75.83	     9.539
  39.020         87.50	    10.247
  39.040         88.33	    10.296
  39.060         82.50	     9.950
  39.080         75.00	     9.487
  39.100         53.33	     8.000
  39.120         65.83	     8.888
  39.140         70.83	     9.220
  39.160         75.00	     9.487
  39.180         65.83	     8.888
  39.200         79.17	     9.747
  39.220         68.33	     9.055
  39.240        110.83	    11.533
  39.260        142.50	    13.077
  39.280        220.83	    16.279
  39.300        322.50	    19.672
  39.320        339.17	    20.174
  39.340        313.33	    19.391
  39.360        194.17	    15.264
  39.380        169.17	    14.248
  39.400        185.00	    14.900
  39.420        212.50	    15.969
  39.440        210.83	    15.906
  39.460        117.50	    11.874
  39.480         84.17	    10.050
  39.500         73.33	     9.381
  39.520         68.33	     9.055
  39.540         72.50	     9.327
  39.560         54.17	     8.062
  39.580         54.17	     8.062
  39.600         49.17	     7.681
  39.620         58.33	     8.367
  39.640         61.67	     8.602
  39.660         57.50	     8.307
  39.680         49.17	     7.681
  39.700         48.33	     7.616
  39.720         59.17	     8.426
  39.740         53.33	     8.000
  39.760         54.17	     8.062
  39.780         60.00	     8.485
  39.800         48.33	     7.616
  39.820         51.67	     7.874
  39.840         56.67	     8.246
  39.860         51.67	     7.874
  39.880         45.83	     7.416
  39.900         51.67	     7.874
  39.920         41.67	     7.071
  39.940         59.17	     8.426
  39.960         46.67	     7.483
  39.980         47.50	     7.550
  40.000         57.50	     8.307
  40.020         56.67	     8.246
  40.040         57.50	     8.307
  40.060         70.83	     9.220
  40.080         65.83	     8.888
  40.100         94.17	    10.630
  40.120        116.67	    11.832
  40.140        165.83	    14.107
  40.160        132.50	    12.610
  40.180        105.83	    11.269
  40.200         89.17	    10.344
  40.220         90.00	    10.392
  40.240         85.83	    10.149
  40.260         92.50	    10.536
  40.280         72.50	     9.327
  40.300         56.67	     8.246
  40.320         43.33	     7.211
  40.340         50.00	     7.746
  40.360         44.17	     7.280
  40.380         49.17	     7.681
  40.400         44.17	     7.280
  40.420         44.17	     7.280
  40.440         48.33	     7.616
  40.460         40.00	     6.928
  40.480         48.33	     7.616
  40.500         45.00	     7.348
  40.520         54.17	     8.062
  40.540         44.17	     7.280
  40.560         71.67	     9.274
  40.580         49.17	     7.681
  40.600         50.00	     7.746
  40.620         51.67	     7.874
  40.640         45.00	     7.348
  40.660         47.50	     7.550
  40.680         47.50	     7.550
  40.700         45.00	     7.348
  40.720         55.83	     8.185
  40.740         51.67	     7.874
  40.760         45.00	     7.348
  40.780         65.83	     8.888
  40.800         57.50	     8.307
  40.820         51.67	     7.874
  40.840         52.50	     7.937
  40.860         45.00	     7.348
  40.880         59.17	     8.426
  40.900         50.00	     7.746
  40.920         48.33	     7.616
  40.940         45.83	     7.416
  40.960         45.83	     7.416
  40.980         48.33	     7.616
  41.000         55.00	     8.124
  41.020         59.17	     8.426
  41.040         50.83	     7.810
  41.060         66.67	     8.944
  41.080         64.17	     8.775
  41.100         66.67	     8.944
  41.120         58.33	     8.367
  41.140         62.50	     8.660
  41.160         62.50	     8.660
  41.180         72.50	     9.327
  41.200         63.33	     8.718
  41.220         56.67	     8.246
  41.240         54.17	     8.062
  41.260         45.00	     7.348
  41.280         52.50	     7.937
  41.300         59.17	     8.426
  41.320         48.33	     7.616
  41.340         50.00	     7.746
  41.360         50.83	     7.810
  41.380         40.00	     6.928
  41.400         62.50	     8.660
  41.420         47.50	     7.550
  41.440         65.00	     8.832
  41.460         69.17	     9.110
  41.480         83.33	    10.000
  41.500         83.33	    10.000
  41.520         65.00	     8.832
  41.540         79.17	     9.747
  41.560         79.17	     9.747
  41.580         90.83	    10.440
  41.600         83.33	    10.000
  41.620         82.50	     9.950
  41.640         84.17	    10.050
  41.660         80.00	     9.798
  41.680         71.67	     9.274
  41.700         85.00	    10.100
  41.720         67.50	     9.000
  41.740         78.33	     9.695
  41.760         76.67	     9.592
  41.780         79.17	     9.747
  41.800         87.50	    10.247
  41.820         87.50	    10.247
  41.840         70.00	     9.165
  41.860         75.00	     9.487
  41.880         71.67	     9.274
  41.900         69.17	     9.110
  41.920         65.83	     8.888
  41.940         70.00	     9.165
  41.960         41.67	     7.071
  41.980         56.67	     8.246
  42.000         51.67	     7.874
  42.020         51.67	     7.874
  42.040         57.50	     8.307
  42.060         56.67	     8.246
  42.080         61.67	     8.602
  42.100         65.00	     8.832
  42.120         70.83	     9.220
  42.140        103.33	    11.136
  42.160        105.83	    11.269
  42.180        133.33	    12.649
  42.200        130.83	    12.530
  42.220        141.67	    13.038
  42.240        189.17	    15.067
  42.260        249.17	    17.292
  42.280        295.83	    18.841
  42.300        352.50	    20.567
  42.320        387.50	    21.564
  42.340        340.83	    20.224
  42.360        273.33	    18.111
  42.380        224.17	    16.401
  42.400        188.33	    15.033
  42.420        215.00	    16.062
  42.440        217.50	    16.155
  42.460        218.33	    16.186
  42.480        157.50	    13.748
  42.500        113.33	    11.662
  42.520        111.67	    11.576
  42.540        101.67	    11.045
  42.560        100.00	    10.954
  42.580         92.50	    10.536
  42.600        105.00	    11.225
  42.620         83.33	    10.000
  42.640         84.17	    10.050
  42.660         66.67	     8.944
  42.680         66.67	     8.944
  42.700         68.33	     9.055
  42.720         66.67	     8.944
  42.740         70.00	     9.165
  42.760         74.17	     9.434
  42.780         62.50	     8.660
  42.800         70.00	     9.165
  42.820         60.83	     8.544
  42.840         38.33	     6.782
  42.860         50.83	     7.810
  42.880         55.83	     8.185
  42.900         50.00	     7.746
  42.920         44.17	     7.280
  42.940         37.50	     6.708
  42.960         44.17	     7.280
  42.980         49.17	     7.681
  43.000         50.83	     7.810
  43.020         40.83	     7.000
  43.040         43.33	     7.211
  43.060         44.17	     7.280
  43.080         44.17	     7.280
  43.100         49.17	     7.681
  43.120         34.17	     6.403
  43.140         52.50	     7.937
  43.160         45.83	     7.416
  43.180         40.00	     6.928
  43.200         64.17	     8.775
  43.220         43.33	     7.211
  43.240         52.50	     7.937
  43.260         59.17	     8.426
  43.280         74.17	     9.434
  43.300         68.33	     9.055
  43.320         97.50	    10.817
  43.340        115.00	    11.747
  43.360        130.00	    12.490
  43.380        182.50	    14.799
  43.400        202.50	    15.588
  43.420        200.83	    15.524
  43.440        151.67	    13.491
  43.460         92.50	    10.536
  43.480        112.50	    11.619
  43.500        121.67	    12.083
  43.520        133.33	    12.649
  43.540        110.83	    11.533
  43.560         85.00	    10.100
  43.580         53.33	     8.000
  43.600         58.33	     8.367
  43.620         69.17	     9.110
  43.640         55.83	     8.185
  43.660         63.33	     8.718
  43.680         48.33	     7.616
  43.700         53.33	     8.000
  43.720         43.33	     7.211
  43.740         42.50	     7.141
  43.760         44.17	     7.280
  43.780         47.50	     7.550
  43.800         57.50	     8.307
  43.820         43.33	     7.211
  43.840         48.33	     7.616
  43.860         42.50	     7.141
  43.880         53.33	     8.000
  43.900         45.83	     7.416
  43.920         50.83	     7.810
  43.940         46.67	     7.483
  43.960         41.67	     7.071
  43.980         56.67	     8.246
  44.000         55.83	     8.185
  44.020         51.67	     7.874
  44.040         49.17	     7.681
  44.060         63.33	     8.718
  44.080         55.83	     8.185
  44.100         58.33	     8.367
  44.120         71.67	     9.274
  44.140         58.33	     8.367
  44.160         48.33	     7.616
  44.180         54.17	     8.062
  44.200         57.50	     8.307
  44.220         68.33	     9.055
  44.240         67.50	     9.000
  44.260         54.17	     8.062
  44.280         69.17	     9.110
  44.300         55.83	     8.185
  44.320         57.50	     8.307
  44.340         52.50	     7.937
  44.360         69.17	     9.110
  44.380         71.67	     9.274
  44.400         68.33	     9.055
  44.420         52.50	     7.937
  44.440         50.83	     7.810
  44.460         57.50	     8.307
  44.480         80.00	     9.798
  44.500         57.50	     8.307
  44.520         64.17	     8.775
  44.540         77.50	     9.644
  44.560         63.33	     8.718
  44.580         60.00	     8.485
  44.600         55.00	     8.124
  44.620         68.33	     9.055
  44.640         85.00	    10.100
  44.660         75.00	     9.487
  44.680         91.67	    10.488
  44.700         84.17	    10.050
  44.720         92.50	    10.536
  44.740        100.00	    10.954
  44.760        100.00	    10.954
  44.780         90.83	    10.440
  44.800        103.33	    11.136
  44.820         89.17	    10.344
  44.840         75.00	     9.487
  44.860         92.50	    10.536
  44.880         93.33	    10.583
  44.900         87.50	    10.247
  44.920         84.17	    10.050
  44.940         93.33	    10.583
  44.960         65.83	     8.888
  44.980         70.00	     9.165
  45.000         75.00	     9.487
  45.020         85.00	    10.100
  45.040         83.33	    10.000
  45.060         85.83	    10.149
  45.080         81.67	     9.899
  45.100        109.17	    11.446
  45.120        110.00	    11.489
  45.140        102.50	    11.091
  45.160        125.83	    12.288
  45.180        125.83	    12.288
  45.200        126.67	    12.329
  45.220        170.00	    14.283
  45.240        226.67	    16.492
  45.260        227.50	    16.523
  45.280        300.00	    18.974
  45.300        345.83	    20.372
  45.320        470.00	    23.749
  45.340        612.50	    27.111
  45.360        828.33	    31.528
  45.380        987.50	    34.424
  45.400       1080.83	    36.014
  45.420       1034.17	    35.228
  45.440       1037.50	    35.285
  45.460       1054.17	    35.567
  45.480       1018.33	    34.957
  45.500       1001.67	    34.670
  45.520        810.00	    31.177
  45.540        683.33	    28.636
  45.560        640.00	    27.713
  45.580        625.00	    27.386
  45.600        539.17	    25.436
  45.620        557.50	    25.865
  45.640        416.67	    22.361
  45.660        298.33	    18.921
  45.680        220.00	    16.248
  45.700        181.67	    14.765
  45.720        164.17	    14.036
  45.740        179.17	    14.663
  45.760        174.17	    14.457
  45.780        152.50	    13.528
  45.800        128.33	    12.410
  45.820         93.33	    10.583
  45.840         86.67	    10.198
  45.860         75.00	     9.487
  45.880         83.33	    10.000
  45.900         74.17	     9.434
  45.920         57.50	     8.307
  45.940         79.17	     9.747
  45.960         70.00	     9.165
  45.980         47.50	     7.550
  46.000         68.33	     9.055
  46.020         65.00	     8.832
  46.040         55.83	     8.185
  46.060         50.00	     7.746
  46.080         48.33	     7.616
  46.100         53.33	     8.000
  46.120         46.67	     7.483
  46.140         52.50	     7.937
  46.160         54.17	     8.062
  46.180         42.50	     7.141
  46.200         40.83	     7.000
  46.220         43.33	     7.211
  46.240         41.67	     7.071
  46.260         42.50	     7.141
  46.280         37.50	     6.708
  46.300         37.50	     6.708
  46.320         45.83	     7.416
  46.340         50.83	     7.810
  46.360         50.00	     7.746
  46.380         53.33	     8.000
  46.400         52.50	     7.937
  46.420         53.33	     8.000
  46.440         45.83	     7.416
  46.460         40.00	     6.928
  46.480         60.83	     8.544
  46.500         50.83	     7.810
  46.520         44.17	     7.280
  46.540         50.83	     7.810
  46.560         45.00	     7.348
  46.580         63.33	     8.718
  46.600         40.83	     7.000
  46.620         47.50	     7.550
  46.640         43.33	     7.211
  46.660         52.50	     7.937
  46.680         46.67	     7.483
  46.700         43.33	     7.211
  46.720         47.50	     7.550
  46.740         44.17	     7.280
  46.760         48.33	     7.616
  46.780         50.00	     7.746
  46.800         43.33	     7.211
  46.820         51.67	     7.874
  46.840         40.00	     6.928
  46.860         62.50	     8.660
  46.880         65.00	     8.832
  46.900         65.83	     8.888
  46.920         79.17	     9.747
  46.940         85.00	    10.100
  46.960         97.50	    10.817
  46.980         84.17	    10.050
  47.000         84.17	    10.050
  47.020         78.33	     9.695
  47.040         68.33	     9.055
  47.060         61.67	     8.602
  47.080         65.83	     8.888
  47.100         77.50	     9.644
  47.120         66.67	     8.944
  47.140         68.33	     9.055
  47.160         45.00	     7.348
  47.180         41.67	     7.071
  47.200         45.83	     7.416
  47.220         34.17	     6.403
  47.240         42.50	     7.141
  47.260         35.83	     6.557
  47.280         26.67	     5.657
  47.300         43.33	     7.211
  47.320         29.17	     5.916
  47.340         35.00	     6.481
  47.360         40.83	     7.000
  47.380         35.00	     6.481
  47.400         50.83	     7.810
  47.420         31.67	     6.164
  47.440         40.83	     7.000
  47.460         28.33	     5.831
  47.480         32.50	     6.245
  47.500         25.83	     5.568
  47.520         45.00	     7.348
  47.540         40.83	     7.000
  47.560         39.17	     6.856
  47.580         43.33	     7.211
  47.600         40.83	     7.000
  47.620         49.17	     7.681
  47.640         41.67	     7.071
  47.660         36.67	     6.633
  47.680         45.00	     7.348
  47.700         45.00	     7.348
  47.720         50.83	     7.810
  47.740         45.83	     7.416
  47.760         50.00	     7.746
  47.780         57.50	     8.307
  47.800         48.33	     7.616
  47.820         50.00	     7.746
  47.840         68.33	     9.055
  47.860         57.50	     8.307
  47.880         63.33	     8.718
  47.900         55.00	     8.124
  47.920         60.83	     8.544
  47.940         68.33	     9.055
  47.960         99.17	    10.909
  47.980         85.00	    10.100
  48.000         77.50	     9.644
  48.020         99.17	    10.909
  48.040         79.17	     9.747
  48.060         72.50	     9.327
  48.080         82.50	     9.950
  48.100         75.00	     9.487
  48.120         82.50	     9.950
  48.140         80.83	     9.849
  48.160         78.33	     9.695
  48.180         75.83	     9.539
  48.200         68.33	     9.055
  48.220         83.33	    10.000
  48.240         57.50	     8.307
  48.260         62.50	     8.660
  48.280         47.50	     7.550
  48.300         50.00	     7.746
  48.320         47.50	     7.550
  48.340         47.50	     7.550
  48.360         42.50	     7.141
  48.380         57.50	     8.307
  48.400         47.50	     7.550
  48.420         60.83	     8.544
  48.440         48.33	     7.616
  48.460         55.00	     8.124
  48.480         50.00	     7.746
  48.500         55.00	     8.124
  48.520         63.33	     8.718
  48.540         66.67	     8.944
  48.560         60.00	     8.485
  48.580         63.33	     8.718
  48.600         45.00	     7.348
  48.620         48.33	     7.616
  48.640         54.17	     8.062
  48.660         53.33	     8.000
  48.680         51.67	     7.874
  48.700         51.67	     7.874
  48.720         51.67	     7.874
  48.740         50.83	     7.810
  48.760         38.33	     6.782
  48.780         49.17	     7.681
  48.800         41.67	     7.071
  48.820         53.33	     8.000
  48.840         40.00	     6.928
  48.860         40.00	     6.928
  48.880         44.17	     7.280
  48.900         39.17	     6.856
  48.920         56.67	     8.246
  48.940         55.00	     8.124
  48.960         52.50	     7.937
  48.980         49.17	     7.681
  49.000         56.67	     8.246
  49.020         51.67	     7.874
  49.040         75.00	     9.487
  49.060         77.50	     9.644
  49.080         65.00	     8.832
  49.100         49.17	     7.681
  49.120         52.50	     7.937
  49.140         55.00	     8.124
  49.160         55.83	     8.185
  49.180         52.50	     7.937
  49.200         51.67	     7.874
  49.220         61.67	     8.602
  49.240         41.67	     7.071
  49.260         64.17	     8.775
  49.280         60.00	     8.485
  49.300         55.00	     8.124
  49.320         60.00	     8.485
  49.340         52.50	     7.937
  49.360         48.33	     7.616
  49.380         59.17	     8.426
  49.400         52.50	     7.937
  49.420         53.33	     8.000
  49.440         44.17	     7.280
  49.460         52.50	     7.937
  49.480         49.17	     7.681
  49.500         51.67	     7.874
  49.520         61.67	     8.602
  49.540         68.33	     9.055
  49.560         55.00	     8.124
  49.580         60.83	     8.544
  49.600         60.83	     8.544
  49.620         91.67	    10.488
  49.640         95.00	    10.677
  49.660        113.33	    11.662
  49.680         97.50	    10.817
  49.700         90.00	    10.392
  49.720         90.00	    10.392
  49.740         89.17	    10.344
  49.760        100.00	    10.954
  49.780        105.83	    11.269
  49.800        119.17	    11.958
  49.820        112.50	    11.619
  49.840        108.33	    11.402
  49.860        109.17	    11.446
  49.880        122.50	    12.124
  49.900        169.17	    14.248
  49.920        238.33	    16.912
  49.940        456.67	    23.409
  49.960        782.50	    30.643
  49.980       1021.67	    35.014
  50.000        957.50	    33.897
  50.020        805.83	    31.097
  50.040        506.67	    24.658
  50.060        330.00	    19.900
  50.080        355.00	    20.640
  50.100        526.67	    25.140
  50.120        560.83	    25.942
  50.140        435.83	    22.869
  50.160        365.83	    20.952
  50.180        205.00	    15.684
  50.200        137.50	    12.845
  50.220        106.67	    11.314
  50.240         98.33	    10.863
  50.260         77.50	     9.644
  50.280         76.67	     9.592
  50.300         75.83	     9.539
  50.320         76.67	     9.592
  50.340         62.50	     8.660
  50.360         66.67	     8.944
  50.380         81.67	     9.899
  50.400         95.83	    10.724
  50.420         93.33	    10.583
  50.440        120.83	    12.042
  50.460        117.50	    11.874
  50.480        133.33	    12.649
  50.500        120.83	    12.042
  50.520        109.17	    11.446
  50.540        102.50	    11.091
  50.560         92.50	    10.536
  50.580         91.67	    10.488
  50.600         90.00	    10.392
  50.620         83.33	    10.000
  50.640         73.33	     9.381
  50.660         63.33	     8.718
  50.680         58.33	     8.367
  50.700         50.83	     7.810
  50.720         53.33	     8.000
  50.740         35.83	     6.557
  50.760         48.33	     7.616
  50.780         40.00	     6.928
  50.800         29.17	     5.916
  50.820         34.17	     6.403
  50.840         43.33	     7.211
  50.860         44.17	     7.280
  50.880         46.67	     7.483
  50.900         47.50	     7.550
  50.920         46.67	     7.483
  50.940         55.83	     8.185
  50.960         68.33	     9.055
  50.980         92.50	    10.536
  51.000         64.17	     8.775
  51.020         71.67	     9.274
  51.040         53.33	     8.000
  51.060         69.17	     9.110
  51.080         60.00	     8.485
  51.100         58.33	     8.367
  51.120         77.50	     9.644
  51.140         70.83	     9.220
  51.160         60.00	     8.485
  51.180         51.67	     7.874
  51.200         50.83	     7.810
  51.220         43.33	     7.211
  51.240         55.00	     8.124
  51.260         38.33	     6.782
  51.280         42.50	     7.141
  51.300         42.50	     7.141
  51.320         45.83	     7.416
  51.340         29.17	     5.916
  51.360         32.50	     6.245
  51.380         41.67	     7.071
  51.400         43.33	     7.211
  51.420         33.33	     6.325
  51.440         43.33	     7.211
  51.460         35.83	     6.557
  51.480         45.00	     7.348
  51.500         27.50	     5.745
  51.520         42.50	     7.141
  51.540         25.83	     5.568
  51.560         38.33	     6.782
  51.580         42.50	     7.141
  51.600         53.33	     8.000
  51.620         29.17	     5.916
  51.640         35.83	     6.557
  51.660         32.50	     6.245
  51.680         33.33	     6.325
  51.700         30.83	     6.083
  51.720         35.83	     6.557
  51.740         38.33	     6.782
  51.760         34.17	     6.403
  51.780         40.83	     7.000
  51.800         33.33	     6.325
  51.820         42.50	     7.141
  51.840         47.50	     7.550
  51.860         35.83	     6.557
  51.880         30.00	     6.000
  51.900         44.17	     7.280
  51.920         55.00	     8.124
  51.940         48.33	     7.616
  51.960         43.33	     7.211
  51.980         69.17	     9.110
  52.000         70.00	     9.165
  52.020         61.67	     8.602
  52.040         48.33	     7.616
  52.060         49.17	     7.681
  52.080         55.83	     8.185
  52.100         55.83	     8.185
  52.120         58.33	     8.367
  52.140         58.33	     8.367
  52.160         43.33	     7.211
  52.180         50.00	     7.746
  52.200         51.67	     7.874
  52.220         47.50	     7.550
  52.240         57.50	     8.307
  52.260         40.83	     7.000
  52.280         55.83	     8.185
  52.300         65.00	     8.832
  52.320         68.33	     9.055
  52.340         45.00	     7.348
  52.360         50.83	     7.810
  52.380         50.83	     7.810
  52.400         47.50	     7.550
  52.420         59.17	     8.426
  52.440         45.83	     7.416
  52.460         47.50	     7.550
  52.480         59.17	     8.426
  52.500         39.17	     6.856
  52.520         40.83	     7.000
  52.540         40.00	     6.928
  52.560         46.67	     7.483
  52.580         43.33	     7.211
  52.600         49.17	     7.681
  52.620         36.67	     6.633
  52.640         49.17	     7.681
  52.660         43.33	     7.211
  52.680         57.50	     8.307
  52.700         63.33	     8.718
  52.720         47.50	     7.550
  52.740         49.17	     7.681
  52.760         42.50	     7.141
  52.780         58.33	     8.367
  52.800         51.67	     7.874
  52.820         54.17	     8.062
  52.840         35.83	     6.557
  52.860         58.33	     8.367
  52.880         55.00	     8.124
  52.900         62.50	     8.660
  52.920         65.00	     8.832
  52.940         67.50	     9.000
  52.960         59.17	     8.426
  52.980         52.50	     7.937
  53.000         54.17	     8.062
  53.020         56.67	     8.246
  53.040         61.67	     8.602
  53.060         77.50	     9.644
  53.080         58.33	     8.367
  53.100         55.83	     8.185
  53.120         47.50	     7.550
  53.140         60.00	     8.485
  53.160         72.50	     9.327
  53.180         58.33	     8.367
  53.200         70.00	     9.165
  53.220         40.00	     6.928
  53.240         47.50	     7.550
  53.260         40.00	     6.928
  53.280         45.00	     7.348
  53.300         45.00	     7.348
  53.320         48.33	     7.616
  53.340         45.00	     7.348
  53.360         52.50	     7.937
  53.380         40.83	     7.000
  53.400         45.00	     7.348
  53.420         39.17	     6.856
  53.440         45.83	     7.416
  53.460         45.00	     7.348
  53.480         37.50	     6.708
  53.500         45.00	     7.348
  53.520         37.50	     6.708
  53.540         44.17	     7.280
  53.560         46.67	     7.483
  53.580         48.33	     7.616
  53.600         43.33	     7.211
  53.620         30.00	     6.000
  53.640         58.33	     8.367
  53.660         33.33	     6.325
  53.680         37.50	     6.708
  53.700         59.17	     8.426
  53.720         46.67	     7.483
  53.740         43.33	     7.211
  53.760         43.33	     7.211
  53.780         39.17	     6.856
  53.800         44.17	     7.280
  53.820         55.83	     8.185
  53.840         49.17	     7.681
  53.860         38.33	     6.782
  53.880         32.50	     6.245
  53.900         48.33	     7.616
  53.920         35.83	     6.557
  53.940         44.17	     7.280
  53.960         42.50	     7.141
  53.980         51.67	     7.874
  54.000         40.83	     7.000
  54.020         45.00	     7.348
  54.040         41.67	     7.071
  54.060         38.33	     6.782
  54.080         51.67	     7.874
  54.100         50.00	     7.746
  54.120         45.00	     7.348
  54.140         55.00	     8.124
  54.160         50.83	     7.810
  54.180         60.00	     8.485
  54.200         54.17	     8.062
  54.220         58.33	     8.367
  54.240         62.50	     8.660
  54.260         55.83	     8.185
  54.280         77.50	     9.644
  54.300         70.83	     9.220
  54.320         40.00	     6.928
  54.340         55.83	     8.185
  54.360         51.67	     7.874
  54.380         48.33	     7.616
  54.400         40.83	     7.000
  54.420         54.17	     8.062
  54.440         57.50	     8.307
  54.460         56.67	     8.246
  54.480         59.17	     8.426
  54.500         46.67	     7.483
  54.520         50.83	     7.810
  54.540         56.67	     8.246
  54.560         56.67	     8.246
  54.580         54.17	     8.062
  54.600         72.50	     9.327
  54.620         84.17	    10.050
  54.640         95.83	    10.724
  54.660        123.33	    12.166
  54.680        170.00	    14.283
  54.700        290.83	    18.682
  54.720        305.83	    19.157
  54.740        227.50	    16.523
  54.760        152.50	    13.528
  54.780        129.17	    12.450
  54.800        120.83	    12.042
  54.820        130.83	    12.530
  54.840        139.17	    12.923
  54.860        182.50	    14.799
  54.880        159.17	    13.820
  54.900        149.17	    13.379
  54.920         94.17	    10.630
  54.940         83.33	    10.000
  54.960         55.83	     8.185
  54.980         56.67	     8.246
  55.000         59.17	     8.426
  55.020         59.17	     8.426
  55.040         72.50	     9.327
  55.060         80.83	     9.849
  55.080         60.83	     8.544
  55.100         85.83	    10.149
  55.120         84.17	    10.050
  55.140         98.33	    10.863
  55.160        121.67	    12.083
  55.180        104.17	    11.180
  55.200         90.83	    10.440
  55.220         92.50	    10.536
  55.240         79.17	     9.747
  55.260         92.50	    10.536
  55.280         82.50	     9.950
  55.300         95.00	    10.677
  55.320         96.67	    10.770
  55.340         98.33	    10.863
  55.360         72.50	     9.327
  55.380         69.17	     9.110
  55.400         68.33	     9.055
  55.420         62.50	     8.660
  55.440         71.67	     9.274
  55.460         76.67	     9.592
  55.480         67.50	     9.000
  55.500         65.83	     8.888
  55.520         75.83	     9.539
  55.540         72.50	     9.327
  55.560         66.67	     8.944
  55.580         73.33	     9.381
  55.600         75.00	     9.487
  55.620         76.67	     9.592
  55.640        106.67	    11.314
  55.660        105.00	    11.225
  55.680         97.50	    10.817
  55.700        107.50	    11.358
  55.720        100.00	    10.954
  55.740         89.17	    10.344
  55.760         84.17	    10.050
  55.780         83.33	    10.000
  55.800         82.50	     9.950
  55.820         90.00	    10.392
  55.840         79.17	     9.747
  55.860         69.17	     9.110
  55.880         63.33	     8.718
  55.900         67.50	     9.000
  55.920         69.17	     9.110
  55.940         60.83	     8.544
  55.960         51.67	     7.874
  55.980         46.67	     7.483
  56.000         55.83	     8.185
  56.020         40.00	     6.928
  56.040         61.67	     8.602
  56.060         63.33	     8.718
  56.080         60.83	     8.544
  56.100         53.33	     8.000
  56.120         50.83	     7.810
  56.140         49.17	     7.681
  56.160         44.17	     7.280
  56.180         44.17	     7.280
  56.200         55.00	     8.124
  56.220         40.83	     7.000
  56.240         51.67	     7.874
  56.260         35.83	     6.557
  56.280         47.50	     7.550
  56.300         40.83	     7.000
  56.320         45.83	     7.416
  56.340         55.83	     8.185
  56.360         65.83	     8.888
  56.380         53.33	     8.000
  56.400         55.83	     8.185
  56.420         56.67	     8.246
  56.440        106.67	    11.314
  56.460         99.17	    10.909
  56.480         66.67	     8.944
  56.500         58.33	     8.367
  56.520         47.50	     7.550
  56.540         56.67	     8.246
  56.560         61.67	     8.602
  56.580         51.67	     7.874
  56.600         66.67	     8.944
  56.620         46.67	     7.483
  56.640         44.17	     7.280
  56.660         55.00	     8.124
  56.680         45.83	     7.416
  56.700         59.17	     8.426
  56.720         51.67	     7.874
  56.740         40.83	     7.000
  56.760         40.83	     7.000
  56.780         49.17	     7.681
  56.800         52.50	     7.937
  56.820         52.50	     7.937
  56.840         45.00	     7.348
  56.860         42.50	     7.141
  56.880         46.67	     7.483
  56.900         38.33	     6.782
  56.920         41.67	     7.071
  56.940         51.67	     7.874
  56.960         37.50	     6.708
  56.980         35.83	     6.557
  57.000         39.17	     6.856
  57.020         39.17	     6.856
  57.040         45.00	     7.348
  57.060         51.67	     7.874
  57.080         36.67	     6.633
  57.100         50.00	     7.746
  57.120         39.17	     6.856
  57.140         41.67	     7.071
  57.160         30.00	     6.000
  57.180         38.33	     6.782
  57.200         43.33	     7.211
  57.220         49.17	     7.681
  57.240         36.67	     6.633
  57.260         46.67	     7.483
  57.280         43.33	     7.211
  57.300         38.33	     6.782
  57.320         39.17	     6.856
  57.340         35.83	     6.557
  57.360         30.83	     6.083
  57.380         48.33	     7.616
  57.400         42.50	     7.141
  57.420         54.17	     8.062
  57.440         37.50	     6.708
  57.460         46.67	     7.483
  57.480         45.83	     7.416
  57.500         51.67	     7.874
  57.520         51.67	     7.874
  57.540         52.50	     7.937
  57.560         40.00	     6.928
  57.580         40.00	     6.928
  57.600         33.33	     6.325
  57.620         35.00	     6.481
  57.640         29.17	     5.916
  57.660         40.00	     6.928
  57.680         27.50	     5.745
  57.700         39.17	     6.856
  57.720         38.33	     6.782
  57.740         45.83	     7.416
  57.760         37.50	     6.708
  57.780         25.83	     5.568
  57.800         29.17	     5.916
  57.820         35.00	     6.481
  57.840         31.67	     6.164
  57.860         48.33	     7.616
  57.880         44.17	     7.280
  57.900         44.17	     7.280
  57.920         41.67	     7.071
  57.940         40.83	     7.000
  57.960         45.00	     7.348
  57.980         35.00	     6.481
  58.000         50.83	     7.810
  58.020         50.00	     7.746
  58.040         45.00	     7.348
  58.060         38.33	     6.782
  58.080         48.33	     7.616
  58.100         33.33	     6.325
  58.120         41.67	     7.071
  58.140         42.50	     7.141
  58.160         40.83	     7.000
  58.180         35.00	     6.481
  58.200         39.17	     6.856
  58.220         44.17	     7.280
  58.240         50.83	     7.810
  58.260         32.50	     6.245
  58.280         49.17	     7.681
  58.300         34.17	     6.403
  58.320         51.67	     7.874
  58.340         44.17	     7.280
  58.360         45.83	     7.416
  58.380         50.83	     7.810
  58.400         50.00	     7.746
  58.420         50.00	     7.746
  58.440         60.83	     8.544
  58.460         50.83	     7.810
  58.480         71.67	     9.274
  58.500         54.17	     8.062
  58.520         72.50	     9.327
  58.540         74.17	     9.434
  58.560         60.00	     8.485
  58.580         71.67	     9.274
  58.600         79.17	     9.747
  58.620         55.00	     8.124
  58.640         64.17	     8.775
  58.660         66.67	     8.944
  58.680         54.17	     8.062
  58.700         54.17	     8.062
  58.720         65.00	     8.832
  58.740         69.17	     9.110
  58.760         53.33	     8.000
  58.780         66.67	     8.944
  58.800         56.67	     8.246
  58.820         57.50	     8.307
  58.840         56.67	     8.246
  58.860         52.50	     7.937
  58.880         60.83	     8.544
  58.900         70.83	     9.220
  58.920         57.50	     8.307
  58.940         73.33	     9.381
  58.960         54.17	     8.062
  58.980         63.33	     8.718
  59.000         77.50	     9.644
  59.020         61.67	     8.602
  59.040         67.50	     9.000
  59.060         70.00	     9.165
  59.080         78.33	     9.695
  59.100         68.33	     9.055
  59.120         73.33	     9.381
  59.140         60.00	     8.485
  59.160         57.50	     8.307
  59.180         62.50	     8.660
  59.200         61.67	     8.602
  59.220         60.00	     8.485
  59.240         47.50	     7.550
  59.260         49.17	     7.681
  59.280         52.50	     7.937
  59.300         55.00	     8.124
  59.320         50.83	     7.810
  59.340         54.17	     8.062
  59.360         56.67	     8.246
  59.380         48.33	     7.616
  59.400         49.17	     7.681
  59.420         66.67	     8.944
  59.440         61.67	     8.602
  59.460         50.83	     7.810
  59.480         47.50	     7.550
  59.500         50.00	     7.746
  59.520         56.67	     8.246
  59.540         52.50	     7.937
  59.560         60.00	     8.485
  59.580         69.17	     9.110
  59.600         49.17	     7.681
  59.620         66.67	     8.944
  59.640         70.83	     9.220
  59.660         67.50	     9.000
  59.680         90.00	    10.392
  59.700        113.33	    11.662
  59.720        126.67	    12.329
  59.740        177.50	    14.595
  59.760        222.50	    16.340
  59.780        283.33	    18.439
  59.800        338.33	    20.149
  59.820        286.67	    18.547
  59.840        233.33	    16.733
  59.860        200.83	    15.524
  59.880        177.50	    14.595
  59.900        167.50	    14.177
  59.920        176.67	    14.560
  59.940        184.17	    14.866
  59.960        205.83	    15.716
  59.980        182.50	    14.799
  60.000        160.00	    13.856
  60.020        115.83	    11.790
  60.040        102.50	    11.091
  60.060        100.83	    11.000
  60.080         88.33	    10.296
  60.100         74.17	     9.434
  60.120         55.00	     8.124
  60.140         51.67	     7.874
  60.160         55.83	     8.185
  60.180         55.83	     8.185
  60.200         45.00	     7.348
  60.220         60.00	     8.485
  60.240         64.17	     8.775
  60.260         50.83	     7.810
  60.280         55.83	     8.185
  60.300         41.67	     7.071
  60.320         49.17	     7.681
  60.340         50.00	     7.746
  60.360         60.00	     8.485
  60.380         42.50	     7.141
  60.400         53.33	     8.000
  60.420         55.83	     8.185
  60.440         64.17	     8.775
  60.460         53.33	     8.000
  60.480         58.33	     8.367
  60.500         57.50	     8.307
  60.520         56.67	     8.246
  60.540         68.33	     9.055
  60.560         57.50	     8.307
  60.580         77.50	     9.644
  60.600         73.33	     9.381
  60.620         68.33	     9.055
  60.640         66.67	     8.944
  60.660         75.00	     9.487
  60.680         73.33	     9.381
  60.700         74.17	     9.434
  60.720         69.17	     9.110
  60.740         62.50	     8.660
  60.760         78.33	     9.695
  60.780         67.50	     9.000
  60.800         63.33	     8.718
  60.820         69.17	     9.110
  60.840         66.67	     8.944
  60.860         56.67	     8.246
  60.880         64.17	     8.775
  60.900         55.83	     8.185
  60.920         60.83	     8.544
  60.940         83.33	    10.000
  60.960         65.83	     8.888
  60.980         60.00	     8.485
  61.000         65.00	     8.832
  61.020         59.17	     8.426
  61.040         57.50	     8.307
  61.060         54.17	     8.062
  61.080         61.67	     8.602
  61.100         59.17	     8.426
  61.120         55.00	     8.124
  61.140         64.17	     8.775
  61.160         49.17	     7.681
  61.180         70.00	     9.165
  61.200         64.17	     8.775
  61.220         80.83	     9.849
  61.240         58.33	     8.367
  61.260         62.50	     8.660
  61.280         94.17	    10.630
  61.300         74.17	     9.434
  61.320         77.50	     9.644
  61.340         79.17	     9.747
  61.360         75.00	     9.487
  61.380         80.00	     9.798
  61.400         71.67	     9.274
  61.420         94.17	    10.630
  61.440         70.83	     9.220
  61.460         90.00	    10.392
  61.480         81.67	     9.899
  61.500         67.50	     9.000
  61.520         82.50	     9.950
  61.540         64.17	     8.775
  61.560         75.00	     9.487
  61.580         71.67	     9.274
  61.600         70.00	     9.165
  61.620         80.83	     9.849
  61.640         70.00	     9.165
  61.660         55.83	     8.185
  61.680         90.00	    10.392
  61.700         70.00	     9.165
  61.720         55.83	     8.185
  61.740         66.67	     8.944
  61.760         65.00	     8.832
  61.780         74.17	     9.434
  61.800         55.83	     8.185
  61.820         59.17	     8.426
  61.840         66.67	     8.944
  61.860         61.67	     8.602
  61.880         51.67	     7.874
  61.900         54.17	     8.062
  61.920         63.33	     8.718
  61.940         65.00	     8.832
  61.960         60.83	     8.544
  61.980         43.33	     7.211
  62.000         47.50	     7.550
  62.020         54.17	     8.062
  62.040         41.67	     7.071
  62.060         49.17	     7.681
  62.080         50.00	     7.746
  62.100         43.33	     7.211
  62.120         37.50	     6.708
  62.140         36.67	     6.633
  62.160         37.50	     6.708
  62.180         40.83	     7.000
  62.200         40.00	     6.928
  62.220         45.83	     7.416
  62.240         38.33	     6.782
  62.260         38.33	     6.782
  62.280         55.00	     8.124
  62.300         39.17	     6.856
  62.320         48.33	     7.616
  62.340         35.83	     6.557
  62.360         46.67	     7.483
  62.380         46.67	     7.483
  62.400         49.17	     7.681
  62.420         49.17	     7.681
  62.440         33.33	     6.325
  62.460         48.33	     7.616
  62.480         50.00	     7.746
  62.500         47.50	     7.550
  62.520         47.50	     7.550
  62.540         48.33	     7.616
  62.560         45.83	     7.416
  62.580         40.83	     7.000
  62.600         50.00	     7.746
  62.620         38.33	     6.782
  62.640         48.33	     7.616
  62.660         41.67	     7.071
  62.680         51.67	     7.874
  62.700         53.33	     8.000
  62.720         35.00	     6.481
  62.740         38.33	     6.782
  62.760         36.67	     6.633
  62.780         34.17	     6.403
  62.800         45.00	     7.348
  62.820         45.00	     7.348
  62.840         45.83	     7.416
  62.860         29.17	     5.916
  62.880         43.33	     7.211
  62.900         39.17	     6.856
  62.920         50.83	     7.810
  62.940         48.33	     7.616
  62.960         38.33	     6.782
  62.980         45.00	     7.348
  63.000         40.00	     6.928
  63.020         43.33	     7.211
  63.040         48.33	     7.616
  63.060         44.17	     7.280
  63.080         47.50	     7.550
  63.100         46.67	     7.483
  63.120         44.17	     7.280
  63.140         55.00	     8.124
  63.160         39.17	     6.856
  63.180         38.33	     6.782
  63.200         55.00	     8.124
  63.220         40.83	     7.000
  63.240         50.83	     7.810
  63.260         71.67	     9.274
  63.280         52.50	     7.937
  63.300         60.83	     8.544
  63.320         59.17	     8.426
  63.340         52.50	     7.937
  63.360         49.17	     7.681
  63.380         39.17	     6.856
  63.400         46.67	     7.483
  63.420         40.00	     6.928
  63.440         45.00	     7.348
  63.460         49.17	     7.681
  63.480         49.17	     7.681
  63.500         65.00	     8.832
  63.520         51.67	     7.874
  63.540         62.50	     8.660
  63.560         49.17	     7.681
  63.580         58.33	     8.367
  63.600         55.83	     8.185
  63.620         60.83	     8.544
  63.640         54.17	     8.062
  63.660         54.17	     8.062
  63.680         55.83	     8.185
  63.700         56.67	     8.246
  63.720         54.17	     8.062
  63.740         56.67	     8.246
  63.760         66.67	     8.944
  63.780         90.83	    10.440
  63.800         79.17	     9.747
  63.820         76.67	     9.592
  63.840         75.83	     9.539
  63.860        117.50	    11.874
  63.880        101.67	    11.045
  63.900        100.00	    10.954
  63.920         87.50	    10.247
  63.940         77.50	     9.644
  63.960         90.83	    10.440
  63.980         76.67	     9.592
  64.000         70.83	     9.220
  64.020         80.00	     9.798
  64.040        100.00	    10.954
  64.060         93.33	    10.583
  64.080         94.17	    10.630
  64.100         79.17	     9.747
  64.120         75.00	     9.487
  64.140         64.17	     8.775
  64.160         65.00	     8.832
  64.180         54.17	     8.062
  64.200         65.00	     8.832
  64.220         53.33	     8.000
  64.240         56.67	     8.246
  64.260         43.33	     7.211
  64.280         47.50	     7.550
  64.300         64.17	     8.775
  64.320         52.50	     7.937
  64.340         65.00	     8.832
  64.360         58.33	     8.367
  64.380         52.50	     7.937
  64.400         54.17	     8.062
  64.420         45.83	     7.416
  64.440         52.50	     7.937
  64.460         45.83	     7.416
  64.480         45.00	     7.348
  64.500         63.33	     8.718
  64.520         65.00	     8.832
  64.540         65.00	     8.832
  64.560         58.33	     8.367
  64.580         63.33	     8.718
  64.600         60.00	     8.485
  64.620         53.33	     8.000
  64.640         65.83	     8.888
  64.660         64.17	     8.775
  64.680         75.83	     9.539
  64.700         76.67	     9.592
  64.720         81.67	     9.899
  64.740         75.83	     9.539
  64.760         62.50	     8.660
  64.780         63.33	     8.718
  64.800         57.50	     8.307
  64.820         50.00	     7.746
  64.840         73.33	     9.381
  64.860         59.17	     8.426
  64.880         59.17	     8.426
  64.900         80.00	     9.798
  64.920         68.33	     9.055
  64.940         60.00	     8.485
  64.960         76.67	     9.592
  64.980         76.67	     9.592
  65.000         61.67	     8.602
