
Filename:
	C:\Program Files\Thermo Electron\WinXRD\Datafiles\F_HERMAN\FIEN\G30_RT.raw

File Created:
	January 30, 2020 - 08:23 AM

Specimen Id:
	G30  RT GRINDED

Specimen Name:
	

Specimen Description:
	

Comment:
Scan Type: 2Theta Scan
Start Angle: 3 deg.
Stop Angle: 65 deg.
Num Points: 3101
Step Size: 0.02 deg.
Scan Rate: 1.000000
Scan Mode: Continuous
Wavelength: 1.540562
\Kalpha1: 1.540562	\Kalpha2: 1.544390	\Kbeta: 1.392218

Optics:
		Detector:
			 Type: Fixed Slits
		Tube: 
			 Type: Fixed Slits


Datas:
 Pos [deg]       Rate [CPS]      ESD [-]

Range 1 ---> Iteration 1
   3.000        422.50	    22.517
   3.020        434.17	    22.825
   3.040        445.83	    23.130
   3.060        438.33	    22.935
   3.080        418.33	    22.405
   3.100        433.33	    22.804
   3.120        472.50	    23.812
   3.140        395.83	    21.794
   3.160        420.83	    22.472
   3.180        414.17	    22.293
   3.200        421.67	    22.494
   3.220        426.67	    22.627
   3.240        430.00	    22.716
   3.260        415.00	    22.316
   3.280        406.67	    22.091
   3.300        407.50	    22.113
   3.320        387.50	    21.564
   3.340        403.33	    22.000
   3.360        360.83	    20.809
   3.380        410.83	    22.204
   3.400        365.83	    20.952
   3.420        398.33	    21.863
   3.440        410.00	    22.181
   3.460        412.50	    22.249
   3.480        380.83	    21.378
   3.500        354.17	    20.616
   3.520        384.17	    21.471
   3.540        386.67	    21.541
   3.560        358.33	    20.736
   3.580        386.67	    21.541
   3.600        378.33	    21.307
   3.620        381.67	    21.401
   3.640        325.00	    19.748
   3.660        375.00	    21.213
   3.680        395.00	    21.772
   3.700        366.67	    20.976
   3.720        365.83	    20.952
   3.740        360.00	    20.785
   3.760        315.83	    19.468
   3.780        357.50	    20.712
   3.800        359.17	    20.761
   3.820        305.83	    19.157
   3.840        345.00	    20.347
   3.860        331.67	    19.950
   3.880        309.17	    19.261
   3.900        335.00	    20.050
   3.920        325.83	    19.774
   3.940        320.83	    19.621
   3.960        326.67	    19.799
   3.980        327.50	    19.824
   4.000        336.67	    20.100
   4.020        312.50	    19.365
   4.040        286.67	    18.547
   4.060        338.33	    20.149
   4.080        309.17	    19.261
   4.100        300.00	    18.974
   4.120        327.50	    19.824
   4.140        305.83	    19.157
   4.160        296.67	    18.868
   4.180        299.17	    18.947
   4.200        301.67	    19.026
   4.220        290.83	    18.682
   4.240        315.83	    19.468
   4.260        290.83	    18.682
   4.280        316.67	    19.494
   4.300        264.17	    17.804
   4.320        305.00	    19.131
   4.340        294.17	    18.788
   4.360        307.50	    19.209
   4.380        305.83	    19.157
   4.400        285.83	    18.520
   4.420        288.33	    18.601
   4.440        252.50	    17.407
   4.460        285.83	    18.520
   4.480        273.33	    18.111
   4.500        305.00	    19.131
   4.520        242.50	    17.059
   4.540        260.00	    17.664
   4.560        277.50	    18.248
   4.580        285.00	    18.493
   4.600        278.33	    18.276
   4.620        270.83	    18.028
   4.640        274.17	    18.138
   4.660        272.50	    18.083
   4.680        259.17	    17.635
   4.700        265.83	    17.861
   4.720        261.67	    17.720
   4.740        240.83	    17.000
   4.760        279.17	    18.303
   4.780        250.00	    17.321
   4.800        242.50	    17.059
   4.820        278.33	    18.276
   4.840        218.33	    16.186
   4.860        252.50	    17.407
   4.880        255.83	    17.521
   4.900        236.67	    16.852
   4.920        240.00	    16.971
   4.940        241.67	    17.029
   4.960        271.67	    18.055
   4.980        252.50	    17.407
   5.000        220.83	    16.279
   5.020        265.83	    17.861
   5.040        251.67	    17.378
   5.060        247.50	    17.234
   5.080        265.83	    17.861
   5.100        234.17	    16.763
   5.120        240.00	    16.971
   5.140        243.33	    17.088
   5.160        239.17	    16.941
   5.180        257.50	    17.578
   5.200        254.17	    17.464
   5.220        248.33	    17.263
   5.240        258.33	    17.607
   5.260        229.17	    16.583
   5.280        208.33	    15.811
   5.300        230.83	    16.643
   5.320        230.83	    16.643
   5.340        239.17	    16.941
   5.360        255.83	    17.521
   5.380        221.67	    16.310
   5.400        218.33	    16.186
   5.420        210.83	    15.906
   5.440        204.17	    15.652
   5.460        231.67	    16.673
   5.480        219.17	    16.217
   5.500        230.83	    16.643
   5.520        197.50	    15.395
   5.540        219.17	    16.217
   5.560        218.33	    16.186
   5.580        229.17	    16.583
   5.600        225.00	    16.432
   5.620        251.67	    17.378
   5.640        234.17	    16.763
   5.660        225.83	    16.462
   5.680        253.33	    17.436
   5.700        220.00	    16.248
   5.720        213.33	    16.000
   5.740        226.67	    16.492
   5.760        224.17	    16.401
   5.780        248.33	    17.263
   5.800        231.67	    16.673
   5.820        256.67	    17.550
   5.840        242.50	    17.059
   5.860        292.50	    18.735
   5.880        309.17	    19.261
   5.900        316.67	    19.494
   5.920        295.83	    18.841
   5.940        285.00	    18.493
   5.960        254.17	    17.464
   5.980        257.50	    17.578
   6.000        260.83	    17.692
   6.020        249.17	    17.292
   6.040        253.33	    17.436
   6.060        235.83	    16.823
   6.080        260.00	    17.664
   6.100        232.50	    16.703
   6.120        262.50	    17.748
   6.140        288.33	    18.601
   6.160        248.33	    17.263
   6.180        255.00	    17.493
   6.200        232.50	    16.703
   6.220        210.00	    15.875
   6.240        182.50	    14.799
   6.260        214.17	    16.031
   6.280        200.83	    15.524
   6.300        210.00	    15.875
   6.320        228.33	    16.553
   6.340        222.50	    16.340
   6.360        198.33	    15.427
   6.380        205.83	    15.716
   6.400        190.00	    15.100
   6.420        190.00	    15.100
   6.440        203.33	    15.620
   6.460        190.00	    15.100
   6.480        186.67	    14.967
   6.500        181.67	    14.765
   6.520        176.67	    14.560
   6.540        210.00	    15.875
   6.560        182.50	    14.799
   6.580        167.50	    14.177
   6.600        200.83	    15.524
   6.620        182.50	    14.799
   6.640        155.00	    13.638
   6.660        195.00	    15.297
   6.680        165.83	    14.107
   6.700        199.17	    15.460
   6.720        170.00	    14.283
   6.740        195.83	    15.330
   6.760        170.83	    14.318
   6.780        168.33	    14.213
   6.800        175.83	    14.526
   6.820        193.33	    15.232
   6.840        175.00	    14.491
   6.860        160.00	    13.856
   6.880        175.00	    14.491
   6.900        161.67	    13.928
   6.920        160.00	    13.856
   6.940        175.00	    14.491
   6.960        180.83	    14.731
   6.980        162.50	    13.964
   7.000        155.00	    13.638
   7.020        165.00	    14.071
   7.040        170.83	    14.318
   7.060        196.67	    15.362
   7.080        191.67	    15.166
   7.100        155.00	    13.638
   7.120        163.33	    14.000
   7.140        177.50	    14.595
   7.160        156.67	    13.711
   7.180        166.67	    14.142
   7.200        150.83	    13.454
   7.220        164.17	    14.036
   7.240        170.00	    14.283
   7.260        175.00	    14.491
   7.280        160.00	    13.856
   7.300        147.50	    13.304
   7.320        175.00	    14.491
   7.340        157.50	    13.748
   7.360        157.50	    13.748
   7.380        175.00	    14.491
   7.400        170.00	    14.283
   7.420        155.00	    13.638
   7.440        155.83	    13.675
   7.460        162.50	    13.964
   7.480        155.83	    13.675
   7.500        144.17	    13.153
   7.520        142.50	    13.077
   7.540        171.67	    14.353
   7.560        142.50	    13.077
   7.580        151.67	    13.491
   7.600        136.67	    12.806
   7.620        156.67	    13.711
   7.640        155.00	    13.638
   7.660        145.00	    13.191
   7.680        146.67	    13.266
   7.700        126.67	    12.329
   7.720        132.50	    12.610
   7.740        144.17	    13.153
   7.760        160.83	    13.892
   7.780        127.50	    12.369
   7.800        145.83	    13.229
   7.820        146.67	    13.266
   7.840        135.83	    12.767
   7.860        171.67	    14.353
   7.880        150.00	    13.416
   7.900        144.17	    13.153
   7.920        138.33	    12.884
   7.940        143.33	    13.115
   7.960        148.33	    13.342
   7.980        152.50	    13.528
   8.000        125.83	    12.288
   8.020        127.50	    12.369
   8.040        160.83	    13.892
   8.060        150.83	    13.454
   8.080        155.83	    13.675
   8.100        154.17	    13.601
   8.120        151.67	    13.491
   8.140        128.33	    12.410
   8.160        132.50	    12.610
   8.180        130.83	    12.530
   8.200        145.83	    13.229
   8.220        145.00	    13.191
   8.240        149.17	    13.379
   8.260        171.67	    14.353
   8.280        147.50	    13.304
   8.300        135.00	    12.728
   8.320        144.17	    13.153
   8.340        133.33	    12.649
   8.360        150.00	    13.416
   8.380        150.00	    13.416
   8.400        153.33	    13.565
   8.420        150.83	    13.454
   8.440        160.00	    13.856
   8.460        150.83	    13.454
   8.480        158.33	    13.784
   8.500        159.17	    13.820
   8.520        161.67	    13.928
   8.540        150.83	    13.454
   8.560        197.50	    15.395
   8.580        182.50	    14.799
   8.600        180.00	    14.697
   8.620        206.67	    15.748
   8.640        212.50	    15.969
   8.660        220.83	    16.279
   8.680        245.00	    17.146
   8.700        310.00	    19.287
   8.720        287.50	    18.574
   8.740        395.83	    21.794
   8.760        515.00	    24.860
   8.780        790.00	    30.790
   8.800        938.33	    33.556
   8.820        787.50	    30.741
   8.840        451.67	    23.281
   8.860        238.33	    16.912
   8.880        175.00	    14.491
   8.900        170.83	    14.318
   8.920        155.00	    13.638
   8.940        160.83	    13.892
   8.960        151.67	    13.491
   8.980        140.83	    13.000
   9.000        120.83	    12.042
   9.020        152.50	    13.528
   9.040        140.83	    13.000
   9.060        146.67	    13.266
   9.080        170.83	    14.318
   9.100        162.50	    13.964
   9.120        148.33	    13.342
   9.140        134.17	    12.689
   9.160        124.17	    12.207
   9.180        117.50	    11.874
   9.200        141.67	    13.038
   9.220        146.67	    13.266
   9.240        133.33	    12.649
   9.260        118.33	    11.916
   9.280        123.33	    12.166
   9.300        107.50	    11.358
   9.320        150.00	    13.416
   9.340        139.17	    12.923
   9.360        126.67	    12.329
   9.380        127.50	    12.369
   9.400        135.83	    12.767
   9.420        124.17	    12.207
   9.440        125.83	    12.288
   9.460        110.83	    11.533
   9.480        124.17	    12.207
   9.500        108.33	    11.402
   9.520        118.33	    11.916
   9.540        111.67	    11.576
   9.560        107.50	    11.358
   9.580        113.33	    11.662
   9.600        124.17	    12.207
   9.620         94.17	    10.630
   9.640        127.50	    12.369
   9.660        123.33	    12.166
   9.680        123.33	    12.166
   9.700        109.17	    11.446
   9.720         90.00	    10.392
   9.740        137.50	    12.845
   9.760        115.83	    11.790
   9.780        105.83	    11.269
   9.800         98.33	    10.863
   9.820        104.17	    11.180
   9.840         99.17	    10.909
   9.860        116.67	    11.832
   9.880        115.83	    11.790
   9.900        130.83	    12.530
   9.920         99.17	    10.909
   9.940        100.83	    11.000
   9.960         85.83	    10.149
   9.980        122.50	    12.124
  10.000        131.67	    12.570
  10.020        108.33	    11.402
  10.040        124.17	    12.207
  10.060        103.33	    11.136
  10.080         99.17	    10.909
  10.100         91.67	    10.488
  10.120        117.50	    11.874
  10.140        108.33	    11.402
  10.160         97.50	    10.817
  10.180         82.50	     9.950
  10.200         95.00	    10.677
  10.220        116.67	    11.832
  10.240        103.33	    11.136
  10.260        115.83	    11.790
  10.280        111.67	    11.576
  10.300        106.67	    11.314
  10.320        104.17	    11.180
  10.340        120.00	    12.000
  10.360        122.50	    12.124
  10.380        120.00	    12.000
  10.400        144.17	    13.153
  10.420        134.17	    12.689
  10.440        154.17	    13.601
  10.460        180.00	    14.697
  10.480        131.67	    12.570
  10.500         86.67	    10.198
  10.520        106.67	    11.314
  10.540         69.17	     9.110
  10.560         96.67	    10.770
  10.580        103.33	    11.136
  10.600        100.00	    10.954
  10.620        106.67	    11.314
  10.640         98.33	    10.863
  10.660        110.00	    11.489
  10.680         89.17	    10.344
  10.700        101.67	    11.045
  10.720         92.50	    10.536
  10.740        100.83	    11.000
  10.760         98.33	    10.863
  10.780         94.17	    10.630
  10.800        103.33	    11.136
  10.820         95.83	    10.724
  10.840         90.00	    10.392
  10.860         90.00	    10.392
  10.880         95.83	    10.724
  10.900         99.17	    10.909
  10.920         93.33	    10.583
  10.940        110.83	    11.533
  10.960        122.50	    12.124
  10.980        107.50	    11.358
  11.000        102.50	    11.091
  11.020         88.33	    10.296
  11.040         95.00	    10.677
  11.060         97.50	    10.817
  11.080        106.67	    11.314
  11.100        107.50	    11.358
  11.120         99.17	    10.909
  11.140        100.00	    10.954
  11.160         78.33	     9.695
  11.180        107.50	    11.358
  11.200         96.67	    10.770
  11.220         96.67	    10.770
  11.240         93.33	    10.583
  11.260         96.67	    10.770
  11.280         97.50	    10.817
  11.300        102.50	    11.091
  11.320        105.00	    11.225
  11.340         97.50	    10.817
  11.360         84.17	    10.050
  11.380        100.00	    10.954
  11.400        103.33	    11.136
  11.420        102.50	    11.091
  11.440        101.67	    11.045
  11.460         96.67	    10.770
  11.480         88.33	    10.296
  11.500         85.00	    10.100
  11.520         98.33	    10.863
  11.540         98.33	    10.863
  11.560         85.00	    10.100
  11.580         96.67	    10.770
  11.600         97.50	    10.817
  11.620         91.67	    10.488
  11.640         99.17	    10.909
  11.660         80.00	     9.798
  11.680         88.33	    10.296
  11.700         80.00	     9.798
  11.720        105.00	    11.225
  11.740         97.50	    10.817
  11.760         72.50	     9.327
  11.780        100.83	    11.000
  11.800         98.33	    10.863
  11.820         94.17	    10.630
  11.840         88.33	    10.296
  11.860         94.17	    10.630
  11.880         91.67	    10.488
  11.900        105.83	    11.269
  11.920        110.83	    11.533
  11.940         95.83	    10.724
  11.960        130.83	    12.530
  11.980        101.67	    11.045
  12.000        103.33	    11.136
  12.020        125.83	    12.288
  12.040        138.33	    12.884
  12.060        195.83	    15.330
  12.080        257.50	    17.578
  12.100        275.83	    18.193
  12.120        233.33	    16.733
  12.140        195.00	    15.297
  12.160        149.17	    13.379
  12.180        152.50	    13.528
  12.200        135.83	    12.767
  12.220        110.83	    11.533
  12.240        140.00	    12.961
  12.260        170.00	    14.283
  12.280        149.17	    13.379
  12.300        163.33	    14.000
  12.320        179.17	    14.663
  12.340        184.17	    14.866
  12.360        213.33	    16.000
  12.380        229.17	    16.583
  12.400        288.33	    18.601
  12.420        281.67	    18.385
  12.440        248.33	    17.263
  12.460        203.33	    15.620
  12.480        126.67	    12.329
  12.500         93.33	    10.583
  12.520         85.83	    10.149
  12.540        104.17	    11.180
  12.560         90.83	    10.440
  12.580         97.50	    10.817
  12.600         76.67	     9.592
  12.620         89.17	    10.344
  12.640        110.00	    11.489
  12.660         78.33	     9.695
  12.680         75.83	     9.539
  12.700         75.00	     9.487
  12.720         80.83	     9.849
  12.740         82.50	     9.950
  12.760         75.00	     9.487
  12.780         90.00	    10.392
  12.800         70.83	     9.220
  12.820         87.50	    10.247
  12.840         70.83	     9.220
  12.860        100.83	    11.000
  12.880         98.33	    10.863
  12.900         84.17	    10.050
  12.920         92.50	    10.536
  12.940         77.50	     9.644
  12.960         71.67	     9.274
  12.980         70.00	     9.165
  13.000         80.83	     9.849
  13.020         75.83	     9.539
  13.040         66.67	     8.944
  13.060         85.00	    10.100
  13.080         79.17	     9.747
  13.100         79.17	     9.747
  13.120         90.83	    10.440
  13.140         76.67	     9.592
  13.160         76.67	     9.592
  13.180         80.00	     9.798
  13.200         83.33	    10.000
  13.220         70.83	     9.220
  13.240        100.00	    10.954
  13.260         79.17	     9.747
  13.280         80.00	     9.798
  13.300         80.00	     9.798
  13.320         74.17	     9.434
  13.340         65.00	     8.832
  13.360         75.00	     9.487
  13.380         79.17	     9.747
  13.400         73.33	     9.381
  13.420         85.00	    10.100
  13.440         71.67	     9.274
  13.460         82.50	     9.950
  13.480         73.33	     9.381
  13.500         79.17	     9.747
  13.520         90.00	    10.392
  13.540         85.00	    10.100
  13.560         79.17	     9.747
  13.580         81.67	     9.899
  13.600         91.67	    10.488
  13.620         85.00	    10.100
  13.640         85.83	    10.149
  13.660         89.17	    10.344
  13.680        106.67	    11.314
  13.700         91.67	    10.488
  13.720        141.67	    13.038
  13.740        151.67	    13.491
  13.760        193.33	    15.232
  13.780        151.67	    13.491
  13.800        132.50	    12.610
  13.820        105.83	    11.269
  13.840         88.33	    10.296
  13.860         82.50	     9.950
  13.880         99.17	    10.909
  13.900         87.50	    10.247
  13.920        101.67	    11.045
  13.940        101.67	    11.045
  13.960         91.67	    10.488
  13.980         78.33	     9.695
  14.000         77.50	     9.644
  14.020         76.67	     9.592
  14.040         71.67	     9.274
  14.060         65.83	     8.888
  14.080         78.33	     9.695
  14.100         72.50	     9.327
  14.120         72.50	     9.327
  14.140         68.33	     9.055
  14.160         59.17	     8.426
  14.180         66.67	     8.944
  14.200         71.67	     9.274
  14.220         68.33	     9.055
  14.240         65.83	     8.888
  14.260         70.00	     9.165
  14.280         74.17	     9.434
  14.300         76.67	     9.592
  14.320         73.33	     9.381
  14.340         76.67	     9.592
  14.360         65.00	     8.832
  14.380         76.67	     9.592
  14.400         75.83	     9.539
  14.420         71.67	     9.274
  14.440         68.33	     9.055
  14.460         55.83	     8.185
  14.480         59.17	     8.426
  14.500         73.33	     9.381
  14.520         80.00	     9.798
  14.540         57.50	     8.307
  14.560         79.17	     9.747
  14.580         76.67	     9.592
  14.600         70.83	     9.220
  14.620         70.00	     9.165
  14.640         70.00	     9.165
  14.660         65.00	     8.832
  14.680         72.50	     9.327
  14.700         63.33	     8.718
  14.720         73.33	     9.381
  14.740         60.83	     8.544
  14.760         60.00	     8.485
  14.780         77.50	     9.644
  14.800         65.83	     8.888
  14.820         65.00	     8.832
  14.840         85.83	    10.149
  14.860         73.33	     9.381
  14.880         66.67	     8.944
  14.900         76.67	     9.592
  14.920         77.50	     9.644
  14.940         81.67	     9.899
  14.960         66.67	     8.944
  14.980         69.17	     9.110
  15.000         63.33	     8.718
  15.020         75.83	     9.539
  15.040         73.33	     9.381
  15.060         73.33	     9.381
  15.080         65.83	     8.888
  15.100         81.67	     9.899
  15.120         67.50	     9.000
  15.140         82.50	     9.950
  15.160         65.00	     8.832
  15.180         63.33	     8.718
  15.200         59.17	     8.426
  15.220         62.50	     8.660
  15.240         93.33	    10.583
  15.260         68.33	     9.055
  15.280         66.67	     8.944
  15.300         60.83	     8.544
  15.320         65.00	     8.832
  15.340         60.83	     8.544
  15.360         65.00	     8.832
  15.380         69.17	     9.110
  15.400         60.83	     8.544
  15.420         61.67	     8.602
  15.440         66.67	     8.944
  15.460         60.83	     8.544
  15.480         64.17	     8.775
  15.500         72.50	     9.327
  15.520         58.33	     8.367
  15.540         58.33	     8.367
  15.560         73.33	     9.381
  15.580         55.83	     8.185
  15.600         71.67	     9.274
  15.620         69.17	     9.110
  15.640         60.83	     8.544
  15.660         66.67	     8.944
  15.680         64.17	     8.775
  15.700         57.50	     8.307
  15.720         76.67	     9.592
  15.740         65.83	     8.888
  15.760         72.50	     9.327
  15.780         74.17	     9.434
  15.800         66.67	     8.944
  15.820         60.00	     8.485
  15.840         58.33	     8.367
  15.860         65.00	     8.832
  15.880         53.33	     8.000
  15.900         55.00	     8.124
  15.920         63.33	     8.718
  15.940         67.50	     9.000
  15.960         65.00	     8.832
  15.980         63.33	     8.718
  16.000         65.00	     8.832
  16.020         61.67	     8.602
  16.040         68.33	     9.055
  16.060         69.17	     9.110
  16.080         60.00	     8.485
  16.100         55.00	     8.124
  16.120         69.17	     9.110
  16.140         60.00	     8.485
  16.160         58.33	     8.367
  16.180         68.33	     9.055
  16.200         59.17	     8.426
  16.220         64.17	     8.775
  16.240         59.17	     8.426
  16.260         65.00	     8.832
  16.280         75.00	     9.487
  16.300         70.00	     9.165
  16.320         53.33	     8.000
  16.340         60.00	     8.485
  16.360         56.67	     8.246
  16.380         66.67	     8.944
  16.400         47.50	     7.550
  16.420         58.33	     8.367
  16.440         55.00	     8.124
  16.460         64.17	     8.775
  16.480         58.33	     8.367
  16.500         60.83	     8.544
  16.520         49.17	     7.681
  16.540         65.83	     8.888
  16.560         63.33	     8.718
  16.580         71.67	     9.274
  16.600         52.50	     7.937
  16.620         51.67	     7.874
  16.640         64.17	     8.775
  16.660         59.17	     8.426
  16.680         71.67	     9.274
  16.700         53.33	     8.000
  16.720         65.00	     8.832
  16.740         65.83	     8.888
  16.760         43.33	     7.211
  16.780         61.67	     8.602
  16.800         58.33	     8.367
  16.820         50.00	     7.746
  16.840         57.50	     8.307
  16.860         52.50	     7.937
  16.880         66.67	     8.944
  16.900         68.33	     9.055
  16.920         56.67	     8.246
  16.940         65.00	     8.832
  16.960         61.67	     8.602
  16.980         55.00	     8.124
  17.000         66.67	     8.944
  17.020         65.00	     8.832
  17.040         65.00	     8.832
  17.060         61.67	     8.602
  17.080         54.17	     8.062
  17.100         59.17	     8.426
  17.120         62.50	     8.660
  17.140         65.00	     8.832
  17.160         64.17	     8.775
  17.180         70.83	     9.220
  17.200         57.50	     8.307
  17.220         65.83	     8.888
  17.240         60.00	     8.485
  17.260         55.83	     8.185
  17.280         54.17	     8.062
  17.300         80.83	     9.849
  17.320         64.17	     8.775
  17.340         53.33	     8.000
  17.360         52.50	     7.937
  17.380         55.00	     8.124
  17.400         61.67	     8.602
  17.420         65.00	     8.832
  17.440         65.00	     8.832
  17.460         62.50	     8.660
  17.480         66.67	     8.944
  17.500         56.67	     8.246
  17.520         85.00	    10.100
  17.540         80.00	     9.798
  17.560         91.67	    10.488
  17.580         91.67	    10.488
  17.600        117.50	    11.874
  17.620         96.67	    10.770
  17.640        105.00	    11.225
  17.660        135.00	    12.728
  17.680        180.00	    14.697
  17.700        257.50	    17.578
  17.720        280.83	    18.358
  17.740        300.00	    18.974
  17.760        276.67	    18.221
  17.780        215.00	    16.062
  17.800        165.00	    14.071
  17.820         89.17	    10.344
  17.840         82.50	     9.950
  17.860         61.67	     8.602
  17.880         70.00	     9.165
  17.900         85.83	    10.149
  17.920         61.67	     8.602
  17.940         52.50	     7.937
  17.960         77.50	     9.644
  17.980         67.50	     9.000
  18.000         53.33	     8.000
  18.020         70.00	     9.165
  18.040         65.83	     8.888
  18.060         53.33	     8.000
  18.080         57.50	     8.307
  18.100         55.00	     8.124
  18.120         65.83	     8.888
  18.140         76.67	     9.592
  18.160         70.83	     9.220
  18.180         70.83	     9.220
  18.200         60.00	     8.485
  18.220         63.33	     8.718
  18.240         68.33	     9.055
  18.260         60.00	     8.485
  18.280         68.33	     9.055
  18.300         95.83	    10.724
  18.320        106.67	    11.314
  18.340         85.83	    10.149
  18.360         90.00	    10.392
  18.380         70.83	     9.220
  18.400         83.33	    10.000
  18.420         78.33	     9.695
  18.440         84.17	    10.050
  18.460         93.33	    10.583
  18.480         95.83	    10.724
  18.500         81.67	     9.899
  18.520         83.33	    10.000
  18.540         79.17	     9.747
  18.560         87.50	    10.247
  18.580         82.50	     9.950
  18.600         90.00	    10.392
  18.620         87.50	    10.247
  18.640         93.33	    10.583
  18.660         95.83	    10.724
  18.680        113.33	    11.662
  18.700        129.17	    12.450
  18.720        140.83	    13.000
  18.740        111.67	    11.576
  18.760        115.00	    11.747
  18.780         80.83	     9.849
  18.800         84.17	    10.050
  18.820         59.17	     8.426
  18.840         66.67	     8.944
  18.860         63.33	     8.718
  18.880         59.17	     8.426
  18.900         64.17	     8.775
  18.920         74.17	     9.434
  18.940         66.67	     8.944
  18.960         65.83	     8.888
  18.980         64.17	     8.775
  19.000         61.67	     8.602
  19.020         73.33	     9.381
  19.040         53.33	     8.000
  19.060         69.17	     9.110
  19.080         76.67	     9.592
  19.100         70.83	     9.220
  19.120         73.33	     9.381
  19.140         63.33	     8.718
  19.160         63.33	     8.718
  19.180         67.50	     9.000
  19.200         65.00	     8.832
  19.220         63.33	     8.718
  19.240         70.83	     9.220
  19.260         68.33	     9.055
  19.280         66.67	     8.944
  19.300         57.50	     8.307
  19.320         65.83	     8.888
  19.340         50.00	     7.746
  19.360         77.50	     9.644
  19.380         61.67	     8.602
  19.400         60.83	     8.544
  19.420         68.33	     9.055
  19.440         47.50	     7.550
  19.460         60.00	     8.485
  19.480         64.17	     8.775
  19.500         79.17	     9.747
  19.520         60.00	     8.485
  19.540         78.33	     9.695
  19.560         87.50	    10.247
  19.580         91.67	    10.488
  19.600         60.83	     8.544
  19.620         83.33	    10.000
  19.640         83.33	    10.000
  19.660         96.67	    10.770
  19.680         93.33	    10.583
  19.700         84.17	    10.050
  19.720         98.33	    10.863
  19.740         98.33	    10.863
  19.760         96.67	    10.770
  19.780         80.00	     9.798
  19.800         97.50	    10.817
  19.820         94.17	    10.630
  19.840         71.67	     9.274
  19.860         86.67	    10.198
  19.880         73.33	     9.381
  19.900         91.67	    10.488
  19.920         63.33	     8.718
  19.940         69.17	     9.110
  19.960         59.17	     8.426
  19.980         62.50	     8.660
  20.000         59.17	     8.426
  20.020         59.17	     8.426
  20.040         54.17	     8.062
  20.060         67.50	     9.000
  20.080         53.33	     8.000
  20.100         60.00	     8.485
  20.120         76.67	     9.592
  20.140         62.50	     8.660
  20.160         61.67	     8.602
  20.180         65.00	     8.832
  20.200         60.00	     8.485
  20.220         58.33	     8.367
  20.240         60.00	     8.485
  20.260         64.17	     8.775
  20.280         50.00	     7.746
  20.300         77.50	     9.644
  20.320         56.67	     8.246
  20.340         55.83	     8.185
  20.360         53.33	     8.000
  20.380         57.50	     8.307
  20.400         62.50	     8.660
  20.420         56.67	     8.246
  20.440         51.67	     7.874
  20.460         60.83	     8.544
  20.480         61.67	     8.602
  20.500         78.33	     9.695
  20.520         73.33	     9.381
  20.540         71.67	     9.274
  20.560         75.00	     9.487
  20.580         65.00	     8.832
  20.600         62.50	     8.660
  20.620         75.83	     9.539
  20.640         84.17	    10.050
  20.660         95.00	    10.677
  20.680        110.83	    11.533
  20.700        150.83	    13.454
  20.720        291.67	    18.708
  20.740        525.00	    25.100
  20.760        783.33	    30.659
  20.780        707.50	    29.138
  20.800        575.00	    26.268
  20.820        493.33	    24.331
  20.840        311.67	    19.339
  20.860        180.83	    14.731
  20.880        105.00	    11.225
  20.900         91.67	    10.488
  20.920         86.67	    10.198
  20.940         76.67	     9.592
  20.960         77.50	     9.644
  20.980         75.83	     9.539
  21.000         62.50	     8.660
  21.020         72.50	     9.327
  21.040         58.33	     8.367
  21.060         49.17	     7.681
  21.080         63.33	     8.718
  21.100         55.00	     8.124
  21.120         56.67	     8.246
  21.140         67.50	     9.000
  21.160         46.67	     7.483
  21.180         55.83	     8.185
  21.200         50.83	     7.810
  21.220         51.67	     7.874
  21.240         66.67	     8.944
  21.260         56.67	     8.246
  21.280         49.17	     7.681
  21.300         64.17	     8.775
  21.320         62.50	     8.660
  21.340         55.83	     8.185
  21.360         59.17	     8.426
  21.380         57.50	     8.307
  21.400         58.33	     8.367
  21.420         65.83	     8.888
  21.440         58.33	     8.367
  21.460         53.33	     8.000
  21.480         64.17	     8.775
  21.500         75.83	     9.539
  21.520         74.17	     9.434
  21.540         66.67	     8.944
  21.560         72.50	     9.327
  21.580         66.67	     8.944
  21.600         57.50	     8.307
  21.620         47.50	     7.550
  21.640         63.33	     8.718
  21.660         62.50	     8.660
  21.680         75.83	     9.539
  21.700         46.67	     7.483
  21.720         55.00	     8.124
  21.740         65.83	     8.888
  21.760         53.33	     8.000
  21.780         56.67	     8.246
  21.800         52.50	     7.937
  21.820         60.00	     8.485
  21.840         69.17	     9.110
  21.860        116.67	    11.832
  21.880        113.33	    11.662
  21.900        119.17	    11.958
  21.920        154.17	    13.601
  21.940        233.33	    16.733
  21.960        254.17	    17.464
  21.980        328.33	    19.849
  22.000        246.67	    17.205
  22.020        177.50	    14.595
  22.040        175.00	    14.491
  22.060        101.67	    11.045
  22.080         87.50	    10.247
  22.100         90.00	    10.392
  22.120         65.83	     8.888
  22.140         72.50	     9.327
  22.160         67.50	     9.000
  22.180         59.17	     8.426
  22.200         70.00	     9.165
  22.220         66.67	     8.944
  22.240         75.00	     9.487
  22.260         75.83	     9.539
  22.280         72.50	     9.327
  22.300         63.33	     8.718
  22.320         78.33	     9.695
  22.340         66.67	     8.944
  22.360         63.33	     8.718
  22.380         69.17	     9.110
  22.400         55.00	     8.124
  22.420         60.00	     8.485
  22.440         67.50	     9.000
  22.460         63.33	     8.718
  22.480         59.17	     8.426
  22.500         50.00	     7.746
  22.520         60.83	     8.544
  22.540         49.17	     7.681
  22.560         55.83	     8.185
  22.580         58.33	     8.367
  22.600         46.67	     7.483
  22.620         56.67	     8.246
  22.640         58.33	     8.367
  22.660         62.50	     8.660
  22.680         57.50	     8.307
  22.700         49.17	     7.681
  22.720         68.33	     9.055
  22.740         70.00	     9.165
  22.760         71.67	     9.274
  22.780         90.00	    10.392
  22.800         96.67	    10.770
  22.820         78.33	     9.695
  22.840         90.83	    10.440
  22.860         84.17	    10.050
  22.880         80.00	     9.798
  22.900         90.00	    10.392
  22.920         70.83	     9.220
  22.940         72.50	     9.327
  22.960         80.83	     9.849
  22.980         87.50	    10.247
  23.000         70.00	     9.165
  23.020         81.67	     9.899
  23.040         80.83	     9.849
  23.060         64.17	     8.775
  23.080         70.00	     9.165
  23.100         62.50	     8.660
  23.120         55.83	     8.185
  23.140         55.00	     8.124
  23.160         58.33	     8.367
  23.180         71.67	     9.274
  23.200         70.00	     9.165
  23.220         55.00	     8.124
  23.240         72.50	     9.327
  23.260         66.67	     8.944
  23.280         55.00	     8.124
  23.300         61.67	     8.602
  23.320         54.17	     8.062
  23.340         65.83	     8.888
  23.360         85.83	    10.149
  23.380         88.33	    10.296
  23.400        120.00	    12.000
  23.420        160.83	    13.892
  23.440        195.83	    15.330
  23.460        188.33	    15.033
  23.480        135.00	    12.728
  23.500        141.67	    13.038
  23.520        118.33	    11.916
  23.540        104.17	    11.180
  23.560         82.50	     9.950
  23.580         64.17	     8.775
  23.600         60.83	     8.544
  23.620         56.67	     8.246
  23.640         85.00	    10.100
  23.660         77.50	     9.644
  23.680         62.50	     8.660
  23.700         75.83	     9.539
  23.720         63.33	     8.718
  23.740         54.17	     8.062
  23.760         78.33	     9.695
  23.780         83.33	    10.000
  23.800         65.00	     8.832
  23.820         64.17	     8.775
  23.840         65.00	     8.832
  23.860         70.00	     9.165
  23.880         75.00	     9.487
  23.900         90.83	    10.440
  23.920         62.50	     8.660
  23.940         75.83	     9.539
  23.960         80.00	     9.798
  23.980         74.17	     9.434
  24.000         73.33	     9.381
  24.020         66.67	     8.944
  24.040         87.50	    10.247
  24.060         90.83	    10.440
  24.080        102.50	    11.091
  24.100         91.67	    10.488
  24.120        107.50	    11.358
  24.140         95.83	    10.724
  24.160        105.00	    11.225
  24.180        112.50	    11.619
  24.200        126.67	    12.329
  24.220        132.50	    12.610
  24.240        105.83	    11.269
  24.260         91.67	    10.488
  24.280         77.50	     9.644
  24.300         80.83	     9.849
  24.320         87.50	    10.247
  24.340         75.00	     9.487
  24.360         85.00	    10.100
  24.380         70.83	     9.220
  24.400         81.67	     9.899
  24.420         96.67	    10.770
  24.440        105.83	    11.269
  24.460        107.50	    11.358
  24.480        131.67	    12.570
  24.500        150.83	    13.454
  24.520        189.17	    15.067
  24.540        200.00	    15.492
  24.560        197.50	    15.395
  24.580        191.67	    15.166
  24.600        133.33	    12.649
  24.620        138.33	    12.884
  24.640        120.83	    12.042
  24.660        110.00	    11.489
  24.680         92.50	    10.536
  24.700         94.17	    10.630
  24.720        107.50	    11.358
  24.740         85.00	    10.100
  24.760         75.83	     9.539
  24.780         90.83	    10.440
  24.800         80.83	     9.849
  24.820        103.33	    11.136
  24.840         89.17	    10.344
  24.860         84.17	    10.050
  24.880         85.00	    10.100
  24.900         91.67	    10.488
  24.920         90.83	    10.440
  24.940         99.17	    10.909
  24.960        117.50	    11.874
  24.980        115.83	    11.790
  25.000        128.33	    12.410
  25.020        154.17	    13.601
  25.040        179.17	    14.663
  25.060        233.33	    16.733
  25.080        221.67	    16.310
  25.100        200.00	    15.492
  25.120        176.67	    14.560
  25.140        142.50	    13.077
  25.160        121.67	    12.083
  25.180         84.17	    10.050
  25.200         92.50	    10.536
  25.220         89.17	    10.344
  25.240         80.00	     9.798
  25.260        100.83	    11.000
  25.280        113.33	    11.662
  25.300        107.50	    11.358
  25.320        119.17	    11.958
  25.340        120.83	    12.042
  25.360        143.33	    13.115
  25.380        136.67	    12.806
  25.400        144.17	    13.153
  25.420        138.33	    12.884
  25.440        144.17	    13.153
  25.460        140.83	    13.000
  25.480        128.33	    12.410
  25.500        119.17	    11.958
  25.520        118.33	    11.916
  25.540        100.83	    11.000
  25.560        122.50	    12.124
  25.580        114.17	    11.705
  25.600         90.83	    10.440
  25.620        100.00	    10.954
  25.640         85.00	    10.100
  25.660         82.50	     9.950
  25.680         65.83	     8.888
  25.700         60.83	     8.544
  25.720         64.17	     8.775
  25.740         59.17	     8.426
  25.760         56.67	     8.246
  25.780         54.17	     8.062
  25.800         63.33	     8.718
  25.820         68.33	     9.055
  25.840         53.33	     8.000
  25.860         47.50	     7.550
  25.880         61.67	     8.602
  25.900         59.17	     8.426
  25.920         62.50	     8.660
  25.940         56.67	     8.246
  25.960         54.17	     8.062
  25.980         61.67	     8.602
  26.000         66.67	     8.944
  26.020         61.67	     8.602
  26.040         66.67	     8.944
  26.060         75.00	     9.487
  26.080         56.67	     8.246
  26.100         77.50	     9.644
  26.120         66.67	     8.944
  26.140         75.83	     9.539
  26.160         75.00	     9.487
  26.180         59.17	     8.426
  26.200         90.00	    10.392
  26.220         92.50	    10.536
  26.240        105.00	    11.225
  26.260         95.00	    10.677
  26.280        104.17	    11.180
  26.300        130.83	    12.530
  26.320        159.17	    13.820
  26.340        145.83	    13.229
  26.360        176.67	    14.560
  26.380        208.33	    15.811
  26.400        197.50	    15.395
  26.420        240.00	    16.971
  26.440        293.33	    18.762
  26.460        411.67	    22.226
  26.480        693.33	    28.844
  26.500       1245.83	    38.665
  26.520       2159.17	    50.902
  26.540       2394.17	    53.600
  26.560       2091.67	    50.100
  26.580       1619.17	    44.079
  26.600       1435.00	    41.497
  26.620       1125.00	    36.742
  26.640        737.50	    29.749
  26.660        453.33	    23.324
  26.680        344.17	    20.322
  26.700        344.17	    20.322
  26.720        439.17	    22.956
  26.740        494.17	    24.352
  26.760        512.50	    24.799
  26.780        605.00	    26.944
  26.800        685.00	    28.671
  26.820        542.50	    25.515
  26.840        397.50	    21.840
  26.860        363.33	    20.881
  26.880        290.00	    18.655
  26.900        196.67	    15.362
  26.920        145.83	    13.229
  26.940        135.00	    12.728
  26.960        125.00	    12.247
  26.980        124.17	    12.207
  27.000        123.33	    12.166
  27.020        110.83	    11.533
  27.040         95.83	    10.724
  27.060         89.17	    10.344
  27.080         89.17	    10.344
  27.100         76.67	     9.592
  27.120         84.17	    10.050
  27.140         76.67	     9.592
  27.160         87.50	    10.247
  27.180         94.17	    10.630
  27.200        111.67	    11.576
  27.220         83.33	    10.000
  27.240         74.17	     9.434
  27.260         76.67	     9.592
  27.280         83.33	    10.000
  27.300         94.17	    10.630
  27.320        127.50	    12.369
  27.340        159.17	    13.820
  27.360        261.67	    17.720
  27.380        503.33	    24.576
  27.400        739.17	    29.783
  27.420        561.67	    25.962
  27.440        353.33	    20.591
  27.460        389.17	    21.610
  27.480        413.33	    22.271
  27.500        225.00	    16.432
  27.520        159.17	    13.820
  27.540        152.50	    13.528
  27.560        137.50	    12.845
  27.580        158.33	    13.784
  27.600        188.33	    15.033
  27.620        233.33	    16.733
  27.640        295.83	    18.841
  27.660        465.83	    23.643
  27.680        485.00	    24.125
  27.700        416.67	    22.361
  27.720        375.00	    21.213
  27.740        407.50	    22.113
  27.760        469.17	    23.728
  27.780        698.33	    28.948
  27.800        589.17	    26.589
  27.820        476.67	    23.917
  27.840        451.67	    23.281
  27.860        493.33	    24.331
  27.880        378.33	    21.307
  27.900        300.00	    18.974
  27.920        215.83	    16.093
  27.940        185.00	    14.900
  27.960        176.67	    14.560
  27.980        173.33	    14.422
  28.000        141.67	    13.038
  28.020        165.83	    14.107
  28.040        131.67	    12.570
  28.060        114.17	    11.705
  28.080        115.83	    11.790
  28.100        115.00	    11.747
  28.120        105.83	    11.269
  28.140        105.83	    11.269
  28.160        117.50	    11.874
  28.180        125.00	    12.247
  28.200        155.00	    13.638
  28.220        156.67	    13.711
  28.240        144.17	    13.153
  28.260        120.00	    12.000
  28.280         96.67	    10.770
  28.300         95.00	    10.677
  28.320         87.50	    10.247
  28.340         96.67	    10.770
  28.360         79.17	     9.747
  28.380         80.00	     9.798
  28.400         80.00	     9.798
  28.420        100.83	    11.000
  28.440         83.33	    10.000
  28.460         89.17	    10.344
  28.480         92.50	    10.536
  28.500         95.83	    10.724
  28.520        104.17	    11.180
  28.540        105.83	    11.269
  28.560         86.67	    10.198
  28.580        100.00	    10.954
  28.600         82.50	     9.950
  28.620         90.83	    10.440
  28.640         80.83	     9.849
  28.660         76.67	     9.592
  28.680         83.33	    10.000
  28.700         76.67	     9.592
  28.720         62.50	     8.660
  28.740         58.33	     8.367
  28.760         57.50	     8.307
  28.780         65.83	     8.888
  28.800         57.50	     8.307
  28.820         55.83	     8.185
  28.840         54.17	     8.062
  28.860         49.17	     7.681
  28.880         55.83	     8.185
  28.900         54.17	     8.062
  28.920         43.33	     7.211
  28.940         64.17	     8.775
  28.960         55.83	     8.185
  28.980         53.33	     8.000
  29.000         57.50	     8.307
  29.020         51.67	     7.874
  29.040         45.83	     7.416
  29.060         54.17	     8.062
  29.080         72.50	     9.327
  29.100         67.50	     9.000
  29.120         76.67	     9.592
  29.140         60.83	     8.544
  29.160         66.67	     8.944
  29.180         90.00	    10.392
  29.200         80.00	     9.798
  29.220         65.00	     8.832
  29.240         69.17	     9.110
  29.260         55.83	     8.185
  29.280         70.00	     9.165
  29.300         63.33	     8.718
  29.320         46.67	     7.483
  29.340         60.00	     8.485
  29.360         49.17	     7.681
  29.380         55.00	     8.124
  29.400         81.67	     9.899
  29.420         68.33	     9.055
  29.440         59.17	     8.426
  29.460         69.17	     9.110
  29.480         58.33	     8.367
  29.500         45.00	     7.348
  29.520         55.83	     8.185
  29.540         54.17	     8.062
  29.560         65.83	     8.888
  29.580         60.83	     8.544
  29.600         61.67	     8.602
  29.620         59.17	     8.426
  29.640         82.50	     9.950
  29.660        100.00	    10.954
  29.680        111.67	    11.576
  29.700        112.50	    11.619
  29.720        164.17	    14.036
  29.740        159.17	    13.820
  29.760        140.83	    13.000
  29.780        161.67	    13.928
  29.800        134.17	    12.689
  29.820        134.17	    12.689
  29.840        127.50	    12.369
  29.860         95.83	    10.724
  29.880         95.00	    10.677
  29.900         90.00	    10.392
  29.920         90.83	    10.440
  29.940         78.33	     9.695
  29.960         86.67	    10.198
  29.980         85.83	    10.149
  30.000         95.83	    10.724
  30.020         79.17	     9.747
  30.040        100.83	    11.000
  30.060        105.83	    11.269
  30.080         97.50	    10.817
  30.100         97.50	    10.817
  30.120         70.83	     9.220
  30.140         94.17	    10.630
  30.160         77.50	     9.644
  30.180         60.00	     8.485
  30.200         78.33	     9.695
  30.220         95.83	    10.724
  30.240        122.50	    12.124
  30.260        136.67	    12.806
  30.280        106.67	    11.314
  30.300        119.17	    11.958
  30.320        144.17	    13.153
  30.340        136.67	    12.806
  30.360        195.00	    15.297
  30.380        278.33	    18.276
  30.400        244.17	    17.117
  30.420        142.50	    13.077
  30.440        175.00	    14.491
  30.460        170.00	    14.283
  30.480        160.00	    13.856
  30.500         95.83	    10.724
  30.520         80.00	     9.798
  30.540         65.00	     8.832
  30.560         61.67	     8.602
  30.580         55.83	     8.185
  30.600         56.67	     8.246
  30.620         64.17	     8.775
  30.640         71.67	     9.274
  30.660         75.00	     9.487
  30.680         78.33	     9.695
  30.700        105.00	    11.225
  30.720        110.83	    11.533
  30.740        130.83	    12.530
  30.760        150.83	    13.454
  30.780        159.17	    13.820
  30.800        105.83	    11.269
  30.820        123.33	    12.166
  30.840         90.00	    10.392
  30.860         90.83	    10.440
  30.880         89.17	    10.344
  30.900         57.50	     8.307
  30.920         61.67	     8.602
  30.940         48.33	     7.616
  30.960         62.50	     8.660
  30.980         63.33	     8.718
  31.000         65.00	     8.832
  31.020         55.00	     8.124
  31.040         65.83	     8.888
  31.060         69.17	     9.110
  31.080         99.17	    10.909
  31.100        117.50	    11.874
  31.120        122.50	    12.124
  31.140        114.17	    11.705
  31.160        108.33	    11.402
  31.180        130.83	    12.530
  31.200        117.50	    11.874
  31.220         97.50	    10.817
  31.240         92.50	    10.536
  31.260         77.50	     9.644
  31.280         90.00	    10.392
  31.300         65.83	     8.888
  31.320         61.67	     8.602
  31.340         57.50	     8.307
  31.360         57.50	     8.307
  31.380         65.00	     8.832
  31.400         64.17	     8.775
  31.420         80.83	     9.849
  31.440         68.33	     9.055
  31.460         72.50	     9.327
  31.480         80.00	     9.798
  31.500         92.50	    10.536
  31.520         71.67	     9.274
  31.540         73.33	     9.381
  31.560         62.50	     8.660
  31.580         56.67	     8.246
  31.600         67.50	     9.000
  31.620         53.33	     8.000
  31.640         49.17	     7.681
  31.660         45.00	     7.348
  31.680         50.00	     7.746
  31.700         56.67	     8.246
  31.720         39.17	     6.856
  31.740         35.83	     6.557
  31.760         57.50	     8.307
  31.780         51.67	     7.874
  31.800         57.50	     8.307
  31.820         64.17	     8.775
  31.840         39.17	     6.856
  31.860         45.00	     7.348
  31.880         66.67	     8.944
  31.900         72.50	     9.327
  31.920         83.33	    10.000
  31.940         80.83	     9.849
  31.960         78.33	     9.695
  31.980         96.67	    10.770
  32.000         80.83	     9.849
  32.020         96.67	    10.770
  32.040         77.50	     9.644
  32.060         70.83	     9.220
  32.080         67.50	     9.000
  32.100         85.00	    10.100
  32.120         71.67	     9.274
  32.140         73.33	     9.381
  32.160         55.83	     8.185
  32.180         50.83	     7.810
  32.200         64.17	     8.775
  32.220         52.50	     7.937
  32.240         46.67	     7.483
  32.260         36.67	     6.633
  32.280         45.83	     7.416
  32.300         36.67	     6.633
  32.320         48.33	     7.616
  32.340         43.33	     7.211
  32.360         42.50	     7.141
  32.380         31.67	     6.164
  32.400         43.33	     7.211
  32.420         42.50	     7.141
  32.440         29.17	     5.916
  32.460         50.83	     7.810
  32.480         37.50	     6.708
  32.500         45.00	     7.348
  32.520         43.33	     7.211
  32.540         37.50	     6.708
  32.560         46.67	     7.483
  32.580         45.00	     7.348
  32.600         51.67	     7.874
  32.620         39.17	     6.856
  32.640         36.67	     6.633
  32.660         45.00	     7.348
  32.680         38.33	     6.782
  32.700         47.50	     7.550
  32.720         34.17	     6.403
  32.740         37.50	     6.708
  32.760         38.33	     6.782
  32.780         54.17	     8.062
  32.800         40.00	     6.928
  32.820         45.00	     7.348
  32.840         46.67	     7.483
  32.860         47.50	     7.550
  32.880         46.67	     7.483
  32.900         44.17	     7.280
  32.920         49.17	     7.681
  32.940         51.67	     7.874
  32.960         55.83	     8.185
  32.980         53.33	     8.000
  33.000         46.67	     7.483
  33.020         51.67	     7.874
  33.040         56.67	     8.246
  33.060         46.67	     7.483
  33.080         58.33	     8.367
  33.100         44.17	     7.280
  33.120         45.83	     7.416
  33.140         39.17	     6.856
  33.160         48.33	     7.616
  33.180         43.33	     7.211
  33.200         41.67	     7.071
  33.220         46.67	     7.483
  33.240         43.33	     7.211
  33.260         46.67	     7.483
  33.280         46.67	     7.483
  33.300         42.50	     7.141
  33.320         50.00	     7.746
  33.340         52.50	     7.937
  33.360         40.83	     7.000
  33.380         42.50	     7.141
  33.400         41.67	     7.071
  33.420         42.50	     7.141
  33.440         49.17	     7.681
  33.460         45.83	     7.416
  33.480         78.33	     9.695
  33.500         51.67	     7.874
  33.520         44.17	     7.280
  33.540         42.50	     7.141
  33.560         40.83	     7.000
  33.580         55.83	     8.185
  33.600         45.83	     7.416
  33.620         42.50	     7.141
  33.640         39.17	     6.856
  33.660         51.67	     7.874
  33.680         48.33	     7.616
  33.700         59.17	     8.426
  33.720         57.50	     8.307
  33.740         46.67	     7.483
  33.760         46.67	     7.483
  33.780         61.67	     8.602
  33.800         58.33	     8.367
  33.820         64.17	     8.775
  33.840         87.50	    10.247
  33.860        127.50	    12.369
  33.880        123.33	    12.166
  33.900        110.00	    11.489
  33.920         91.67	    10.488
  33.940         94.17	    10.630
  33.960        105.83	    11.269
  33.980        100.00	    10.954
  34.000         70.83	     9.220
  34.020         78.33	     9.695
  34.040         67.50	     9.000
  34.060         68.33	     9.055
  34.080         56.67	     8.246
  34.100         63.33	     8.718
  34.120         59.17	     8.426
  34.140         61.67	     8.602
  34.160         64.17	     8.775
  34.180         48.33	     7.616
  34.200         70.00	     9.165
  34.220         64.17	     8.775
  34.240         52.50	     7.937
  34.260         75.00	     9.487
  34.280         70.83	     9.220
  34.300         70.83	     9.220
  34.320         74.17	     9.434
  34.340         71.67	     9.274
  34.360         80.83	     9.849
  34.380         90.83	    10.440
  34.400         97.50	    10.817
  34.420         85.83	    10.149
  34.440        100.00	    10.954
  34.460        121.67	    12.083
  34.480        131.67	    12.570
  34.500        113.33	    11.662
  34.520        103.33	    11.136
  34.540        106.67	    11.314
  34.560        120.83	    12.042
  34.580         86.67	    10.198
  34.600         81.67	     9.899
  34.620         98.33	    10.863
  34.640         76.67	     9.592
  34.660         88.33	    10.296
  34.680         79.17	     9.747
  34.700         84.17	    10.050
  34.720        102.50	    11.091
  34.740        107.50	    11.358
  34.760        126.67	    12.329
  34.780        125.00	    12.247
  34.800        118.33	    11.916
  34.820        122.50	    12.124
  34.840        140.00	    12.961
  34.860        123.33	    12.166
  34.880        143.33	    13.115
  34.900        115.00	    11.747
  34.920        142.50	    13.077
  34.940        131.67	    12.570
  34.960        107.50	    11.358
  34.980        106.67	    11.314
  35.000        102.50	    11.091
  35.020         92.50	    10.536
  35.040         80.83	     9.849
  35.060         76.67	     9.592
  35.080         76.67	     9.592
  35.100         76.67	     9.592
  35.120         67.50	     9.000
  35.140         79.17	     9.747
  35.160         66.67	     8.944
  35.180         78.33	     9.695
  35.200         79.17	     9.747
  35.220         68.33	     9.055
  35.240         79.17	     9.747
  35.260         66.67	     8.944
  35.280         65.83	     8.888
  35.300         87.50	    10.247
  35.320         90.00	    10.392
  35.340         85.83	    10.149
  35.360         77.50	     9.644
  35.380         90.00	    10.392
  35.400         94.17	    10.630
  35.420        102.50	    11.091
  35.440        113.33	    11.662
  35.460        141.67	    13.038
  35.480        122.50	    12.124
  35.500        125.83	    12.288
  35.520        113.33	    11.662
  35.540        106.67	    11.314
  35.560        100.83	    11.000
  35.580         92.50	    10.536
  35.600         94.17	    10.630
  35.620         68.33	     9.055
  35.640         65.83	     8.888
  35.660         83.33	    10.000
  35.680         95.83	    10.724
  35.700        104.17	    11.180
  35.720         87.50	    10.247
  35.740         70.83	     9.220
  35.760         83.33	    10.000
  35.780         65.83	     8.888
  35.800         77.50	     9.644
  35.820         82.50	     9.950
  35.840         58.33	     8.367
  35.860         69.17	     9.110
  35.880         63.33	     8.718
  35.900         77.50	     9.644
  35.920         52.50	     7.937
  35.940         77.50	     9.644
  35.960         74.17	     9.434
  35.980         71.67	     9.274
  36.000         75.83	     9.539
  36.020         77.50	     9.644
  36.040         81.67	     9.899
  36.060         60.83	     8.544
  36.080         59.17	     8.426
  36.100         57.50	     8.307
  36.120         62.50	     8.660
  36.140         63.33	     8.718
  36.160         50.83	     7.810
  36.180         45.00	     7.348
  36.200         41.67	     7.071
  36.220         41.67	     7.071
  36.240         56.67	     8.246
  36.260         55.83	     8.185
  36.280         50.00	     7.746
  36.300         60.00	     8.485
  36.320         66.67	     8.944
  36.340         72.50	     9.327
  36.360         70.83	     9.220
  36.380        122.50	    12.124
  36.400        126.67	    12.329
  36.420        184.17	    14.866
  36.440        184.17	    14.866
  36.460        170.00	    14.283
  36.480        162.50	    13.964
  36.500        150.00	    13.416
  36.520        141.67	    13.038
  36.540        145.00	    13.191
  36.560        124.17	    12.207
  36.580        105.00	    11.225
  36.600        109.17	    11.446
  36.620         95.00	    10.677
  36.640        119.17	    11.958
  36.660        109.17	    11.446
  36.680        100.83	    11.000
  36.700         86.67	    10.198
  36.720         78.33	     9.695
  36.740         75.83	     9.539
  36.760         90.83	    10.440
  36.780         64.17	     8.775
  36.800         70.00	     9.165
  36.820         63.33	     8.718
  36.840         49.17	     7.681
  36.860         55.00	     8.124
  36.880         48.33	     7.616
  36.900         61.67	     8.602
  36.920         57.50	     8.307
  36.940         65.00	     8.832
  36.960         57.50	     8.307
  36.980         46.67	     7.483
  37.000         41.67	     7.071
  37.020         63.33	     8.718
  37.040         51.67	     7.874
  37.060         54.17	     8.062
  37.080         45.83	     7.416
  37.100         50.83	     7.810
  37.120         47.50	     7.550
  37.140         65.00	     8.832
  37.160         47.50	     7.550
  37.180         61.67	     8.602
  37.200         49.17	     7.681
  37.220         51.67	     7.874
  37.240         61.67	     8.602
  37.260         55.83	     8.185
  37.280         70.00	     9.165
  37.300         70.00	     9.165
  37.320         80.00	     9.798
  37.340         84.17	    10.050
  37.360         78.33	     9.695
  37.380         81.67	     9.899
  37.400         79.17	     9.747
  37.420         75.00	     9.487
  37.440         77.50	     9.644
  37.460        105.83	    11.269
  37.480        122.50	    12.124
  37.500        207.50	    15.780
  37.520        240.00	    16.971
  37.540        208.33	    15.811
  37.560        155.00	    13.638
  37.580        136.67	    12.806
  37.600        173.33	    14.422
  37.620        179.17	    14.663
  37.640        131.67	    12.570
  37.660        108.33	    11.402
  37.680         90.83	    10.440
  37.700         72.50	     9.327
  37.720         63.33	     8.718
  37.740         65.00	     8.832
  37.760         63.33	     8.718
  37.780         61.67	     8.602
  37.800         59.17	     8.426
  37.820         59.17	     8.426
  37.840         41.67	     7.071
  37.860         39.17	     6.856
  37.880         41.67	     7.071
  37.900         36.67	     6.633
  37.920         38.33	     6.782
  37.940         32.50	     6.245
  37.960         44.17	     7.280
  37.980         30.83	     6.083
  38.000         46.67	     7.483
  38.020         29.17	     5.916
  38.040         43.33	     7.211
  38.060         32.50	     6.245
  38.080         36.67	     6.633
  38.100         35.83	     6.557
  38.120         40.00	     6.928
  38.140         31.67	     6.164
  38.160         27.50	     5.745
  38.180         48.33	     7.616
  38.200         32.50	     6.245
  38.220         40.83	     7.000
  38.240         35.00	     6.481
  38.260         35.83	     6.557
  38.280         38.33	     6.782
  38.300         34.17	     6.403
  38.320         35.00	     6.481
  38.340         45.83	     7.416
  38.360         43.33	     7.211
  38.380         50.00	     7.746
  38.400         35.83	     6.557
  38.420         71.67	     9.274
  38.440         81.67	     9.899
  38.460         61.67	     8.602
  38.480         55.83	     8.185
  38.500         60.00	     8.485
  38.520         63.33	     8.718
  38.540         80.83	     9.849
  38.560         69.17	     9.110
  38.580         51.67	     7.874
  38.600         63.33	     8.718
  38.620         53.33	     8.000
  38.640         49.17	     7.681
  38.660         53.33	     8.000
  38.680         52.50	     7.937
  38.700         59.17	     8.426
  38.720         48.33	     7.616
  38.740         59.17	     8.426
  38.760         50.83	     7.810
  38.780         55.00	     8.124
  38.800         45.00	     7.348
  38.820         60.00	     8.485
  38.840         48.33	     7.616
  38.860         63.33	     8.718
  38.880         63.33	     8.718
  38.900         65.00	     8.832
  38.920         63.33	     8.718
  38.940         62.50	     8.660
  38.960         47.50	     7.550
  38.980         39.17	     6.856
  39.000         60.83	     8.544
  39.020         43.33	     7.211
  39.040         44.17	     7.280
  39.060         47.50	     7.550
  39.080         50.83	     7.810
  39.100         41.67	     7.071
  39.120         34.17	     6.403
  39.140         44.17	     7.280
  39.160         37.50	     6.708
  39.180         45.00	     7.348
  39.200         44.17	     7.280
  39.220         45.00	     7.348
  39.240         52.50	     7.937
  39.260         65.00	     8.832
  39.280         56.67	     8.246
  39.300         74.17	     9.434
  39.320         89.17	    10.344
  39.340        101.67	    11.045
  39.360        122.50	    12.124
  39.380        141.67	    13.038
  39.400        112.50	    11.619
  39.420         85.83	    10.149
  39.440        103.33	    11.136
  39.460         94.17	    10.630
  39.480         88.33	    10.296
  39.500         87.50	    10.247
  39.520         63.33	     8.718
  39.540         57.50	     8.307
  39.560         55.00	     8.124
  39.580         54.17	     8.062
  39.600         47.50	     7.550
  39.620         45.00	     7.348
  39.640         49.17	     7.681
  39.660         46.67	     7.483
  39.680         47.50	     7.550
  39.700         40.83	     7.000
  39.720         50.00	     7.746
  39.740         45.83	     7.416
  39.760         55.83	     8.185
  39.780         47.50	     7.550
  39.800         43.33	     7.211
  39.820         44.17	     7.280
  39.840         51.67	     7.874
  39.860         53.33	     8.000
  39.880         56.67	     8.246
  39.900         66.67	     8.944
  39.920         62.50	     8.660
  39.940         62.50	     8.660
  39.960         52.50	     7.937
  39.980         52.50	     7.937
  40.000         47.50	     7.550
  40.020         52.50	     7.937
  40.040         54.17	     8.062
  40.060         39.17	     6.856
  40.080         40.00	     6.928
  40.100         59.17	     8.426
  40.120         69.17	     9.110
  40.140         77.50	     9.644
  40.160        140.00	    12.961
  40.180        139.17	    12.923
  40.200        103.33	    11.136
  40.220        108.33	    11.402
  40.240         86.67	    10.198
  40.260         98.33	    10.863
  40.280         95.83	    10.724
  40.300         83.33	    10.000
  40.320         78.33	     9.695
  40.340         55.00	     8.124
  40.360         48.33	     7.616
  40.380         54.17	     8.062
  40.400         52.50	     7.937
  40.420         36.67	     6.633
  40.440         55.83	     8.185
  40.460         40.00	     6.928
  40.480         45.00	     7.348
  40.500         36.67	     6.633
  40.520         39.17	     6.856
  40.540         40.00	     6.928
  40.560         47.50	     7.550
  40.580         43.33	     7.211
  40.600         36.67	     6.633
  40.620         43.33	     7.211
  40.640         51.67	     7.874
  40.660         45.00	     7.348
  40.680         36.67	     6.633
  40.700         44.17	     7.280
  40.720         49.17	     7.681
  40.740         47.50	     7.550
  40.760         44.17	     7.280
  40.780         41.67	     7.071
  40.800         47.50	     7.550
  40.820         60.00	     8.485
  40.840         51.67	     7.874
  40.860         50.83	     7.810
  40.880         53.33	     8.000
  40.900         48.33	     7.616
  40.920         35.83	     6.557
  40.940         47.50	     7.550
  40.960         49.17	     7.681
  40.980         50.83	     7.810
  41.000         43.33	     7.211
  41.020         38.33	     6.782
  41.040         44.17	     7.280
  41.060         45.00	     7.348
  41.080         56.67	     8.246
  41.100         52.50	     7.937
  41.120         51.67	     7.874
  41.140         44.17	     7.280
  41.160         57.50	     8.307
  41.180         56.67	     8.246
  41.200         59.17	     8.426
  41.220         49.17	     7.681
  41.240         49.17	     7.681
  41.260         51.67	     7.874
  41.280         49.17	     7.681
  41.300         50.83	     7.810
  41.320         52.50	     7.937
  41.340         51.67	     7.874
  41.360         46.67	     7.483
  41.380         51.67	     7.874
  41.400         38.33	     6.782
  41.420         42.50	     7.141
  41.440         50.83	     7.810
  41.460         44.17	     7.280
  41.480         45.00	     7.348
  41.500         55.83	     8.185
  41.520         64.17	     8.775
  41.540         72.50	     9.327
  41.560         63.33	     8.718
  41.580         65.00	     8.832
  41.600         80.83	     9.849
  41.620         81.67	     9.899
  41.640         78.33	     9.695
  41.660         90.00	    10.392
  41.680         86.67	    10.198
  41.700         70.00	     9.165
  41.720         73.33	     9.381
  41.740         85.00	    10.100
  41.760         63.33	     8.718
  41.780         56.67	     8.246
  41.800         68.33	     9.055
  41.820         63.33	     8.718
  41.840         65.00	     8.832
  41.860         66.67	     8.944
  41.880         68.33	     9.055
  41.900         81.67	     9.899
  41.920         72.50	     9.327
  41.940         65.00	     8.832
  41.960         54.17	     8.062
  41.980         60.83	     8.544
  42.000         53.33	     8.000
  42.020         70.00	     9.165
  42.040         62.50	     8.660
  42.060         52.50	     7.937
  42.080         60.00	     8.485
  42.100         55.83	     8.185
  42.120         71.67	     9.274
  42.140         57.50	     8.307
  42.160         72.50	     9.327
  42.180         56.67	     8.246
  42.200         73.33	     9.381
  42.220         91.67	    10.488
  42.240         91.67	    10.488
  42.260         84.17	    10.050
  42.280        107.50	    11.358
  42.300        130.83	    12.530
  42.320        183.33	    14.832
  42.340        268.33	    17.944
  42.360        259.17	    17.635
  42.380        210.83	    15.906
  42.400        140.83	    13.000
  42.420        137.50	    12.845
  42.440        136.67	    12.806
  42.460        160.00	    13.856
  42.480        150.83	    13.454
  42.500        114.17	    11.705
  42.520         77.50	     9.644
  42.540         80.00	     9.798
  42.560         68.33	     9.055
  42.580         41.67	     7.071
  42.600         70.83	     9.220
  42.620         48.33	     7.616
  42.640         60.83	     8.544
  42.660         63.33	     8.718
  42.680         50.00	     7.746
  42.700         41.67	     7.071
  42.720         58.33	     8.367
  42.740         45.00	     7.348
  42.760         53.33	     8.000
  42.780         59.17	     8.426
  42.800         56.67	     8.246
  42.820         47.50	     7.550
  42.840         64.17	     8.775
  42.860         68.33	     9.055
  42.880         50.83	     7.810
  42.900         57.50	     8.307
  42.920         57.50	     8.307
  42.940         64.17	     8.775
  42.960         68.33	     9.055
  42.980         58.33	     8.367
  43.000         64.17	     8.775
  43.020         55.00	     8.124
  43.040         53.33	     8.000
  43.060         53.33	     8.000
  43.080         65.83	     8.888
  43.100         59.17	     8.426
  43.120         60.83	     8.544
  43.140         68.33	     9.055
  43.160         63.33	     8.718
  43.180         60.83	     8.544
  43.200         57.50	     8.307
  43.220         49.17	     7.681
  43.240         55.83	     8.185
  43.260         49.17	     7.681
  43.280         65.00	     8.832
  43.300         60.00	     8.485
  43.320         65.00	     8.832
  43.340         72.50	     9.327
  43.360         63.33	     8.718
  43.380         75.83	     9.539
  43.400         89.17	    10.344
  43.420         75.83	     9.539
  43.440         76.67	     9.592
  43.460        101.67	    11.045
  43.480         90.00	    10.392
  43.500         94.17	    10.630
  43.520        100.83	    11.000
  43.540        108.33	    11.402
  43.560         93.33	    10.583
  43.580         81.67	     9.899
  43.600         95.00	    10.677
  43.620         88.33	    10.296
  43.640         92.50	    10.536
  43.660         88.33	    10.296
  43.680         97.50	    10.817
  43.700         93.33	    10.583
  43.720        102.50	    11.091
  43.740        101.67	    11.045
  43.760         78.33	     9.695
  43.780         91.67	    10.488
  43.800         91.67	    10.488
  43.820         91.67	    10.488
  43.840         84.17	    10.050
  43.860         78.33	     9.695
  43.880         91.67	    10.488
  43.900         81.67	     9.899
  43.920         85.83	    10.149
  43.940         90.00	    10.392
  43.960         85.00	    10.100
  43.980         97.50	    10.817
  44.000        100.00	    10.954
  44.020         96.67	    10.770
  44.040        105.83	    11.269
  44.060         97.50	    10.817
  44.080        132.50	    12.610
  44.100        151.67	    13.491
  44.120        133.33	    12.649
  44.140        135.00	    12.728
  44.160        162.50	    13.964
  44.180        171.67	    14.353
  44.200        205.83	    15.716
  44.220        165.83	    14.107
  44.240        198.33	    15.427
  44.260        193.33	    15.232
  44.280        203.33	    15.620
  44.300        245.83	    17.176
  44.320        234.17	    16.763
  44.340        255.83	    17.521
  44.360        241.67	    17.029
  44.380        278.33	    18.276
  44.400        256.67	    17.550
  44.420        276.67	    18.221
  44.440        271.67	    18.055
  44.460        265.00	    17.833
  44.480        269.17	    17.972
  44.500        249.17	    17.292
  44.520        246.67	    17.205
  44.540        244.17	    17.117
  44.560        255.00	    17.493
  44.580        238.33	    16.912
  44.600        204.17	    15.652
  44.620        180.83	    14.731
  44.640        201.67	    15.556
  44.660        187.50	    15.000
  44.680        191.67	    15.166
  44.700        154.17	    13.601
  44.720        164.17	    14.036
  44.740        161.67	    13.928
  44.760        142.50	    13.077
  44.780        135.83	    12.767
  44.800        123.33	    12.166
  44.820        134.17	    12.689
  44.840        148.33	    13.342
  44.860        145.00	    13.191
  44.880        144.17	    13.153
  44.900        110.83	    11.533
  44.920        115.00	    11.747
  44.940        106.67	    11.314
  44.960        110.00	    11.489
  44.980         93.33	    10.583
  45.000        108.33	    11.402
  45.020         95.00	    10.677
  45.040         86.67	    10.198
  45.060         95.83	    10.724
  45.080         83.33	    10.000
  45.100         75.00	     9.487
  45.120         88.33	    10.296
  45.140         75.00	     9.487
  45.160         84.17	    10.050
  45.180         80.83	     9.849
  45.200         75.83	     9.539
  45.220         80.00	     9.798
  45.240         90.83	    10.440
  45.260         95.83	    10.724
  45.280        105.00	    11.225
  45.300        116.67	    11.832
  45.320        115.00	    11.747
  45.340        124.17	    12.207
  45.360        136.67	    12.806
  45.380        153.33	    13.565
  45.400        161.67	    13.928
  45.420        165.83	    14.107
  45.440        174.17	    14.457
  45.460        170.83	    14.318
  45.480        184.17	    14.866
  45.500        202.50	    15.588
  45.520        190.00	    15.100
  45.540        191.67	    15.166
  45.560        142.50	    13.077
  45.580        142.50	    13.077
  45.600        112.50	    11.619
  45.620        124.17	    12.207
  45.640        145.83	    13.229
  45.660        150.00	    13.416
  45.680        181.67	    14.765
  45.700        172.50	    14.387
  45.720        150.00	    13.416
  45.740        139.17	    12.923
  45.760         97.50	    10.817
  45.780        111.67	    11.576
  45.800         89.17	    10.344
  45.820        107.50	    11.358
  45.840        114.17	    11.705
  45.860         89.17	    10.344
  45.880         70.00	     9.165
  45.900         71.67	     9.274
  45.920         69.17	     9.110
  45.940         55.00	     8.124
  45.960         57.50	     8.307
  45.980         50.00	     7.746
  46.000         65.00	     8.832
  46.020         56.67	     8.246
  46.040         50.83	     7.810
  46.060         47.50	     7.550
  46.080         62.50	     8.660
  46.100         40.00	     6.928
  46.120         50.83	     7.810
  46.140         56.67	     8.246
  46.160         33.33	     6.325
  46.180         40.83	     7.000
  46.200         40.83	     7.000
  46.220         45.83	     7.416
  46.240         50.83	     7.810
  46.260         34.17	     6.403
  46.280         41.67	     7.071
  46.300         39.17	     6.856
  46.320         46.67	     7.483
  46.340         43.33	     7.211
  46.360         45.00	     7.348
  46.380         40.83	     7.000
  46.400         32.50	     6.245
  46.420         48.33	     7.616
  46.440         35.83	     6.557
  46.460         45.83	     7.416
  46.480         57.50	     8.307
  46.500         52.50	     7.937
  46.520         61.67	     8.602
  46.540         49.17	     7.681
  46.560         46.67	     7.483
  46.580         40.83	     7.000
  46.600         45.83	     7.416
  46.620         44.17	     7.280
  46.640         50.83	     7.810
  46.660         53.33	     8.000
  46.680         35.00	     6.481
  46.700         46.67	     7.483
  46.720         39.17	     6.856
  46.740         47.50	     7.550
  46.760         42.50	     7.141
  46.780         40.00	     6.928
  46.800         42.50	     7.141
  46.820         39.17	     6.856
  46.840         43.33	     7.211
  46.860         49.17	     7.681
  46.880         45.00	     7.348
  46.900         59.17	     8.426
  46.920         41.67	     7.071
  46.940         55.83	     8.185
  46.960         53.33	     8.000
  46.980         46.67	     7.483
  47.000         55.00	     8.124
  47.020         60.00	     8.485
  47.040         94.17	    10.630
  47.060        107.50	    11.358
  47.080        111.67	    11.576
  47.100         87.50	    10.247
  47.120         62.50	     8.660
  47.140         60.83	     8.544
  47.160         55.00	     8.124
  47.180         64.17	     8.775
  47.200         60.83	     8.544
  47.220         55.83	     8.185
  47.240         48.33	     7.616
  47.260         52.50	     7.937
  47.280         45.83	     7.416
  47.300         33.33	     6.325
  47.320         31.67	     6.164
  47.340         35.83	     6.557
  47.360         50.83	     7.810
  47.380         28.33	     5.831
  47.400         45.00	     7.348
  47.420         48.33	     7.616
  47.440         30.00	     6.000
  47.460         35.83	     6.557
  47.480         42.50	     7.141
  47.500         45.83	     7.416
  47.520         28.33	     5.831
  47.540         35.00	     6.481
  47.560         34.17	     6.403
  47.580         40.83	     7.000
  47.600         35.00	     6.481
  47.620         26.67	     5.657
  47.640         25.00	     5.477
  47.660         28.33	     5.831
  47.680         32.50	     6.245
  47.700         50.83	     7.810
  47.720         48.33	     7.616
  47.740         55.00	     8.124
  47.760         46.67	     7.483
  47.780         45.00	     7.348
  47.800         51.67	     7.874
  47.820         47.50	     7.550
  47.840         57.50	     8.307
  47.860         55.83	     8.185
  47.880         67.50	     9.000
  47.900         50.83	     7.810
  47.920         55.83	     8.185
  47.940         58.33	     8.367
  47.960         50.00	     7.746
  47.980         50.83	     7.810
  48.000         60.83	     8.544
  48.020         58.33	     8.367
  48.040         80.00	     9.798
  48.060         80.00	     9.798
  48.080         63.33	     8.718
  48.100         63.33	     8.718
  48.120         47.50	     7.550
  48.140         57.50	     8.307
  48.160         66.67	     8.944
  48.180         60.83	     8.544
  48.200         43.33	     7.211
  48.220         55.83	     8.185
  48.240         62.50	     8.660
  48.260         55.00	     8.124
  48.280         43.33	     7.211
  48.300         42.50	     7.141
  48.320         51.67	     7.874
  48.340         37.50	     6.708
  48.360         45.83	     7.416
  48.380         33.33	     6.325
  48.400         38.33	     6.782
  48.420         37.50	     6.708
  48.440         41.67	     7.071
  48.460         34.17	     6.403
  48.480         45.83	     7.416
  48.500         39.17	     6.856
  48.520         41.67	     7.071
  48.540         41.67	     7.071
  48.560         44.17	     7.280
  48.580         54.17	     8.062
  48.600         42.50	     7.141
  48.620         40.00	     6.928
  48.640         27.50	     5.745
  48.660         42.50	     7.141
  48.680         30.83	     6.083
  48.700         53.33	     8.000
  48.720         36.67	     6.633
  48.740         36.67	     6.633
  48.760         35.83	     6.557
  48.780         35.83	     6.557
  48.800         39.17	     6.856
  48.820         40.00	     6.928
  48.840         38.33	     6.782
  48.860         45.83	     7.416
  48.880         39.17	     6.856
  48.900         26.67	     5.657
  48.920         34.17	     6.403
  48.940         40.83	     7.000
  48.960         35.00	     6.481
  48.980         38.33	     6.782
  49.000         46.67	     7.483
  49.020         23.33	     5.292
  49.040         39.17	     6.856
  49.060         41.67	     7.071
  49.080         55.00	     8.124
  49.100         52.50	     7.937
  49.120         37.50	     6.708
  49.140         57.50	     8.307
  49.160         46.67	     7.483
  49.180         51.67	     7.874
  49.200         48.33	     7.616
  49.220         53.33	     8.000
  49.240         35.00	     6.481
  49.260         45.00	     7.348
  49.280         47.50	     7.550
  49.300         29.17	     5.916
  49.320         30.00	     6.000
  49.340         37.50	     6.708
  49.360         34.17	     6.403
  49.380         34.17	     6.403
  49.400         40.83	     7.000
  49.420         43.33	     7.211
  49.440         37.50	     6.708
  49.460         45.83	     7.416
  49.480         46.67	     7.483
  49.500         43.33	     7.211
  49.520         35.00	     6.481
  49.540         35.83	     6.557
  49.560         41.67	     7.071
  49.580         46.67	     7.483
  49.600         38.33	     6.782
  49.620         56.67	     8.246
  49.640         50.83	     7.810
  49.660         52.50	     7.937
  49.680         73.33	     9.381
  49.700         59.17	     8.426
  49.720         70.83	     9.220
  49.740         60.00	     8.485
  49.760         67.50	     9.000
  49.780         61.67	     8.602
  49.800         64.17	     8.775
  49.820         70.83	     9.220
  49.840         68.33	     9.055
  49.860         74.17	     9.434
  49.880         79.17	     9.747
  49.900         76.67	     9.592
  49.920         81.67	     9.899
  49.940        116.67	    11.832
  49.960        177.50	    14.595
  49.980        240.00	    16.971
  50.000        289.17	    18.628
  50.020        364.17	    20.905
  50.040        262.50	    17.748
  50.060        200.83	    15.524
  50.080        164.17	    14.036
  50.100        170.83	    14.318
  50.120        166.67	    14.142
  50.140        212.50	    15.969
  50.160        222.50	    16.340
  50.180        181.67	    14.765
  50.200        130.83	    12.530
  50.220         86.67	    10.198
  50.240         66.67	     8.944
  50.260         55.83	     8.185
  50.280         47.50	     7.550
  50.300         60.00	     8.485
  50.320         40.00	     6.928
  50.340         49.17	     7.681
  50.360         48.33	     7.616
  50.380         43.33	     7.211
  50.400         63.33	     8.718
  50.420         47.50	     7.550
  50.440         56.67	     8.246
  50.460         55.83	     8.185
  50.480         59.17	     8.426
  50.500         84.17	    10.050
  50.520         75.83	     9.539
  50.540         95.00	    10.677
  50.560        101.67	    11.045
  50.580         95.83	    10.724
  50.600         91.67	    10.488
  50.620         80.83	     9.849
  50.640         90.00	    10.392
  50.660         83.33	    10.000
  50.680         70.83	     9.220
  50.700         66.67	     8.944
  50.720         54.17	     8.062
  50.740         65.00	     8.832
  50.760         61.67	     8.602
  50.780         52.50	     7.937
  50.800         38.33	     6.782
  50.820         55.83	     8.185
  50.840         43.33	     7.211
  50.860         44.17	     7.280
  50.880         45.00	     7.348
  50.900         42.50	     7.141
  50.920         45.83	     7.416
  50.940         47.50	     7.550
  50.960         50.83	     7.810
  50.980         46.67	     7.483
  51.000         40.83	     7.000
  51.020         51.67	     7.874
  51.040         48.33	     7.616
  51.060         51.67	     7.874
  51.080         45.83	     7.416
  51.100         44.17	     7.280
  51.120         46.67	     7.483
  51.140         63.33	     8.718
  51.160         45.00	     7.348
  51.180         52.50	     7.937
  51.200         41.67	     7.071
  51.220         55.83	     8.185
  51.240         42.50	     7.141
  51.260         41.67	     7.071
  51.280         32.50	     6.245
  51.300         45.00	     7.348
  51.320         37.50	     6.708
  51.340         32.50	     6.245
  51.360         50.00	     7.746
  51.380         39.17	     6.856
  51.400         54.17	     8.062
  51.420         60.00	     8.485
  51.440         66.67	     8.944
  51.460         61.67	     8.602
  51.480         65.83	     8.888
  51.500         55.83	     8.185
  51.520         50.83	     7.810
  51.540         45.00	     7.348
  51.560         50.00	     7.746
  51.580         47.50	     7.550
  51.600         45.83	     7.416
  51.620         54.17	     8.062
  51.640         35.83	     6.557
  51.660         41.67	     7.071
  51.680         35.00	     6.481
  51.700         30.00	     6.000
  51.720         41.67	     7.071
  51.740         32.50	     6.245
  51.760         30.83	     6.083
  51.780         37.50	     6.708
  51.800         43.33	     7.211
  51.820         42.50	     7.141
  51.840         36.67	     6.633
  51.860         36.67	     6.633
  51.880         34.17	     6.403
  51.900         30.00	     6.000
  51.920         36.67	     6.633
  51.940         31.67	     6.164
  51.960         30.83	     6.083
  51.980         22.50	     5.196
  52.000         50.83	     7.810
  52.020         66.67	     8.944
  52.040         82.50	     9.950
  52.060         83.33	    10.000
  52.080         67.50	     9.000
  52.100         50.00	     7.746
  52.120         51.67	     7.874
  52.140         56.67	     8.246
  52.160         58.33	     8.367
  52.180         69.17	     9.110
  52.200         71.67	     9.274
  52.220         64.17	     8.775
  52.240         61.67	     8.602
  52.260         49.17	     7.681
  52.280         58.33	     8.367
  52.300         41.67	     7.071
  52.320         44.17	     7.280
  52.340         40.83	     7.000
  52.360         48.33	     7.616
  52.380         38.33	     6.782
  52.400         42.50	     7.141
  52.420         61.67	     8.602
  52.440         40.83	     7.000
  52.460         46.67	     7.483
  52.480         39.17	     6.856
  52.500         48.33	     7.616
  52.520         33.33	     6.325
  52.540         37.50	     6.708
  52.560         50.00	     7.746
  52.580         44.17	     7.280
  52.600         36.67	     6.633
  52.620         40.00	     6.928
  52.640         41.67	     7.071
  52.660         35.83	     6.557
  52.680         35.83	     6.557
  52.700         41.67	     7.071
  52.720         39.17	     6.856
  52.740         40.83	     7.000
  52.760         45.83	     7.416
  52.780         28.33	     5.831
  52.800         41.67	     7.071
  52.820         50.00	     7.746
  52.840         37.50	     6.708
  52.860         63.33	     8.718
  52.880         52.50	     7.937
  52.900         51.67	     7.874
  52.920         44.17	     7.280
  52.940         46.67	     7.483
  52.960         55.00	     8.124
  52.980         40.83	     7.000
  53.000         37.50	     6.708
  53.020         40.83	     7.000
  53.040         41.67	     7.071
  53.060         48.33	     7.616
  53.080         46.67	     7.483
  53.100         47.50	     7.550
  53.120         40.00	     6.928
  53.140         40.83	     7.000
  53.160         45.83	     7.416
  53.180         44.17	     7.280
  53.200         34.17	     6.403
  53.220         44.17	     7.280
  53.240         44.17	     7.280
  53.260         54.17	     8.062
  53.280         46.67	     7.483
  53.300         50.83	     7.810
  53.320         60.83	     8.544
  53.340         50.00	     7.746
  53.360         40.83	     7.000
  53.380         36.67	     6.633
  53.400         34.17	     6.403
  53.420         47.50	     7.550
  53.440         40.00	     6.928
  53.460         44.17	     7.280
  53.480         38.33	     6.782
  53.500         42.50	     7.141
  53.520         75.83	     9.539
  53.540         86.67	    10.198
  53.560        114.17	    11.705
  53.580        115.83	    11.790
  53.600         92.50	    10.536
  53.620         64.17	     8.775
  53.640         56.67	     8.246
  53.660         55.83	     8.185
  53.680         75.83	     9.539
  53.700         75.00	     9.487
  53.720         80.00	     9.798
  53.740         69.17	     9.110
  53.760         55.83	     8.185
  53.780         50.00	     7.746
  53.800         36.67	     6.633
  53.820         48.33	     7.616
  53.840         41.67	     7.071
  53.860         39.17	     6.856
  53.880         41.67	     7.071
  53.900         34.17	     6.403
  53.920         40.83	     7.000
  53.940         54.17	     8.062
  53.960         52.50	     7.937
  53.980         45.00	     7.348
  54.000         36.67	     6.633
  54.020         43.33	     7.211
  54.040         30.00	     6.000
  54.060         44.17	     7.280
  54.080         30.83	     6.083
  54.100         32.50	     6.245
  54.120         44.17	     7.280
  54.140         34.17	     6.403
  54.160         41.67	     7.071
  54.180         39.17	     6.856
  54.200         45.83	     7.416
  54.220         39.17	     6.856
  54.240         40.00	     6.928
  54.260         50.00	     7.746
  54.280         40.83	     7.000
  54.300         42.50	     7.141
  54.320         40.00	     6.928
  54.340         44.17	     7.280
  54.360         42.50	     7.141
  54.380         45.83	     7.416
  54.400         42.50	     7.141
  54.420         44.17	     7.280
  54.440         46.67	     7.483
  54.460         45.00	     7.348
  54.480         47.50	     7.550
  54.500         39.17	     6.856
  54.520         47.50	     7.550
  54.540         47.50	     7.550
  54.560         46.67	     7.483
  54.580         51.67	     7.874
  54.600         52.50	     7.937
  54.620         51.67	     7.874
  54.640         38.33	     6.782
  54.660         50.83	     7.810
  54.680         67.50	     9.000
  54.700         81.67	     9.899
  54.720         85.00	    10.100
  54.740        125.83	    12.288
  54.760        153.33	    13.565
  54.780        189.17	    15.067
  54.800        125.83	    12.288
  54.820         93.33	    10.583
  54.840         85.83	    10.149
  54.860         82.50	     9.950
  54.880         71.67	     9.274
  54.900        108.33	    11.402
  54.920        122.50	    12.124
  54.940        111.67	    11.576
  54.960         74.17	     9.434
  54.980         69.17	     9.110
  55.000         60.83	     8.544
  55.020         52.50	     7.937
  55.040         58.33	     8.367
  55.060         54.17	     8.062
  55.080         53.33	     8.000
  55.100         47.50	     7.550
  55.120         50.83	     7.810
  55.140         61.67	     8.602
  55.160         58.33	     8.367
  55.180         75.00	     9.487
  55.200         67.50	     9.000
  55.220         68.33	     9.055
  55.240         57.50	     8.307
  55.260         63.33	     8.718
  55.280         60.83	     8.544
  55.300         55.83	     8.185
  55.320         52.50	     7.937
  55.340         60.83	     8.544
  55.360         56.67	     8.246
  55.380         46.67	     7.483
  55.400         50.83	     7.810
  55.420         51.67	     7.874
  55.440         38.33	     6.782
  55.460         50.83	     7.810
  55.480         40.00	     6.928
  55.500         41.67	     7.071
  55.520         40.83	     7.000
  55.540         37.50	     6.708
  55.560         50.00	     7.746
  55.580         58.33	     8.367
  55.600         44.17	     7.280
  55.620         52.50	     7.937
  55.640         63.33	     8.718
  55.660         57.50	     8.307
  55.680         76.67	     9.592
  55.700         60.83	     8.544
  55.720         58.33	     8.367
  55.740         75.83	     9.539
  55.760         72.50	     9.327
  55.780         64.17	     8.775
  55.800         45.00	     7.348
  55.820         68.33	     9.055
  55.840         59.17	     8.426
  55.860         56.67	     8.246
  55.880         56.67	     8.246
  55.900         69.17	     9.110
  55.920         65.00	     8.832
  55.940         50.00	     7.746
  55.960         43.33	     7.211
  55.980         50.83	     7.810
  56.000         55.00	     8.124
  56.020         56.67	     8.246
  56.040         52.50	     7.937
  56.060         60.83	     8.544
  56.080         71.67	     9.274
  56.100         55.83	     8.185
  56.120         51.67	     7.874
  56.140         58.33	     8.367
  56.160         46.67	     7.483
  56.180         50.83	     7.810
  56.200         42.50	     7.141
  56.220         51.67	     7.874
  56.240         49.17	     7.681
  56.260         50.83	     7.810
  56.280         53.33	     8.000
  56.300         49.17	     7.681
  56.320         45.83	     7.416
  56.340         37.50	     6.708
  56.360         39.17	     6.856
  56.380         33.33	     6.325
  56.400         49.17	     7.681
  56.420         50.83	     7.810
  56.440         35.83	     6.557
  56.460         41.67	     7.071
  56.480         43.33	     7.211
  56.500         37.50	     6.708
  56.520         38.33	     6.782
  56.540         39.17	     6.856
  56.560         44.17	     7.280
  56.580         51.67	     7.874
  56.600         40.00	     6.928
  56.620         40.83	     7.000
  56.640         38.33	     6.782
  56.660         30.00	     6.000
  56.680         40.83	     7.000
  56.700         50.00	     7.746
  56.720         39.17	     6.856
  56.740         36.67	     6.633
  56.760         36.67	     6.633
  56.780         30.00	     6.000
  56.800         33.33	     6.325
  56.820         34.17	     6.403
  56.840         39.17	     6.856
  56.860         41.67	     7.071
  56.880         52.50	     7.937
  56.900         40.83	     7.000
  56.920         40.83	     7.000
  56.940         32.50	     6.245
  56.960         40.83	     7.000
  56.980         40.83	     7.000
  57.000         32.50	     6.245
  57.020         32.50	     6.245
  57.040         40.00	     6.928
  57.060         58.33	     8.367
  57.080         43.33	     7.211
  57.100         39.17	     6.856
  57.120         48.33	     7.616
  57.140         43.33	     7.211
  57.160         45.83	     7.416
  57.180         38.33	     6.782
  57.200         42.50	     7.141
  57.220         39.17	     6.856
  57.240         40.00	     6.928
  57.260         42.50	     7.141
  57.280         41.67	     7.071
  57.300         38.33	     6.782
  57.320         50.83	     7.810
  57.340         30.83	     6.083
  57.360         36.67	     6.633
  57.380         51.67	     7.874
  57.400         41.67	     7.071
  57.420         34.17	     6.403
  57.440         40.83	     7.000
  57.460         45.83	     7.416
  57.480         39.17	     6.856
  57.500         40.00	     6.928
  57.520         49.17	     7.681
  57.540         34.17	     6.403
  57.560         37.50	     6.708
  57.580         36.67	     6.633
  57.600         39.17	     6.856
  57.620         31.67	     6.164
  57.640         45.00	     7.348
  57.660         35.00	     6.481
  57.680         34.17	     6.403
  57.700         50.83	     7.810
  57.720         52.50	     7.937
  57.740         54.17	     8.062
  57.760         46.67	     7.483
  57.780         30.00	     6.000
  57.800         39.17	     6.856
  57.820         37.50	     6.708
  57.840         37.50	     6.708
  57.860         30.00	     6.000
  57.880         42.50	     7.141
  57.900         45.00	     7.348
  57.920         49.17	     7.681
  57.940         54.17	     8.062
  57.960         44.17	     7.280
  57.980         45.00	     7.348
  58.000         37.50	     6.708
  58.020         42.50	     7.141
  58.040         39.17	     6.856
  58.060         36.67	     6.633
  58.080         38.33	     6.782
  58.100         49.17	     7.681
  58.120         39.17	     6.856
  58.140         34.17	     6.403
  58.160         50.83	     7.810
  58.180         35.83	     6.557
  58.200         33.33	     6.325
  58.220         51.67	     7.874
  58.240         30.00	     6.000
  58.260         33.33	     6.325
  58.280         40.83	     7.000
  58.300         51.67	     7.874
  58.320         43.33	     7.211
  58.340         35.00	     6.481
  58.360         42.50	     7.141
  58.380         47.50	     7.550
  58.400         41.67	     7.071
  58.420         41.67	     7.071
  58.440         40.00	     6.928
  58.460         43.33	     7.211
  58.480         44.17	     7.280
  58.500         56.67	     8.246
  58.520         57.50	     8.307
  58.540         45.00	     7.348
  58.560         53.33	     8.000
  58.580         56.67	     8.246
  58.600         48.33	     7.616
  58.620         60.00	     8.485
  58.640         51.67	     7.874
  58.660         60.83	     8.544
  58.680         52.50	     7.937
  58.700         60.00	     8.485
  58.720         40.83	     7.000
  58.740         51.67	     7.874
  58.760         55.00	     8.124
  58.780         43.33	     7.211
  58.800         48.33	     7.616
  58.820         36.67	     6.633
  58.840         35.00	     6.481
  58.860         57.50	     8.307
  58.880         50.00	     7.746
  58.900         55.00	     8.124
  58.920         56.67	     8.246
  58.940         53.33	     8.000
  58.960         53.33	     8.000
  58.980         44.17	     7.280
  59.000         60.00	     8.485
  59.020         47.50	     7.550
  59.040         54.17	     8.062
  59.060         54.17	     8.062
  59.080         55.83	     8.185
  59.100         59.17	     8.426
  59.120         44.17	     7.280
  59.140         50.00	     7.746
  59.160         50.83	     7.810
  59.180         70.83	     9.220
  59.200         44.17	     7.280
  59.220         50.83	     7.810
  59.240         40.00	     6.928
  59.260         58.33	     8.367
  59.280         70.00	     9.165
  59.300         40.00	     6.928
  59.320         43.33	     7.211
  59.340         50.83	     7.810
  59.360         44.17	     7.280
  59.380         48.33	     7.616
  59.400         43.33	     7.211
  59.420         44.17	     7.280
  59.440         50.00	     7.746
  59.460         51.67	     7.874
  59.480         45.83	     7.416
  59.500         44.17	     7.280
  59.520         38.33	     6.782
  59.540         35.00	     6.481
  59.560         45.00	     7.348
  59.580         51.67	     7.874
  59.600         41.67	     7.071
  59.620         50.83	     7.810
  59.640         60.00	     8.485
  59.660         51.67	     7.874
  59.680         65.00	     8.832
  59.700         47.50	     7.550
  59.720         69.17	     9.110
  59.740         79.17	     9.747
  59.760         90.00	    10.392
  59.780        109.17	    11.446
  59.800        148.33	    13.342
  59.820        182.50	    14.799
  59.840        245.83	    17.176
  59.860        240.83	    17.000
  59.880        187.50	    15.000
  59.900        153.33	    13.565
  59.920        119.17	    11.958
  59.940        101.67	    11.045
  59.960        114.17	    11.705
  59.980        115.00	    11.747
  60.000        130.83	    12.530
  60.020        145.83	    13.229
  60.040        133.33	    12.649
  60.060        117.50	    11.874
  60.080         94.17	    10.630
  60.100         54.17	     8.062
  60.120         55.00	     8.124
  60.140         55.83	     8.185
  60.160         56.67	     8.246
  60.180         48.33	     7.616
  60.200         56.67	     8.246
  60.220         59.17	     8.426
  60.240         57.50	     8.307
  60.260         54.17	     8.062
  60.280         42.50	     7.141
  60.300         62.50	     8.660
  60.320         47.50	     7.550
  60.340         37.50	     6.708
  60.360         62.50	     8.660
  60.380         57.50	     8.307
  60.400         43.33	     7.211
  60.420         52.50	     7.937
  60.440         46.67	     7.483
  60.460         40.00	     6.928
  60.480         39.17	     6.856
  60.500         61.67	     8.602
  60.520         55.00	     8.124
  60.540         57.50	     8.307
  60.560         45.83	     7.416
  60.580         54.17	     8.062
  60.600         55.83	     8.185
  60.620         49.17	     7.681
  60.640         45.00	     7.348
  60.660         54.17	     8.062
  60.680         60.00	     8.485
  60.700         54.17	     8.062
  60.720         59.17	     8.426
  60.740         60.00	     8.485
  60.760         59.17	     8.426
  60.780         62.50	     8.660
  60.800         80.00	     9.798
  60.820         75.00	     9.487
  60.840         60.00	     8.485
  60.860         65.00	     8.832
  60.880         60.83	     8.544
  60.900         60.83	     8.544
  60.920         56.67	     8.246
  60.940         53.33	     8.000
  60.960         48.33	     7.616
  60.980         60.00	     8.485
  61.000         55.00	     8.124
  61.020         59.17	     8.426
  61.040         40.83	     7.000
  61.060         48.33	     7.616
  61.080         40.83	     7.000
  61.100         52.50	     7.937
  61.120         54.17	     8.062
  61.140         45.83	     7.416
  61.160         39.17	     6.856
  61.180         52.50	     7.937
  61.200         48.33	     7.616
  61.220         56.67	     8.246
  61.240         64.17	     8.775
  61.260         57.50	     8.307
  61.280         53.33	     8.000
  61.300         70.00	     9.165
  61.320         60.83	     8.544
  61.340         70.83	     9.220
  61.360         70.00	     9.165
  61.380         83.33	    10.000
  61.400         76.67	     9.592
  61.420         63.33	     8.718
  61.440         76.67	     9.592
  61.460         80.83	     9.849
  61.480         66.67	     8.944
  61.500         79.17	     9.747
  61.520         77.50	     9.644
  61.540         80.00	     9.798
  61.560         75.83	     9.539
  61.580         77.50	     9.644
  61.600         73.33	     9.381
  61.620         81.67	     9.899
  61.640         61.67	     8.602
  61.660         77.50	     9.644
  61.680         75.83	     9.539
  61.700         54.17	     8.062
  61.720         62.50	     8.660
  61.740         61.67	     8.602
  61.760         50.83	     7.810
  61.780         56.67	     8.246
  61.800         55.83	     8.185
  61.820         61.67	     8.602
  61.840         56.67	     8.246
  61.860         50.83	     7.810
  61.880         54.17	     8.062
  61.900         45.83	     7.416
  61.920         59.17	     8.426
  61.940         47.50	     7.550
  61.960         45.00	     7.348
  61.980         65.83	     8.888
  62.000         41.67	     7.071
  62.020         32.50	     6.245
  62.040         42.50	     7.141
  62.060         39.17	     6.856
  62.080         43.33	     7.211
  62.100         37.50	     6.708
  62.120         35.83	     6.557
  62.140         45.83	     7.416
  62.160         41.67	     7.071
  62.180         45.83	     7.416
  62.200         50.83	     7.810
  62.220         31.67	     6.164
  62.240         36.67	     6.633
  62.260         33.33	     6.325
  62.280         23.33	     5.292
  62.300         40.00	     6.928
  62.320         40.00	     6.928
  62.340         38.33	     6.782
  62.360         30.83	     6.083
  62.380         37.50	     6.708
  62.400         24.17	     5.385
  62.420         34.17	     6.403
  62.440         40.83	     7.000
  62.460         31.67	     6.164
  62.480         39.17	     6.856
  62.500         43.33	     7.211
  62.520         35.00	     6.481
  62.540         37.50	     6.708
  62.560         34.17	     6.403
  62.580         36.67	     6.633
  62.600         36.67	     6.633
  62.620         30.83	     6.083
  62.640         45.00	     7.348
  62.660         35.83	     6.557
  62.680         41.67	     7.071
  62.700         47.50	     7.550
  62.720         45.00	     7.348
  62.740         40.83	     7.000
  62.760         44.17	     7.280
  62.780         47.50	     7.550
  62.800         44.17	     7.280
  62.820         36.67	     6.633
  62.840         40.00	     6.928
  62.860         40.83	     7.000
  62.880         45.83	     7.416
  62.900         31.67	     6.164
  62.920         36.67	     6.633
  62.940         41.67	     7.071
  62.960         46.67	     7.483
  62.980         40.83	     7.000
  63.000         39.17	     6.856
  63.020         33.33	     6.325
  63.040         45.00	     7.348
  63.060         40.00	     6.928
  63.080         46.67	     7.483
  63.100         37.50	     6.708
  63.120         36.67	     6.633
  63.140         34.17	     6.403
  63.160         35.83	     6.557
  63.180         47.50	     7.550
  63.200         46.67	     7.483
  63.220         50.00	     7.746
  63.240         38.33	     6.782
  63.260         31.67	     6.164
  63.280         53.33	     8.000
  63.300         38.33	     6.782
  63.320         45.00	     7.348
  63.340         44.17	     7.280
  63.360         49.17	     7.681
  63.380         59.17	     8.426
  63.400         50.83	     7.810
  63.420         40.83	     7.000
  63.440         46.67	     7.483
  63.460         65.00	     8.832
  63.480         42.50	     7.141
  63.500         49.17	     7.681
  63.520         49.17	     7.681
  63.540         36.67	     6.633
  63.560         53.33	     8.000
  63.580         43.33	     7.211
  63.600         40.00	     6.928
  63.620         43.33	     7.211
  63.640         48.33	     7.616
  63.660         52.50	     7.937
  63.680         41.67	     7.071
  63.700         42.50	     7.141
  63.720         55.83	     8.185
  63.740         49.17	     7.681
  63.760         50.00	     7.746
  63.780         45.00	     7.348
  63.800         47.50	     7.550
  63.820         47.50	     7.550
  63.840         49.17	     7.681
  63.860         64.17	     8.775
  63.880         67.50	     9.000
  63.900         63.33	     8.718
  63.920         85.00	    10.100
  63.940         83.33	    10.000
  63.960         94.17	    10.630
  63.980         59.17	     8.426
  64.000         65.83	     8.888
  64.020         56.67	     8.246
  64.040         52.50	     7.937
  64.060         67.50	     9.000
  64.080         58.33	     8.367
  64.100         66.67	     8.944
  64.120         83.33	    10.000
  64.140         65.83	     8.888
  64.160         48.33	     7.616
  64.180         62.50	     8.660
  64.200         67.50	     9.000
  64.220         51.67	     7.874
  64.240         55.00	     8.124
  64.260         43.33	     7.211
  64.280         46.67	     7.483
  64.300         33.33	     6.325
  64.320         44.17	     7.280
  64.340         48.33	     7.616
  64.360         45.83	     7.416
  64.380         49.17	     7.681
  64.400         40.00	     6.928
  64.420         52.50	     7.937
  64.440         43.33	     7.211
  64.460         44.17	     7.280
  64.480         45.00	     7.348
  64.500         43.33	     7.211
  64.520         42.50	     7.141
  64.540         36.67	     6.633
  64.560         47.50	     7.550
  64.580         50.00	     7.746
  64.600         50.00	     7.746
  64.620         49.17	     7.681
  64.640         43.33	     7.211
  64.660         55.00	     8.124
  64.680         41.67	     7.071
  64.700         39.17	     6.856
  64.720         47.50	     7.550
  64.740         51.67	     7.874
  64.760         50.00	     7.746
  64.780         46.67	     7.483
  64.800         40.83	     7.000
  64.820         48.33	     7.616
  64.840         43.33	     7.211
  64.860         40.83	     7.000
  64.880         48.33	     7.616
  64.900         45.83	     7.416
  64.920         50.83	     7.810
  64.940         45.00	     7.348
  64.960         58.33	     8.367
  64.980         40.00	     6.928
  65.000         52.50	     7.937
