
Filename:
	C:\Program Files\Thermo Electron\WinXRD\Datafiles\F_HERMAN\FIEN\G31_RT.raw

File Created:
	January 30, 2020 - 10:27 AM

Specimen Id:
	G31 RT

Specimen Name:
	

Specimen Description:
	

Comment:
Scan Type: 2Theta Scan
Start Angle: 3 deg.
Stop Angle: 65 deg.
Num Points: 3101
Step Size: 0.02 deg.
Scan Rate: 1.000000
Scan Mode: Continuous
Wavelength: 1.540562
\Kalpha1: 1.540562	\Kalpha2: 1.544390	\Kbeta: 1.392218

Optics:
		Detector:
			 Type: Fixed Slits
		Tube: 
			 Type: Fixed Slits


Datas:
 Pos [deg]       Rate [CPS]      ESD [-]

Range 1 ---> Iteration 1
   3.000        452.50	    23.302
   3.020        435.00	    22.847
   3.040        442.50	    23.043
   3.060        419.17	    22.428
   3.080        437.50	    22.913
   3.100        460.83	    23.516
   3.120        468.33	    23.707
   3.140        420.83	    22.472
   3.160        420.83	    22.472
   3.180        425.83	    22.605
   3.200        445.83	    23.130
   3.220        400.00	    21.909
   3.240        446.67	    23.152
   3.260        399.17	    21.886
   3.280        409.17	    22.159
   3.300        394.17	    21.749
   3.320        399.17	    21.886
   3.340        405.00	    22.045
   3.360        420.00	    22.450
   3.380        390.00	    21.633
   3.400        387.50	    21.564
   3.420        374.17	    21.190
   3.440        364.17	    20.905
   3.460        407.50	    22.113
   3.480        387.50	    21.564
   3.500        375.83	    21.237
   3.520        395.00	    21.772
   3.540        368.33	    21.024
   3.560        380.00	    21.354
   3.580        344.17	    20.322
   3.600        356.67	    20.688
   3.620        385.83	    21.517
   3.640        382.50	    21.424
   3.660        384.17	    21.471
   3.680        347.50	    20.421
   3.700        363.33	    20.881
   3.720        375.00	    21.213
   3.740        362.50	    20.857
   3.760        351.67	    20.543
   3.780        342.50	    20.273
   3.800        328.33	    19.849
   3.820        342.50	    20.273
   3.840        336.67	    20.100
   3.860        346.67	    20.396
   3.880        317.50	    19.519
   3.900        336.67	    20.100
   3.920        330.83	    19.925
   3.940        300.00	    18.974
   3.960        339.17	    20.174
   3.980        339.17	    20.174
   4.000        305.00	    19.131
   4.020        321.67	    19.647
   4.040        345.00	    20.347
   4.060        299.17	    18.947
   4.080        329.17	    19.875
   4.100        320.83	    19.621
   4.120        333.33	    20.000
   4.140        287.50	    18.574
   4.160        326.67	    19.799
   4.180        317.50	    19.519
   4.200        300.00	    18.974
   4.220        303.33	    19.079
   4.240        308.33	    19.235
   4.260        290.00	    18.655
   4.280        297.50	    18.894
   4.300        306.67	    19.183
   4.320        314.17	    19.416
   4.340        298.33	    18.921
   4.360        290.00	    18.655
   4.380        288.33	    18.601
   4.400        293.33	    18.762
   4.420        279.17	    18.303
   4.440        274.17	    18.138
   4.460        296.67	    18.868
   4.480        300.83	    19.000
   4.500        314.17	    19.416
   4.520        256.67	    17.550
   4.540        302.50	    19.053
   4.560        268.33	    17.944
   4.580        270.83	    18.028
   4.600        270.00	    18.000
   4.620        253.33	    17.436
   4.640        283.33	    18.439
   4.660        277.50	    18.248
   4.680        277.50	    18.248
   4.700        280.00	    18.330
   4.720        245.83	    17.176
   4.740        261.67	    17.720
   4.760        274.17	    18.138
   4.780        245.83	    17.176
   4.800        269.17	    17.972
   4.820        288.33	    18.601
   4.840        276.67	    18.221
   4.860        269.17	    17.972
   4.880        255.00	    17.493
   4.900        259.17	    17.635
   4.920        250.83	    17.349
   4.940        239.17	    16.941
   4.960        266.67	    17.889
   4.980        264.17	    17.804
   5.000        261.67	    17.720
   5.020        250.83	    17.349
   5.040        239.17	    16.941
   5.060        252.50	    17.407
   5.080        250.83	    17.349
   5.100        280.00	    18.330
   5.120        255.83	    17.521
   5.140        229.17	    16.583
   5.160        226.67	    16.492
   5.180        245.00	    17.146
   5.200        218.33	    16.186
   5.220        231.67	    16.673
   5.240        217.50	    16.155
   5.260        222.50	    16.340
   5.280        239.17	    16.941
   5.300        245.00	    17.146
   5.320        245.83	    17.176
   5.340        261.67	    17.720
   5.360        235.83	    16.823
   5.380        237.50	    16.882
   5.400        217.50	    16.155
   5.420        241.67	    17.029
   5.440        207.50	    15.780
   5.460        243.33	    17.088
   5.480        242.50	    17.059
   5.500        218.33	    16.186
   5.520        228.33	    16.553
   5.540        250.83	    17.349
   5.560        202.50	    15.588
   5.580        200.83	    15.524
   5.600        215.00	    16.062
   5.620        218.33	    16.186
   5.640        192.50	    15.199
   5.660        214.17	    16.031
   5.680        230.83	    16.643
   5.700        196.67	    15.362
   5.720        234.17	    16.763
   5.740        225.00	    16.432
   5.760        234.17	    16.763
   5.780        231.67	    16.673
   5.800        224.17	    16.401
   5.820        252.50	    17.407
   5.840        254.17	    17.464
   5.860        250.83	    17.349
   5.880        235.00	    16.793
   5.900        250.00	    17.321
   5.920        245.83	    17.176
   5.940        222.50	    16.340
   5.960        257.50	    17.578
   5.980        242.50	    17.059
   6.000        254.17	    17.464
   6.020        239.17	    16.941
   6.040        264.17	    17.804
   6.060        275.00	    18.166
   6.080        279.17	    18.303
   6.100        290.83	    18.682
   6.120        283.33	    18.439
   6.140        279.17	    18.303
   6.160        253.33	    17.436
   6.180        210.83	    15.906
   6.200        209.17	    15.843
   6.220        227.50	    16.523
   6.240        197.50	    15.395
   6.260        183.33	    14.832
   6.280        213.33	    16.000
   6.300        209.17	    15.843
   6.320        203.33	    15.620
   6.340        205.83	    15.716
   6.360        222.50	    16.340
   6.380        200.00	    15.492
   6.400        185.83	    14.933
   6.420        210.83	    15.906
   6.440        200.00	    15.492
   6.460        198.33	    15.427
   6.480        190.83	    15.133
   6.500        189.17	    15.067
   6.520        193.33	    15.232
   6.540        191.67	    15.166
   6.560        189.17	    15.067
   6.580        198.33	    15.427
   6.600        154.17	    13.601
   6.620        175.83	    14.526
   6.640        175.00	    14.491
   6.660        166.67	    14.142
   6.680        205.83	    15.716
   6.700        170.00	    14.283
   6.720        168.33	    14.213
   6.740        193.33	    15.232
   6.760        198.33	    15.427
   6.780        189.17	    15.067
   6.800        180.00	    14.697
   6.820        176.67	    14.560
   6.840        178.33	    14.629
   6.860        171.67	    14.353
   6.880        188.33	    15.033
   6.900        177.50	    14.595
   6.920        167.50	    14.177
   6.940        186.67	    14.967
   6.960        166.67	    14.142
   6.980        155.83	    13.675
   7.000        168.33	    14.213
   7.020        194.17	    15.264
   7.040        164.17	    14.036
   7.060        152.50	    13.528
   7.080        152.50	    13.528
   7.100        150.00	    13.416
   7.120        204.17	    15.652
   7.140        143.33	    13.115
   7.160        169.17	    14.248
   7.180        162.50	    13.964
   7.200        174.17	    14.457
   7.220        157.50	    13.748
   7.240        172.50	    14.387
   7.260        166.67	    14.142
   7.280        147.50	    13.304
   7.300        150.00	    13.416
   7.320        179.17	    14.663
   7.340        161.67	    13.928
   7.360        167.50	    14.177
   7.380        178.33	    14.629
   7.400        154.17	    13.601
   7.420        159.17	    13.820
   7.440        147.50	    13.304
   7.460        154.17	    13.601
   7.480        149.17	    13.379
   7.500        154.17	    13.601
   7.520        163.33	    14.000
   7.540        140.00	    12.961
   7.560        160.83	    13.892
   7.580        159.17	    13.820
   7.600        180.83	    14.731
   7.620        155.00	    13.638
   7.640        168.33	    14.213
   7.660        161.67	    13.928
   7.680        145.83	    13.229
   7.700        152.50	    13.528
   7.720        158.33	    13.784
   7.740        154.17	    13.601
   7.760        126.67	    12.329
   7.780        162.50	    13.964
   7.800        146.67	    13.266
   7.820        140.00	    12.961
   7.840        158.33	    13.784
   7.860        146.67	    13.266
   7.880        155.00	    13.638
   7.900        146.67	    13.266
   7.920        130.83	    12.530
   7.940        156.67	    13.711
   7.960        155.83	    13.675
   7.980        153.33	    13.565
   8.000        146.67	    13.266
   8.020        140.83	    13.000
   8.040        161.67	    13.928
   8.060        136.67	    12.806
   8.080        159.17	    13.820
   8.100        145.00	    13.191
   8.120        138.33	    12.884
   8.140        165.83	    14.107
   8.160        144.17	    13.153
   8.180        145.83	    13.229
   8.200        147.50	    13.304
   8.220        142.50	    13.077
   8.240        159.17	    13.820
   8.260        141.67	    13.038
   8.280        147.50	    13.304
   8.300        153.33	    13.565
   8.320        150.00	    13.416
   8.340        153.33	    13.565
   8.360        177.50	    14.595
   8.380        145.00	    13.191
   8.400        164.17	    14.036
   8.420        177.50	    14.595
   8.440        170.83	    14.318
   8.460        178.33	    14.629
   8.480        157.50	    13.748
   8.500        173.33	    14.422
   8.520        184.17	    14.866
   8.540        158.33	    13.784
   8.560        180.00	    14.697
   8.580        171.67	    14.353
   8.600        211.67	    15.937
   8.620        237.50	    16.882
   8.640        267.50	    17.916
   8.660        230.00	    16.613
   8.680        260.83	    17.692
   8.700        295.83	    18.841
   8.720        345.00	    20.347
   8.740        480.83	    24.021
   8.760        555.00	    25.807
   8.780        486.67	    24.166
   8.800        371.67	    21.119
   8.820        237.50	    16.882
   8.840        198.33	    15.427
   8.860        160.00	    13.856
   8.880        132.50	    12.610
   8.900        150.83	    13.454
   8.920        135.00	    12.728
   8.940        137.50	    12.845
   8.960        149.17	    13.379
   8.980        124.17	    12.207
   9.000        137.50	    12.845
   9.020        151.67	    13.491
   9.040        149.17	    13.379
   9.060        157.50	    13.748
   9.080        169.17	    14.248
   9.100        135.00	    12.728
   9.120        138.33	    12.884
   9.140        129.17	    12.450
   9.160        139.17	    12.923
   9.180        125.83	    12.288
   9.200        134.17	    12.689
   9.220        111.67	    11.576
   9.240        144.17	    13.153
   9.260        125.83	    12.288
   9.280        135.00	    12.728
   9.300        140.83	    13.000
   9.320        137.50	    12.845
   9.340        135.00	    12.728
   9.360        155.83	    13.675
   9.380        147.50	    13.304
   9.400        142.50	    13.077
   9.420        114.17	    11.705
   9.440        118.33	    11.916
   9.460        106.67	    11.314
   9.480        118.33	    11.916
   9.500        123.33	    12.166
   9.520        106.67	    11.314
   9.540        115.83	    11.790
   9.560        109.17	    11.446
   9.580        115.83	    11.790
   9.600        126.67	    12.329
   9.620        117.50	    11.874
   9.640        102.50	    11.091
   9.660        138.33	    12.884
   9.680        111.67	    11.576
   9.700         90.00	    10.392
   9.720        125.00	    12.247
   9.740        114.17	    11.705
   9.760        127.50	    12.369
   9.780        128.33	    12.410
   9.800        111.67	    11.576
   9.820        108.33	    11.402
   9.840        120.00	    12.000
   9.860        105.00	    11.225
   9.880        120.00	    12.000
   9.900        110.00	    11.489
   9.920        111.67	    11.576
   9.940         97.50	    10.817
   9.960        118.33	    11.916
   9.980        100.83	    11.000
  10.000        113.33	    11.662
  10.020        111.67	    11.576
  10.040        111.67	    11.576
  10.060        117.50	    11.874
  10.080         84.17	    10.050
  10.100         97.50	    10.817
  10.120        110.83	    11.533
  10.140        125.83	    12.288
  10.160        112.50	    11.619
  10.180        100.00	    10.954
  10.200        125.00	    12.247
  10.220        117.50	    11.874
  10.240        115.00	    11.747
  10.260         94.17	    10.630
  10.280        118.33	    11.916
  10.300        110.83	    11.533
  10.320        101.67	    11.045
  10.340        126.67	    12.329
  10.360        145.00	    13.191
  10.380        224.17	    16.401
  10.400        261.67	    17.720
  10.420        263.33	    17.776
  10.440        185.00	    14.900
  10.460        120.83	    12.042
  10.480        114.17	    11.705
  10.500        110.00	    11.489
  10.520        155.00	    13.638
  10.540        137.50	    12.845
  10.560        140.00	    12.961
  10.580        117.50	    11.874
  10.600        115.83	    11.790
  10.620         99.17	    10.909
  10.640        108.33	    11.402
  10.660        106.67	    11.314
  10.680        131.67	    12.570
  10.700         97.50	    10.817
  10.720        110.83	    11.533
  10.740        105.00	    11.225
  10.760         91.67	    10.488
  10.780        110.00	    11.489
  10.800        112.50	    11.619
  10.820         97.50	    10.817
  10.840        100.00	    10.954
  10.860        112.50	    11.619
  10.880         93.33	    10.583
  10.900        103.33	    11.136
  10.920        115.00	    11.747
  10.940        102.50	    11.091
  10.960         88.33	    10.296
  10.980         97.50	    10.817
  11.000        104.17	    11.180
  11.020        110.00	    11.489
  11.040         85.00	    10.100
  11.060         95.00	    10.677
  11.080        100.83	    11.000
  11.100        110.83	    11.533
  11.120         84.17	    10.050
  11.140         91.67	    10.488
  11.160        102.50	    11.091
  11.180        101.67	    11.045
  11.200         98.33	    10.863
  11.220         93.33	    10.583
  11.240        102.50	    11.091
  11.260        110.83	    11.533
  11.280        105.83	    11.269
  11.300         98.33	    10.863
  11.320         98.33	    10.863
  11.340         96.67	    10.770
  11.360         97.50	    10.817
  11.380        103.33	    11.136
  11.400         99.17	    10.909
  11.420         91.67	    10.488
  11.440        101.67	    11.045
  11.460         89.17	    10.344
  11.480         95.83	    10.724
  11.500        107.50	    11.358
  11.520         95.00	    10.677
  11.540        107.50	    11.358
  11.560        102.50	    11.091
  11.580         95.00	    10.677
  11.600        115.83	    11.790
  11.620        105.00	    11.225
  11.640        109.17	    11.446
  11.660        105.83	    11.269
  11.680         84.17	    10.050
  11.700        100.83	    11.000
  11.720        115.00	    11.747
  11.740         82.50	     9.950
  11.760         87.50	    10.247
  11.780         75.00	     9.487
  11.800        104.17	    11.180
  11.820        109.17	    11.446
  11.840        108.33	    11.402
  11.860         97.50	    10.817
  11.880        121.67	    12.083
  11.900         99.17	    10.909
  11.920        100.00	    10.954
  11.940        110.00	    11.489
  11.960        123.33	    12.166
  11.980        144.17	    13.153
  12.000        144.17	    13.153
  12.020        188.33	    15.033
  12.040        276.67	    18.221
  12.060        307.50	    19.209
  12.080        321.67	    19.647
  12.100        269.17	    17.972
  12.120        208.33	    15.811
  12.140        174.17	    14.457
  12.160        162.50	    13.964
  12.180        158.33	    13.784
  12.200        168.33	    14.213
  12.220        165.83	    14.107
  12.240        195.00	    15.297
  12.260        209.17	    15.843
  12.280        160.83	    13.892
  12.300        201.67	    15.556
  12.320        225.83	    16.462
  12.340        270.00	    18.000
  12.360        291.67	    18.708
  12.380        314.17	    19.416
  12.400        261.67	    17.720
  12.420        190.00	    15.100
  12.440        161.67	    13.928
  12.460        125.83	    12.288
  12.480        110.83	    11.533
  12.500        129.17	    12.450
  12.520         92.50	    10.536
  12.540        105.83	    11.269
  12.560         98.33	    10.863
  12.580         92.50	    10.536
  12.600         96.67	    10.770
  12.620        100.00	    10.954
  12.640         86.67	    10.198
  12.660         94.17	    10.630
  12.680         96.67	    10.770
  12.700         78.33	     9.695
  12.720         94.17	    10.630
  12.740         88.33	    10.296
  12.760         90.00	    10.392
  12.780         85.83	    10.149
  12.800         90.83	    10.440
  12.820         89.17	    10.344
  12.840         71.67	     9.274
  12.860         87.50	    10.247
  12.880         90.83	    10.440
  12.900         80.83	     9.849
  12.920         77.50	     9.644
  12.940         75.83	     9.539
  12.960         89.17	    10.344
  12.980         70.00	     9.165
  13.000         84.17	    10.050
  13.020         97.50	    10.817
  13.040         80.00	     9.798
  13.060         75.83	     9.539
  13.080         90.83	    10.440
  13.100         75.83	     9.539
  13.120         80.83	     9.849
  13.140         90.83	    10.440
  13.160         75.83	     9.539
  13.180         85.00	    10.100
  13.200         89.17	    10.344
  13.220         78.33	     9.695
  13.240         74.17	     9.434
  13.260         77.50	     9.644
  13.280         80.00	     9.798
  13.300         79.17	     9.747
  13.320         92.50	    10.536
  13.340         95.00	    10.677
  13.360         75.00	     9.487
  13.380         84.17	    10.050
  13.400         66.67	     8.944
  13.420         79.17	     9.747
  13.440         81.67	     9.899
  13.460         91.67	    10.488
  13.480         67.50	     9.000
  13.500        100.00	    10.954
  13.520         85.83	    10.149
  13.540         75.00	     9.487
  13.560         95.00	    10.677
  13.580         80.83	     9.849
  13.600         86.67	    10.198
  13.620         75.00	     9.487
  13.640         75.83	     9.539
  13.660         85.83	    10.149
  13.680         75.00	     9.487
  13.700         70.83	     9.220
  13.720         99.17	    10.909
  13.740         73.33	     9.381
  13.760         80.83	     9.849
  13.780        101.67	    11.045
  13.800         83.33	    10.000
  13.820         75.83	     9.539
  13.840         83.33	    10.000
  13.860         68.33	     9.055
  13.880         75.83	     9.539
  13.900         89.17	    10.344
  13.920         76.67	     9.592
  13.940         62.50	     8.660
  13.960         86.67	    10.198
  13.980         89.17	    10.344
  14.000         68.33	     9.055
  14.020         72.50	     9.327
  14.040         71.67	     9.274
  14.060         78.33	     9.695
  14.080         62.50	     8.660
  14.100         77.50	     9.644
  14.120         65.00	     8.832
  14.140         83.33	    10.000
  14.160         75.00	     9.487
  14.180         80.83	     9.849
  14.200         55.83	     8.185
  14.220         59.17	     8.426
  14.240         65.83	     8.888
  14.260         73.33	     9.381
  14.280         75.83	     9.539
  14.300         67.50	     9.000
  14.320         60.83	     8.544
  14.340         74.17	     9.434
  14.360         71.67	     9.274
  14.380         79.17	     9.747
  14.400         85.00	    10.100
  14.420         75.83	     9.539
  14.440         82.50	     9.950
  14.460         76.67	     9.592
  14.480         65.00	     8.832
  14.500         82.50	     9.950
  14.520         89.17	    10.344
  14.540         79.17	     9.747
  14.560         62.50	     8.660
  14.580         68.33	     9.055
  14.600         74.17	     9.434
  14.620         94.17	    10.630
  14.640         63.33	     8.718
  14.660         67.50	     9.000
  14.680         78.33	     9.695
  14.700         80.83	     9.849
  14.720         71.67	     9.274
  14.740         75.83	     9.539
  14.760         85.83	    10.149
  14.780         71.67	     9.274
  14.800         72.50	     9.327
  14.820         72.50	     9.327
  14.840         99.17	    10.909
  14.860         74.17	     9.434
  14.880         88.33	    10.296
  14.900         82.50	     9.950
  14.920         84.17	    10.050
  14.940         81.67	     9.899
  14.960         92.50	    10.536
  14.980         85.83	    10.149
  15.000         63.33	     8.718
  15.020         74.17	     9.434
  15.040         67.50	     9.000
  15.060         87.50	    10.247
  15.080         77.50	     9.644
  15.100         64.17	     8.775
  15.120         84.17	    10.050
  15.140         50.83	     7.810
  15.160         60.83	     8.544
  15.180         59.17	     8.426
  15.200         88.33	    10.296
  15.220         68.33	     9.055
  15.240         70.83	     9.220
  15.260         70.00	     9.165
  15.280         81.67	     9.899
  15.300         67.50	     9.000
  15.320         63.33	     8.718
  15.340         70.83	     9.220
  15.360         70.83	     9.220
  15.380         77.50	     9.644
  15.400         66.67	     8.944
  15.420         71.67	     9.274
  15.440         64.17	     8.775
  15.460         78.33	     9.695
  15.480         65.00	     8.832
  15.500         64.17	     8.775
  15.520         66.67	     8.944
  15.540         65.00	     8.832
  15.560         60.00	     8.485
  15.580         83.33	    10.000
  15.600         77.50	     9.644
  15.620         59.17	     8.426
  15.640         62.50	     8.660
  15.660         66.67	     8.944
  15.680         72.50	     9.327
  15.700         70.83	     9.220
  15.720         82.50	     9.950
  15.740         69.17	     9.110
  15.760         80.00	     9.798
  15.780         82.50	     9.950
  15.800         67.50	     9.000
  15.820         74.17	     9.434
  15.840         68.33	     9.055
  15.860         66.67	     8.944
  15.880         65.00	     8.832
  15.900         60.00	     8.485
  15.920         57.50	     8.307
  15.940         57.50	     8.307
  15.960         68.33	     9.055
  15.980         69.17	     9.110
  16.000         61.67	     8.602
  16.020         63.33	     8.718
  16.040         61.67	     8.602
  16.060         56.67	     8.246
  16.080         43.33	     7.211
  16.100         66.67	     8.944
  16.120         70.00	     9.165
  16.140         74.17	     9.434
  16.160         55.00	     8.124
  16.180         81.67	     9.899
  16.200         64.17	     8.775
  16.220         58.33	     8.367
  16.240         67.50	     9.000
  16.260         65.00	     8.832
  16.280         62.50	     8.660
  16.300         69.17	     9.110
  16.320         61.67	     8.602
  16.340         59.17	     8.426
  16.360         60.83	     8.544
  16.380         62.50	     8.660
  16.400         70.00	     9.165
  16.420         66.67	     8.944
  16.440         63.33	     8.718
  16.460         63.33	     8.718
  16.480         59.17	     8.426
  16.500         61.67	     8.602
  16.520         73.33	     9.381
  16.540         72.50	     9.327
  16.560         68.33	     9.055
  16.580         66.67	     8.944
  16.600         68.33	     9.055
  16.620         69.17	     9.110
  16.640         63.33	     8.718
  16.660         84.17	    10.050
  16.680         62.50	     8.660
  16.700         69.17	     9.110
  16.720         67.50	     9.000
  16.740         56.67	     8.246
  16.760         55.00	     8.124
  16.780         58.33	     8.367
  16.800         62.50	     8.660
  16.820         65.00	     8.832
  16.840         57.50	     8.307
  16.860         73.33	     9.381
  16.880         60.83	     8.544
  16.900         70.00	     9.165
  16.920         60.00	     8.485
  16.940         51.67	     7.874
  16.960         59.17	     8.426
  16.980         60.00	     8.485
  17.000         52.50	     7.937
  17.020         63.33	     8.718
  17.040         60.83	     8.544
  17.060         54.17	     8.062
  17.080         63.33	     8.718
  17.100         65.00	     8.832
  17.120         71.67	     9.274
  17.140         53.33	     8.000
  17.160         64.17	     8.775
  17.180         72.50	     9.327
  17.200         64.17	     8.775
  17.220         61.67	     8.602
  17.240         65.83	     8.888
  17.260         72.50	     9.327
  17.280         53.33	     8.000
  17.300         68.33	     9.055
  17.320         71.67	     9.274
  17.340         72.50	     9.327
  17.360         63.33	     8.718
  17.380         71.67	     9.274
  17.400         83.33	    10.000
  17.420         71.67	     9.274
  17.440         64.17	     8.775
  17.460         75.00	     9.487
  17.480         66.67	     8.944
  17.500         70.00	     9.165
  17.520         86.67	    10.198
  17.540         75.00	     9.487
  17.560         76.67	     9.592
  17.580        101.67	    11.045
  17.600         93.33	    10.583
  17.620        124.17	    12.207
  17.640        137.50	    12.845
  17.660        157.50	    13.748
  17.680        161.67	    13.928
  17.700        200.83	    15.524
  17.720        170.00	    14.283
  17.740        150.00	    13.416
  17.760        150.00	    13.416
  17.780        117.50	    11.874
  17.800         95.00	    10.677
  17.820         87.50	    10.247
  17.840         76.67	     9.592
  17.860         66.67	     8.944
  17.880         55.83	     8.185
  17.900         76.67	     9.592
  17.920         62.50	     8.660
  17.940         71.67	     9.274
  17.960         60.83	     8.544
  17.980         91.67	    10.488
  18.000         64.17	     8.775
  18.020         80.83	     9.849
  18.040         56.67	     8.246
  18.060         76.67	     9.592
  18.080         73.33	     9.381
  18.100         65.00	     8.832
  18.120         69.17	     9.110
  18.140         72.50	     9.327
  18.160         65.83	     8.888
  18.180         67.50	     9.000
  18.200         52.50	     7.937
  18.220         55.00	     8.124
  18.240         65.00	     8.832
  18.260         72.50	     9.327
  18.280         75.83	     9.539
  18.300         74.17	     9.434
  18.320         76.67	     9.592
  18.340         90.00	    10.392
  18.360         72.50	     9.327
  18.380         76.67	     9.592
  18.400         78.33	     9.695
  18.420         98.33	    10.863
  18.440        105.83	    11.269
  18.460        130.00	    12.490
  18.480        109.17	    11.446
  18.500        110.83	    11.533
  18.520        102.50	    11.091
  18.540         87.50	    10.247
  18.560        104.17	    11.180
  18.580        127.50	    12.369
  18.600        123.33	    12.166
  18.620        102.50	    11.091
  18.640        145.83	    13.229
  18.660        135.83	    12.767
  18.680        130.00	    12.490
  18.700        132.50	    12.610
  18.720        113.33	    11.662
  18.740         93.33	    10.583
  18.760        101.67	    11.045
  18.780         74.17	     9.434
  18.800         65.00	     8.832
  18.820         72.50	     9.327
  18.840         76.67	     9.592
  18.860         69.17	     9.110
  18.880         65.00	     8.832
  18.900         83.33	    10.000
  18.920         66.67	     8.944
  18.940         60.00	     8.485
  18.960         70.00	     9.165
  18.980         61.67	     8.602
  19.000         76.67	     9.592
  19.020         65.83	     8.888
  19.040         75.00	     9.487
  19.060         73.33	     9.381
  19.080         84.17	    10.050
  19.100         90.00	    10.392
  19.120         75.83	     9.539
  19.140         81.67	     9.899
  19.160         81.67	     9.899
  19.180         64.17	     8.775
  19.200         63.33	     8.718
  19.220         81.67	     9.899
  19.240         71.67	     9.274
  19.260         70.83	     9.220
  19.280         75.00	     9.487
  19.300         74.17	     9.434
  19.320         62.50	     8.660
  19.340         74.17	     9.434
  19.360         78.33	     9.695
  19.380         60.83	     8.544
  19.400         63.33	     8.718
  19.420         64.17	     8.775
  19.440         57.50	     8.307
  19.460         76.67	     9.592
  19.480         69.17	     9.110
  19.500         80.83	     9.849
  19.520         66.67	     8.944
  19.540         91.67	    10.488
  19.560         55.00	     8.124
  19.580         80.00	     9.798
  19.600         87.50	    10.247
  19.620         90.00	    10.392
  19.640         82.50	     9.950
  19.660         87.50	    10.247
  19.680         94.17	    10.630
  19.700         84.17	    10.050
  19.720        111.67	    11.576
  19.740        117.50	    11.874
  19.760        113.33	    11.662
  19.780         95.83	    10.724
  19.800        117.50	    11.874
  19.820         84.17	    10.050
  19.840         70.83	     9.220
  19.860         76.67	     9.592
  19.880         63.33	     8.718
  19.900         63.33	     8.718
  19.920         74.17	     9.434
  19.940         80.00	     9.798
  19.960         64.17	     8.775
  19.980         67.50	     9.000
  20.000         71.67	     9.274
  20.020         78.33	     9.695
  20.040         60.83	     8.544
  20.060         70.00	     9.165
  20.080         63.33	     8.718
  20.100         65.00	     8.832
  20.120         59.17	     8.426
  20.140         45.83	     7.416
  20.160         60.00	     8.485
  20.180         69.17	     9.110
  20.200         55.83	     8.185
  20.220         62.50	     8.660
  20.240         53.33	     8.000
  20.260         61.67	     8.602
  20.280         52.50	     7.937
  20.300         49.17	     7.681
  20.320         73.33	     9.381
  20.340         82.50	     9.950
  20.360         65.00	     8.832
  20.380         70.83	     9.220
  20.400         70.00	     9.165
  20.420         60.83	     8.544
  20.440         69.17	     9.110
  20.460         65.00	     8.832
  20.480         58.33	     8.367
  20.500         65.00	     8.832
  20.520         67.50	     9.000
  20.540         70.83	     9.220
  20.560         65.83	     8.888
  20.580         82.50	     9.950
  20.600         79.17	     9.747
  20.620         85.00	    10.100
  20.640         88.33	    10.296
  20.660        130.00	    12.490
  20.680        195.00	    15.297
  20.700        305.00	    19.131
  20.720        395.83	    21.794
  20.740        413.33	    22.271
  20.760        370.83	    21.095
  20.780        310.83	    19.313
  20.800        217.50	    16.155
  20.820        140.83	    13.000
  20.840        115.83	    11.790
  20.860         95.83	    10.724
  20.880        122.50	    12.124
  20.900         95.83	    10.724
  20.920        109.17	    11.446
  20.940         79.17	     9.747
  20.960         98.33	    10.863
  20.980         70.00	     9.165
  21.000         79.17	     9.747
  21.020         70.83	     9.220
  21.040         74.17	     9.434
  21.060         57.50	     8.307
  21.080         55.00	     8.124
  21.100         49.17	     7.681
  21.120         60.83	     8.544
  21.140         70.83	     9.220
  21.160         74.17	     9.434
  21.180         56.67	     8.246
  21.200         45.83	     7.416
  21.220         69.17	     9.110
  21.240         55.83	     8.185
  21.260         47.50	     7.550
  21.280         57.50	     8.307
  21.300         65.83	     8.888
  21.320         61.67	     8.602
  21.340         60.83	     8.544
  21.360         64.17	     8.775
  21.380         63.33	     8.718
  21.400         65.00	     8.832
  21.420         57.50	     8.307
  21.440         53.33	     8.000
  21.460         65.00	     8.832
  21.480         72.50	     9.327
  21.500         65.00	     8.832
  21.520         62.50	     8.660
  21.540         60.00	     8.485
  21.560         57.50	     8.307
  21.580         58.33	     8.367
  21.600         55.00	     8.124
  21.620         60.83	     8.544
  21.640         55.83	     8.185
  21.660         52.50	     7.937
  21.680         61.67	     8.602
  21.700         56.67	     8.246
  21.720         52.50	     7.937
  21.740         65.00	     8.832
  21.760         53.33	     8.000
  21.780         73.33	     9.381
  21.800         66.67	     8.944
  21.820         60.83	     8.544
  21.840         75.00	     9.487
  21.860         88.33	    10.296
  21.880        130.83	    12.530
  21.900        153.33	    13.565
  21.920        144.17	    13.153
  21.940        154.17	    13.601
  21.960        106.67	    11.314
  21.980        115.83	    11.790
  22.000        110.00	    11.489
  22.020         74.17	     9.434
  22.040         59.17	     8.426
  22.060         50.00	     7.746
  22.080         56.67	     8.246
  22.100         62.50	     8.660
  22.120         71.67	     9.274
  22.140         75.00	     9.487
  22.160         65.00	     8.832
  22.180         71.67	     9.274
  22.200         64.17	     8.775
  22.220         61.67	     8.602
  22.240         79.17	     9.747
  22.260         70.00	     9.165
  22.280         70.83	     9.220
  22.300         44.17	     7.280
  22.320         55.83	     8.185
  22.340         56.67	     8.246
  22.360         66.67	     8.944
  22.380         68.33	     9.055
  22.400         46.67	     7.483
  22.420         67.50	     9.000
  22.440         58.33	     8.367
  22.460         59.17	     8.426
  22.480         61.67	     8.602
  22.500         56.67	     8.246
  22.520         67.50	     9.000
  22.540         49.17	     7.681
  22.560         57.50	     8.307
  22.580         65.00	     8.832
  22.600         64.17	     8.775
  22.620         43.33	     7.211
  22.640         60.83	     8.544
  22.660         63.33	     8.718
  22.680         62.50	     8.660
  22.700         68.33	     9.055
  22.720         76.67	     9.592
  22.740         59.17	     8.426
  22.760         81.67	     9.899
  22.780         85.83	    10.149
  22.800         87.50	    10.247
  22.820         78.33	     9.695
  22.840         79.17	     9.747
  22.860         97.50	    10.817
  22.880         86.67	    10.198
  22.900         95.00	    10.677
  22.920         89.17	    10.344
  22.940         90.83	    10.440
  22.960         97.50	    10.817
  22.980         85.00	    10.100
  23.000         62.50	     8.660
  23.020         61.67	     8.602
  23.040         57.50	     8.307
  23.060         50.00	     7.746
  23.080         52.50	     7.937
  23.100         60.00	     8.485
  23.120         58.33	     8.367
  23.140         58.33	     8.367
  23.160         65.83	     8.888
  23.180         71.67	     9.274
  23.200         80.00	     9.798
  23.220         65.83	     8.888
  23.240         69.17	     9.110
  23.260         73.33	     9.381
  23.280         67.50	     9.000
  23.300         71.67	     9.274
  23.320         78.33	     9.695
  23.340         80.00	     9.798
  23.360         84.17	    10.050
  23.380        126.67	    12.329
  23.400        121.67	    12.083
  23.420        143.33	    13.115
  23.440        150.00	    13.416
  23.460        141.67	    13.038
  23.480        127.50	    12.369
  23.500        111.67	    11.576
  23.520        113.33	    11.662
  23.540         78.33	     9.695
  23.560         77.50	     9.644
  23.580         86.67	    10.198
  23.600         77.50	     9.644
  23.620         83.33	    10.000
  23.640         62.50	     8.660
  23.660         76.67	     9.592
  23.680         69.17	     9.110
  23.700         76.67	     9.592
  23.720         97.50	    10.817
  23.740         80.83	     9.849
  23.760         72.50	     9.327
  23.780         75.00	     9.487
  23.800         72.50	     9.327
  23.820         65.83	     8.888
  23.840         74.17	     9.434
  23.860         74.17	     9.434
  23.880         95.00	    10.677
  23.900         92.50	    10.536
  23.920         79.17	     9.747
  23.940         86.67	    10.198
  23.960         79.17	     9.747
  23.980         72.50	     9.327
  24.000         85.00	    10.100
  24.020        101.67	    11.045
  24.040         92.50	    10.536
  24.060        102.50	    11.091
  24.080         97.50	    10.817
  24.100        111.67	    11.576
  24.120        171.67	    14.353
  24.140        205.00	    15.684
  24.160        183.33	    14.832
  24.180        174.17	    14.457
  24.200        173.33	    14.422
  24.220        145.00	    13.191
  24.240        125.83	    12.288
  24.260         89.17	    10.344
  24.280         88.33	    10.296
  24.300         91.67	    10.488
  24.320         94.17	    10.630
  24.340         75.83	     9.539
  24.360        105.83	    11.269
  24.380        105.83	    11.269
  24.400        134.17	    12.689
  24.420        142.50	    13.077
  24.440        189.17	    15.067
  24.460        224.17	    16.401
  24.480        266.67	    17.889
  24.500        357.50	    20.712
  24.520        340.83	    20.224
  24.540        250.00	    17.321
  24.560        242.50	    17.059
  24.580        181.67	    14.765
  24.600        142.50	    13.077
  24.620        120.83	    12.042
  24.640        108.33	    11.402
  24.660         93.33	    10.583
  24.680        108.33	    11.402
  24.700        103.33	    11.136
  24.720        109.17	    11.446
  24.740        112.50	    11.619
  24.760        125.00	    12.247
  24.780        111.67	    11.576
  24.800        111.67	    11.576
  24.820        103.33	    11.136
  24.840        121.67	    12.083
  24.860        105.83	    11.269
  24.880        114.17	    11.705
  24.900        134.17	    12.689
  24.920        147.50	    13.304
  24.940        171.67	    14.353
  24.960        181.67	    14.765
  24.980        186.67	    14.967
  25.000        175.83	    14.526
  25.020        205.00	    15.684
  25.040        210.00	    15.875
  25.060        195.00	    15.297
  25.080        168.33	    14.213
  25.100        148.33	    13.342
  25.120        148.33	    13.342
  25.140        111.67	    11.576
  25.160        110.00	    11.489
  25.180         92.50	    10.536
  25.200         89.17	    10.344
  25.220         95.00	    10.677
  25.240        104.17	    11.180
  25.260        104.17	    11.180
  25.280         99.17	    10.909
  25.300         92.50	    10.536
  25.320        110.83	    11.533
  25.340        120.83	    12.042
  25.360        150.83	    13.454
  25.380        152.50	    13.528
  25.400        157.50	    13.748
  25.420        155.83	    13.675
  25.440        146.67	    13.266
  25.460        140.83	    13.000
  25.480        145.83	    13.229
  25.500        131.67	    12.570
  25.520        120.83	    12.042
  25.540        105.00	    11.225
  25.560        108.33	    11.402
  25.580         91.67	    10.488
  25.600         75.00	     9.487
  25.620         75.83	     9.539
  25.640         70.00	     9.165
  25.660         65.83	     8.888
  25.680         51.67	     7.874
  25.700         70.83	     9.220
  25.720         70.83	     9.220
  25.740         69.17	     9.110
  25.760         71.67	     9.274
  25.780         70.83	     9.220
  25.800         74.17	     9.434
  25.820         61.67	     8.602
  25.840         75.83	     9.539
  25.860         58.33	     8.367
  25.880         76.67	     9.592
  25.900         74.17	     9.434
  25.920         63.33	     8.718
  25.940         64.17	     8.775
  25.960         67.50	     9.000
  25.980         66.67	     8.944
  26.000         80.83	     9.849
  26.020         72.50	     9.327
  26.040         84.17	    10.050
  26.060         71.67	     9.274
  26.080         73.33	     9.381
  26.100         80.83	     9.849
  26.120         85.83	    10.149
  26.140         93.33	    10.583
  26.160         85.83	    10.149
  26.180         91.67	    10.488
  26.200         84.17	    10.050
  26.220        104.17	    11.180
  26.240        112.50	    11.619
  26.260        118.33	    11.916
  26.280        134.17	    12.689
  26.300        165.00	    14.071
  26.320        166.67	    14.142
  26.340        194.17	    15.264
  26.360        203.33	    15.620
  26.380        190.00	    15.100
  26.400        237.50	    16.882
  26.420        280.00	    18.330
  26.440        392.50	    21.703
  26.460        579.17	    26.363
  26.480       1005.83	    34.742
  26.500       1715.00	    45.365
  26.520       2168.33	    51.010
  26.540       1686.67	    44.989
  26.560       1250.83	    38.743
  26.580       1180.83	    37.643
  26.600       1011.67	    34.843
  26.620        580.83	    26.401
  26.640        380.00	    21.354
  26.660        309.17	    19.261
  26.680        310.00	    19.287
  26.700        350.00	    20.494
  26.720        415.00	    22.316
  26.740        461.67	    23.537
  26.760        474.17	    23.854
  26.780        435.83	    22.869
  26.800        405.83	    22.068
  26.820        330.83	    19.925
  26.840        290.83	    18.682
  26.860        230.83	    16.643
  26.880        162.50	    13.964
  26.900        153.33	    13.565
  26.920        146.67	    13.266
  26.940        155.83	    13.675
  26.960        155.00	    13.638
  26.980        120.83	    12.042
  27.000        113.33	    11.662
  27.020        100.00	    10.954
  27.040        105.00	    11.225
  27.060         85.00	    10.100
  27.080         79.17	     9.747
  27.100         77.50	     9.644
  27.120         85.00	    10.100
  27.140         87.50	    10.247
  27.160         91.67	    10.488
  27.180         83.33	    10.000
  27.200         83.33	    10.000
  27.220         63.33	     8.718
  27.240         74.17	     9.434
  27.260         94.17	    10.630
  27.280         80.00	     9.798
  27.300         91.67	    10.488
  27.320        105.00	    11.225
  27.340        116.67	    11.832
  27.360        118.33	    11.916
  27.380        139.17	    12.923
  27.400        132.50	    12.610
  27.420        122.50	    12.124
  27.440        122.50	    12.124
  27.460        100.00	    10.954
  27.480         98.33	    10.863
  27.500         91.67	    10.488
  27.520         92.50	    10.536
  27.540        104.17	    11.180
  27.560        127.50	    12.369
  27.580        191.67	    15.166
  27.600        255.83	    17.521
  27.620        253.33	    17.436
  27.640        206.67	    15.748
  27.660        227.50	    16.523
  27.680        260.00	    17.664
  27.700        234.17	    16.763
  27.720        238.33	    16.912
  27.740        228.33	    16.553
  27.760        255.83	    17.521
  27.780        284.17	    18.466
  27.800        285.83	    18.520
  27.820        291.67	    18.708
  27.840        253.33	    17.436
  27.860        220.83	    16.279
  27.880        215.83	    16.093
  27.900        155.83	    13.675
  27.920        131.67	    12.570
  27.940        103.33	    11.136
  27.960         91.67	    10.488
  27.980         85.83	    10.149
  28.000        112.50	    11.619
  28.020        112.50	    11.619
  28.040        103.33	    11.136
  28.060        114.17	    11.705
  28.080        119.17	    11.958
  28.100         98.33	    10.863
  28.120        113.33	    11.662
  28.140        111.67	    11.576
  28.160        128.33	    12.410
  28.180        111.67	    11.576
  28.200        111.67	    11.576
  28.220         96.67	    10.770
  28.240         96.67	    10.770
  28.260         93.33	    10.583
  28.280         74.17	     9.434
  28.300         70.00	     9.165
  28.320         66.67	     8.944
  28.340         70.00	     9.165
  28.360         86.67	    10.198
  28.380         71.67	     9.274
  28.400         81.67	     9.899
  28.420         89.17	    10.344
  28.440         85.00	    10.100
  28.460        104.17	    11.180
  28.480        120.83	    12.042
  28.500        110.83	    11.533
  28.520        107.50	    11.358
  28.540         86.67	    10.198
  28.560         96.67	    10.770
  28.580         98.33	    10.863
  28.600         82.50	     9.950
  28.620         76.67	     9.592
  28.640         70.83	     9.220
  28.660         85.00	    10.100
  28.680         52.50	     7.937
  28.700         66.67	     8.944
  28.720         56.67	     8.246
  28.740         55.83	     8.185
  28.760         66.67	     8.944
  28.780         59.17	     8.426
  28.800         67.50	     9.000
  28.820         47.50	     7.550
  28.840         47.50	     7.550
  28.860         53.33	     8.000
  28.880         55.00	     8.124
  28.900         47.50	     7.550
  28.920         55.00	     8.124
  28.940         57.50	     8.307
  28.960         57.50	     8.307
  28.980         53.33	     8.000
  29.000         56.67	     8.246
  29.020         48.33	     7.616
  29.040         43.33	     7.211
  29.060         54.17	     8.062
  29.080         40.83	     7.000
  29.100         54.17	     8.062
  29.120         40.00	     6.928
  29.140         47.50	     7.550
  29.160         54.17	     8.062
  29.180         50.83	     7.810
  29.200         48.33	     7.616
  29.220         50.00	     7.746
  29.240         45.00	     7.348
  29.260         61.67	     8.602
  29.280         40.83	     7.000
  29.300         47.50	     7.550
  29.320         59.17	     8.426
  29.340         45.83	     7.416
  29.360         66.67	     8.944
  29.380         49.17	     7.681
  29.400         59.17	     8.426
  29.420         56.67	     8.246
  29.440         49.17	     7.681
  29.460         60.83	     8.544
  29.480         50.00	     7.746
  29.500         56.67	     8.246
  29.520         55.00	     8.124
  29.540         55.83	     8.185
  29.560         55.83	     8.185
  29.580         46.67	     7.483
  29.600         59.17	     8.426
  29.620         77.50	     9.644
  29.640         70.00	     9.165
  29.660         79.17	     9.747
  29.680         88.33	    10.296
  29.700        105.00	    11.225
  29.720        112.50	    11.619
  29.740        129.17	    12.450
  29.760        111.67	    11.576
  29.780        115.00	    11.747
  29.800        134.17	    12.689
  29.820        112.50	    11.619
  29.840        110.83	    11.533
  29.860        104.17	    11.180
  29.880         97.50	    10.817
  29.900         76.67	     9.592
  29.920         85.00	    10.100
  29.940         84.17	    10.050
  29.960         88.33	    10.296
  29.980        111.67	    11.576
  30.000        140.83	    13.000
  30.020        144.17	    13.153
  30.040        160.83	    13.892
  30.060        131.67	    12.570
  30.080        201.67	    15.556
  30.100        204.17	    15.652
  30.120        132.50	    12.610
  30.140        126.67	    12.329
  30.160        115.00	    11.747
  30.180         93.33	    10.583
  30.200         79.17	     9.747
  30.220         77.50	     9.644
  30.240         83.33	    10.000
  30.260         84.17	    10.050
  30.280         75.00	     9.487
  30.300        101.67	    11.045
  30.320         97.50	    10.817
  30.340         90.00	    10.392
  30.360        138.33	    12.884
  30.380        115.00	    11.747
  30.400        128.33	    12.410
  30.420        105.83	    11.269
  30.440         90.83	    10.440
  30.460         94.17	    10.630
  30.480         72.50	     9.327
  30.500         77.50	     9.644
  30.520         68.33	     9.055
  30.540         54.17	     8.062
  30.560         53.33	     8.000
  30.580         67.50	     9.000
  30.600         67.50	     9.000
  30.620         72.50	     9.327
  30.640         60.00	     8.485
  30.660         66.67	     8.944
  30.680         82.50	     9.950
  30.700         74.17	     9.434
  30.720         78.33	     9.695
  30.740         77.50	     9.644
  30.760         68.33	     9.055
  30.780         65.83	     8.888
  30.800         88.33	    10.296
  30.820         68.33	     9.055
  30.840         67.50	     9.000
  30.860         70.83	     9.220
  30.880         65.00	     8.832
  30.900         87.50	    10.247
  30.920         76.67	     9.592
  30.940         63.33	     8.718
  30.960         89.17	    10.344
  30.980         63.33	     8.718
  31.000         76.67	     9.592
  31.020         76.67	     9.592
  31.040         72.50	     9.327
  31.060        100.00	    10.954
  31.080        104.17	    11.180
  31.100        131.67	    12.570
  31.120        139.17	    12.923
  31.140        155.00	    13.638
  31.160        119.17	    11.958
  31.180        116.67	    11.832
  31.200        106.67	    11.314
  31.220         92.50	    10.536
  31.240         90.83	    10.440
  31.260         80.83	     9.849
  31.280         57.50	     8.307
  31.300         63.33	     8.718
  31.320         76.67	     9.592
  31.340         75.83	     9.539
  31.360         64.17	     8.775
  31.380         64.17	     8.775
  31.400         63.33	     8.718
  31.420         66.67	     8.944
  31.440         66.67	     8.944
  31.460         69.17	     9.110
  31.480         75.00	     9.487
  31.500         72.50	     9.327
  31.520         79.17	     9.747
  31.540         60.00	     8.485
  31.560         50.83	     7.810
  31.580         51.67	     7.874
  31.600         51.67	     7.874
  31.620         57.50	     8.307
  31.640         56.67	     8.246
  31.660         60.00	     8.485
  31.680         57.50	     8.307
  31.700         58.33	     8.367
  31.720         40.00	     6.928
  31.740         60.00	     8.485
  31.760         50.83	     7.810
  31.780         50.83	     7.810
  31.800         45.00	     7.348
  31.820         53.33	     8.000
  31.840         52.50	     7.937
  31.860         41.67	     7.071
  31.880         58.33	     8.367
  31.900         69.17	     9.110
  31.920         69.17	     9.110
  31.940         71.67	     9.274
  31.960         81.67	     9.899
  31.980         79.17	     9.747
  32.000         85.83	    10.149
  32.020         76.67	     9.592
  32.040         73.33	     9.381
  32.060         68.33	     9.055
  32.080         53.33	     8.000
  32.100         60.00	     8.485
  32.120         50.00	     7.746
  32.140         59.17	     8.426
  32.160         56.67	     8.246
  32.180         54.17	     8.062
  32.200         58.33	     8.367
  32.220         39.17	     6.856
  32.240         40.00	     6.928
  32.260         50.00	     7.746
  32.280         36.67	     6.633
  32.300         56.67	     8.246
  32.320         31.67	     6.164
  32.340         49.17	     7.681
  32.360         33.33	     6.325
  32.380         42.50	     7.141
  32.400         35.83	     6.557
  32.420         43.33	     7.211
  32.440         41.67	     7.071
  32.460         37.50	     6.708
  32.480         45.00	     7.348
  32.500         50.00	     7.746
  32.520         47.50	     7.550
  32.540         34.17	     6.403
  32.560         35.83	     6.557
  32.580         41.67	     7.071
  32.600         44.17	     7.280
  32.620         40.00	     6.928
  32.640         44.17	     7.280
  32.660         33.33	     6.325
  32.680         40.00	     6.928
  32.700         38.33	     6.782
  32.720         45.00	     7.348
  32.740         42.50	     7.141
  32.760         48.33	     7.616
  32.780         50.00	     7.746
  32.800         46.67	     7.483
  32.820         47.50	     7.550
  32.840         42.50	     7.141
  32.860         58.33	     8.367
  32.880         49.17	     7.681
  32.900         60.00	     8.485
  32.920         59.17	     8.426
  32.940         57.50	     8.307
  32.960         46.67	     7.483
  32.980         51.67	     7.874
  33.000         50.83	     7.810
  33.020         60.83	     8.544
  33.040         55.83	     8.185
  33.060         39.17	     6.856
  33.080         52.50	     7.937
  33.100         45.83	     7.416
  33.120         39.17	     6.856
  33.140         49.17	     7.681
  33.160         42.50	     7.141
  33.180         45.83	     7.416
  33.200         41.67	     7.071
  33.220         43.33	     7.211
  33.240         42.50	     7.141
  33.260         49.17	     7.681
  33.280         49.17	     7.681
  33.300         57.50	     8.307
  33.320         47.50	     7.550
  33.340         63.33	     8.718
  33.360         60.83	     8.544
  33.380         61.67	     8.602
  33.400         42.50	     7.141
  33.420         54.17	     8.062
  33.440         69.17	     9.110
  33.460         43.33	     7.211
  33.480         51.67	     7.874
  33.500         57.50	     8.307
  33.520         41.67	     7.071
  33.540         45.00	     7.348
  33.560         55.83	     8.185
  33.580         53.33	     8.000
  33.600         43.33	     7.211
  33.620         40.83	     7.000
  33.640         40.00	     6.928
  33.660         47.50	     7.550
  33.680         51.67	     7.874
  33.700         47.50	     7.550
  33.720         54.17	     8.062
  33.740         50.83	     7.810
  33.760         50.00	     7.746
  33.780         60.83	     8.544
  33.800         53.33	     8.000
  33.820         49.17	     7.681
  33.840         67.50	     9.000
  33.860         74.17	     9.434
  33.880         70.83	     9.220
  33.900         60.83	     8.544
  33.920         64.17	     8.775
  33.940         57.50	     8.307
  33.960         50.83	     7.810
  33.980         62.50	     8.660
  34.000         53.33	     8.000
  34.020         67.50	     9.000
  34.040         50.83	     7.810
  34.060         49.17	     7.681
  34.080         41.67	     7.071
  34.100         63.33	     8.718
  34.120         44.17	     7.280
  34.140         40.00	     6.928
  34.160         53.33	     8.000
  34.180         64.17	     8.775
  34.200         57.50	     8.307
  34.220         70.00	     9.165
  34.240         75.00	     9.487
  34.260         80.83	     9.849
  34.280         80.00	     9.798
  34.300         80.00	     9.798
  34.320         70.83	     9.220
  34.340         78.33	     9.695
  34.360         85.83	    10.149
  34.380         75.83	     9.539
  34.400         83.33	    10.000
  34.420        116.67	    11.832
  34.440        108.33	    11.402
  34.460        103.33	    11.136
  34.480        109.17	    11.446
  34.500        110.83	    11.533
  34.520        145.00	    13.191
  34.540        190.00	    15.100
  34.560        254.17	    17.464
  34.580        170.00	    14.283
  34.600        106.67	    11.314
  34.620        135.83	    12.767
  34.640        165.00	    14.071
  34.660        161.67	    13.928
  34.680        113.33	    11.662
  34.700         90.83	    10.440
  34.720         94.17	    10.630
  34.740        104.17	    11.180
  34.760        110.83	    11.533
  34.780        120.00	    12.000
  34.800        117.50	    11.874
  34.820        131.67	    12.570
  34.840        127.50	    12.369
  34.860        145.00	    13.191
  34.880        145.00	    13.191
  34.900        143.33	    13.115
  34.920        128.33	    12.410
  34.940        125.00	    12.247
  34.960        105.83	    11.269
  34.980        102.50	    11.091
  35.000        105.83	    11.269
  35.020         91.67	    10.488
  35.040         77.50	     9.644
  35.060         99.17	    10.909
  35.080         87.50	    10.247
  35.100         81.67	     9.899
  35.120         87.50	    10.247
  35.140         75.00	     9.487
  35.160         80.83	     9.849
  35.180         85.83	    10.149
  35.200         79.17	     9.747
  35.220         80.00	     9.798
  35.240         71.67	     9.274
  35.260         70.83	     9.220
  35.280         90.00	    10.392
  35.300         82.50	     9.950
  35.320         76.67	     9.592
  35.340         98.33	    10.863
  35.360         94.17	    10.630
  35.380        120.83	    12.042
  35.400        113.33	    11.662
  35.420        117.50	    11.874
  35.440        130.83	    12.530
  35.460        124.17	    12.207
  35.480        122.50	    12.124
  35.500        126.67	    12.329
  35.520        112.50	    11.619
  35.540        110.83	    11.533
  35.560        110.83	    11.533
  35.580        105.00	    11.225
  35.600        103.33	    11.136
  35.620         79.17	     9.747
  35.640         71.67	     9.274
  35.660         67.50	     9.000
  35.680         66.67	     8.944
  35.700         72.50	     9.327
  35.720         48.33	     7.616
  35.740         50.00	     7.746
  35.760         77.50	     9.644
  35.780         58.33	     8.367
  35.800         66.67	     8.944
  35.820         62.50	     8.660
  35.840         62.50	     8.660
  35.860         64.17	     8.775
  35.880         70.00	     9.165
  35.900         66.67	     8.944
  35.920         54.17	     8.062
  35.940         65.83	     8.888
  35.960         71.67	     9.274
  35.980         68.33	     9.055
  36.000         85.83	    10.149
  36.020         72.50	     9.327
  36.040         61.67	     8.602
  36.060         56.67	     8.246
  36.080         55.83	     8.185
  36.100         58.33	     8.367
  36.120         50.83	     7.810
  36.140         65.00	     8.832
  36.160         55.00	     8.124
  36.180         45.00	     7.348
  36.200         60.83	     8.544
  36.220         58.33	     8.367
  36.240         54.17	     8.062
  36.260         71.67	     9.274
  36.280         70.83	     9.220
  36.300         85.83	    10.149
  36.320         85.00	    10.100
  36.340         97.50	    10.817
  36.360        133.33	    12.649
  36.380        153.33	    13.565
  36.400        180.00	    14.697
  36.420        284.17	    18.466
  36.440        370.00	    21.071
  36.460        294.17	    18.788
  36.480        214.17	    16.031
  36.500        170.83	    14.318
  36.520        203.33	    15.620
  36.540        232.50	    16.703
  36.560        180.00	    14.697
  36.580        110.00	    11.489
  36.600        124.17	    12.207
  36.620        101.67	    11.045
  36.640         84.17	    10.050
  36.660         69.17	     9.110
  36.680         79.17	     9.747
  36.700         65.83	     8.888
  36.720         74.17	     9.434
  36.740         69.17	     9.110
  36.760         61.67	     8.602
  36.780         66.67	     8.944
  36.800         52.50	     7.937
  36.820         47.50	     7.550
  36.840         55.83	     8.185
  36.860         50.83	     7.810
  36.880         57.50	     8.307
  36.900         43.33	     7.211
  36.920         40.00	     6.928
  36.940         63.33	     8.718
  36.960         49.17	     7.681
  36.980         59.17	     8.426
  37.000         63.33	     8.718
  37.020         53.33	     8.000
  37.040         51.67	     7.874
  37.060         54.17	     8.062
  37.080         52.50	     7.937
  37.100         60.83	     8.544
  37.120         47.50	     7.550
  37.140         62.50	     8.660
  37.160         66.67	     8.944
  37.180         65.00	     8.832
  37.200         80.00	     9.798
  37.220         61.67	     8.602
  37.240         72.50	     9.327
  37.260         70.83	     9.220
  37.280         78.33	     9.695
  37.300         87.50	    10.247
  37.320         91.67	    10.488
  37.340         64.17	     8.775
  37.360         80.00	     9.798
  37.380         72.50	     9.327
  37.400         61.67	     8.602
  37.420         77.50	     9.644
  37.440         74.17	     9.434
  37.460         65.00	     8.832
  37.480         85.83	    10.149
  37.500         86.67	    10.198
  37.520        123.33	    12.166
  37.540        114.17	    11.705
  37.560        123.33	    12.166
  37.580        103.33	    11.136
  37.600        105.00	    11.225
  37.620         95.00	    10.677
  37.640         96.67	    10.770
  37.660         80.83	     9.849
  37.680         75.00	     9.487
  37.700         75.83	     9.539
  37.720         52.50	     7.937
  37.740         57.50	     8.307
  37.760         64.17	     8.775
  37.780         66.67	     8.944
  37.800         45.00	     7.348
  37.820         55.00	     8.124
  37.840         45.00	     7.348
  37.860         44.17	     7.280
  37.880         55.00	     8.124
  37.900         54.17	     8.062
  37.920         36.67	     6.633
  37.940         30.00	     6.000
  37.960         37.50	     6.708
  37.980         44.17	     7.280
  38.000         39.17	     6.856
  38.020         40.83	     7.000
  38.040         40.00	     6.928
  38.060         50.00	     7.746
  38.080         30.00	     6.000
  38.100         30.83	     6.083
  38.120         35.00	     6.481
  38.140         40.00	     6.928
  38.160         29.17	     5.916
  38.180         40.00	     6.928
  38.200         47.50	     7.550
  38.220         51.67	     7.874
  38.240         44.17	     7.280
  38.260         40.00	     6.928
  38.280         44.17	     7.280
  38.300         38.33	     6.782
  38.320         42.50	     7.141
  38.340         39.17	     6.856
  38.360         56.67	     8.246
  38.380         41.67	     7.071
  38.400         41.67	     7.071
  38.420         39.17	     6.856
  38.440         45.00	     7.348
  38.460         35.00	     6.481
  38.480         42.50	     7.141
  38.500         31.67	     6.164
  38.520         54.17	     8.062
  38.540         58.33	     8.367
  38.560         42.50	     7.141
  38.580         41.67	     7.071
  38.600         29.17	     5.916
  38.620         53.33	     8.000
  38.640         40.83	     7.000
  38.660         38.33	     6.782
  38.680         56.67	     8.246
  38.700         43.33	     7.211
  38.720         46.67	     7.483
  38.740         53.33	     8.000
  38.760         60.83	     8.544
  38.780         55.83	     8.185
  38.800         45.00	     7.348
  38.820         53.33	     8.000
  38.840         51.67	     7.874
  38.860         50.83	     7.810
  38.880         52.50	     7.937
  38.900         60.00	     8.485
  38.920         55.83	     8.185
  38.940         75.00	     9.487
  38.960         78.33	     9.695
  38.980         55.83	     8.185
  39.000         53.33	     8.000
  39.020         62.50	     8.660
  39.040         60.83	     8.544
  39.060         55.83	     8.185
  39.080         52.50	     7.937
  39.100         43.33	     7.211
  39.120         47.50	     7.550
  39.140         50.00	     7.746
  39.160         56.67	     8.246
  39.180         51.67	     7.874
  39.200         40.00	     6.928
  39.220         49.17	     7.681
  39.240         55.83	     8.185
  39.260         47.50	     7.550
  39.280         64.17	     8.775
  39.300        105.83	    11.269
  39.320        142.50	    13.077
  39.340        168.33	    14.213
  39.360        145.83	    13.229
  39.380        120.83	    12.042
  39.400        101.67	    11.045
  39.420         98.33	    10.863
  39.440        117.50	    11.874
  39.460         98.33	    10.863
  39.480         76.67	     9.592
  39.500         71.67	     9.274
  39.520         62.50	     8.660
  39.540         61.67	     8.602
  39.560         54.17	     8.062
  39.580         65.83	     8.888
  39.600         60.00	     8.485
  39.620         40.00	     6.928
  39.640         51.67	     7.874
  39.660         59.17	     8.426
  39.680         57.50	     8.307
  39.700         54.17	     8.062
  39.720         65.83	     8.888
  39.740         56.67	     8.246
  39.760         50.00	     7.746
  39.780         57.50	     8.307
  39.800         43.33	     7.211
  39.820         40.83	     7.000
  39.840         60.00	     8.485
  39.860         61.67	     8.602
  39.880         53.33	     8.000
  39.900         55.83	     8.185
  39.920         55.00	     8.124
  39.940         40.83	     7.000
  39.960         50.83	     7.810
  39.980         46.67	     7.483
  40.000         46.67	     7.483
  40.020         51.67	     7.874
  40.040         45.83	     7.416
  40.060         44.17	     7.280
  40.080         59.17	     8.426
  40.100         50.00	     7.746
  40.120         68.33	     9.055
  40.140         83.33	    10.000
  40.160        115.83	    11.790
  40.180        136.67	    12.806
  40.200        108.33	    11.402
  40.220         86.67	    10.198
  40.240         76.67	     9.592
  40.260         90.00	    10.392
  40.280        101.67	    11.045
  40.300         86.67	    10.198
  40.320         68.33	     9.055
  40.340         50.83	     7.810
  40.360         55.00	     8.124
  40.380         41.67	     7.071
  40.400         47.50	     7.550
  40.420         45.00	     7.348
  40.440         48.33	     7.616
  40.460         46.67	     7.483
  40.480         44.17	     7.280
  40.500         42.50	     7.141
  40.520         52.50	     7.937
  40.540         45.00	     7.348
  40.560         43.33	     7.211
  40.580         54.17	     8.062
  40.600         48.33	     7.616
  40.620         34.17	     6.403
  40.640         48.33	     7.616
  40.660         50.00	     7.746
  40.680         42.50	     7.141
  40.700         50.83	     7.810
  40.720         49.17	     7.681
  40.740         57.50	     8.307
  40.760         48.33	     7.616
  40.780         45.00	     7.348
  40.800         60.83	     8.544
  40.820         60.00	     8.485
  40.840         53.33	     8.000
  40.860         46.67	     7.483
  40.880         53.33	     8.000
  40.900         50.83	     7.810
  40.920         35.00	     6.481
  40.940         45.83	     7.416
  40.960         46.67	     7.483
  40.980         49.17	     7.681
  41.000         47.50	     7.550
  41.020         45.83	     7.416
  41.040         42.50	     7.141
  41.060         50.00	     7.746
  41.080         58.33	     8.367
  41.100         61.67	     8.602
  41.120         49.17	     7.681
  41.140         54.17	     8.062
  41.160         55.83	     8.185
  41.180         61.67	     8.602
  41.200         54.17	     8.062
  41.220         54.17	     8.062
  41.240         55.83	     8.185
  41.260         44.17	     7.280
  41.280         58.33	     8.367
  41.300         55.00	     8.124
  41.320         46.67	     7.483
  41.340         40.83	     7.000
  41.360         49.17	     7.681
  41.380         56.67	     8.246
  41.400         52.50	     7.937
  41.420         39.17	     6.856
  41.440         63.33	     8.718
  41.460         51.67	     7.874
  41.480         66.67	     8.944
  41.500         57.50	     8.307
  41.520         65.00	     8.832
  41.540         62.50	     8.660
  41.560         62.50	     8.660
  41.580         72.50	     9.327
  41.600         68.33	     9.055
  41.620         89.17	    10.344
  41.640         60.83	     8.544
  41.660         65.83	     8.888
  41.680         74.17	     9.434
  41.700         84.17	    10.050
  41.720         73.33	     9.381
  41.740         84.17	    10.050
  41.760         74.17	     9.434
  41.780         83.33	    10.000
  41.800         69.17	     9.110
  41.820         85.00	    10.100
  41.840         69.17	     9.110
  41.860         67.50	     9.000
  41.880         67.50	     9.000
  41.900         60.00	     8.485
  41.920         91.67	    10.488
  41.940         54.17	     8.062
  41.960         55.00	     8.124
  41.980         59.17	     8.426
  42.000         40.00	     6.928
  42.020         58.33	     8.367
  42.040         55.00	     8.124
  42.060         53.33	     8.000
  42.080         52.50	     7.937
  42.100         70.83	     9.220
  42.120         68.33	     9.055
  42.140         45.83	     7.416
  42.160         66.67	     8.944
  42.180         75.00	     9.487
  42.200         76.67	     9.592
  42.220         77.50	     9.644
  42.240         80.83	     9.849
  42.260        100.83	    11.000
  42.280        126.67	    12.329
  42.300        170.00	    14.283
  42.320        140.83	    13.000
  42.340        132.50	    12.610
  42.360        135.83	    12.767
  42.380        114.17	    11.705
  42.400         87.50	    10.247
  42.420         97.50	    10.817
  42.440         91.67	    10.488
  42.460         85.83	    10.149
  42.480         65.00	     8.832
  42.500         73.33	     9.381
  42.520         44.17	     7.280
  42.540         66.67	     8.944
  42.560         50.83	     7.810
  42.580         59.17	     8.426
  42.600         57.50	     8.307
  42.620         48.33	     7.616
  42.640         53.33	     8.000
  42.660         54.17	     8.062
  42.680         60.83	     8.544
  42.700         56.67	     8.246
  42.720         47.50	     7.550
  42.740         49.17	     7.681
  42.760         66.67	     8.944
  42.780         65.83	     8.888
  42.800         45.83	     7.416
  42.820         79.17	     9.747
  42.840         53.33	     8.000
  42.860         70.00	     9.165
  42.880         65.00	     8.832
  42.900         52.50	     7.937
  42.920         47.50	     7.550
  42.940         59.17	     8.426
  42.960         64.17	     8.775
  42.980         50.83	     7.810
  43.000         51.67	     7.874
  43.020         45.83	     7.416
  43.040         55.83	     8.185
  43.060         56.67	     8.246
  43.080         48.33	     7.616
  43.100         63.33	     8.718
  43.120         49.17	     7.681
  43.140         48.33	     7.616
  43.160         44.17	     7.280
  43.180         53.33	     8.000
  43.200         55.00	     8.124
  43.220         70.83	     9.220
  43.240         55.00	     8.124
  43.260         76.67	     9.592
  43.280         60.83	     8.544
  43.300         69.17	     9.110
  43.320         60.83	     8.544
  43.340         84.17	    10.050
  43.360         73.33	     9.381
  43.380         80.00	     9.798
  43.400        100.00	    10.954
  43.420        101.67	    11.045
  43.440        114.17	    11.705
  43.460        116.67	    11.832
  43.480         95.00	    10.677
  43.500         96.67	    10.770
  43.520         94.17	    10.630
  43.540        116.67	    11.832
  43.560        132.50	    12.610
  43.580         99.17	    10.909
  43.600        121.67	    12.083
  43.620        108.33	    11.402
  43.640        114.17	    11.705
  43.660        116.67	    11.832
  43.680        111.67	    11.576
  43.700        128.33	    12.410
  43.720         99.17	    10.909
  43.740         97.50	    10.817
  43.760         91.67	    10.488
  43.780        111.67	    11.576
  43.800        104.17	    11.180
  43.820        105.00	    11.225
  43.840         99.17	    10.909
  43.860        115.00	    11.747
  43.880        116.67	    11.832
  43.900        102.50	    11.091
  43.920         87.50	    10.247
  43.940        104.17	    11.180
  43.960        107.50	    11.358
  43.980        116.67	    11.832
  44.000        129.17	    12.450
  44.020        130.00	    12.490
  44.040        155.83	    13.675
  44.060        165.83	    14.107
  44.080        150.83	    13.454
  44.100        182.50	    14.799
  44.120        165.83	    14.107
  44.140        144.17	    13.153
  44.160        197.50	    15.395
  44.180        217.50	    16.155
  44.200        202.50	    15.588
  44.220        215.83	    16.093
  44.240        243.33	    17.088
  44.260        292.50	    18.735
  44.280        277.50	    18.248
  44.300        306.67	    19.183
  44.320        287.50	    18.574
  44.340        304.17	    19.105
  44.360        323.33	    19.698
  44.380        330.83	    19.925
  44.400        319.17	    19.570
  44.420        326.67	    19.799
  44.440        335.83	    20.075
  44.460        314.17	    19.416
  44.480        296.67	    18.868
  44.500        290.00	    18.655
  44.520        286.67	    18.547
  44.540        293.33	    18.762
  44.560        250.83	    17.349
  44.580        238.33	    16.912
  44.600        221.67	    16.310
  44.620        233.33	    16.733
  44.640        231.67	    16.673
  44.660        201.67	    15.556
  44.680        167.50	    14.177
  44.700        158.33	    13.784
  44.720        168.33	    14.213
  44.740        172.50	    14.387
  44.760        149.17	    13.379
  44.780        137.50	    12.845
  44.800        132.50	    12.610
  44.820        154.17	    13.601
  44.840        152.50	    13.528
  44.860        125.83	    12.288
  44.880        139.17	    12.923
  44.900        112.50	    11.619
  44.920        100.83	    11.000
  44.940        111.67	    11.576
  44.960        120.83	    12.042
  44.980         90.83	    10.440
  45.000         90.00	    10.392
  45.020        105.00	    11.225
  45.040         80.00	     9.798
  45.060        100.00	    10.954
  45.080         87.50	    10.247
  45.100        100.00	    10.954
  45.120         96.67	    10.770
  45.140        105.83	    11.269
  45.160        100.00	    10.954
  45.180         91.67	    10.488
  45.200        101.67	    11.045
  45.220        109.17	    11.446
  45.240        113.33	    11.662
  45.260        125.00	    12.247
  45.280        126.67	    12.329
  45.300        130.83	    12.530
  45.320        119.17	    11.958
  45.340        148.33	    13.342
  45.360        136.67	    12.806
  45.380        155.00	    13.638
  45.400        150.83	    13.454
  45.420        171.67	    14.353
  45.440        183.33	    14.832
  45.460        181.67	    14.765
  45.480        215.83	    16.093
  45.500        214.17	    16.031
  45.520        169.17	    14.248
  45.540        139.17	    12.923
  45.560        144.17	    13.153
  45.580        126.67	    12.329
  45.600        144.17	    13.153
  45.620        169.17	    14.248
  45.640        174.17	    14.457
  45.660        211.67	    15.937
  45.680        206.67	    15.748
  45.700        170.00	    14.283
  45.720        130.00	    12.490
  45.740         76.67	     9.592
  45.760         90.83	    10.440
  45.780        105.00	    11.225
  45.800        115.00	    11.747
  45.820        110.83	    11.533
  45.840         90.00	    10.392
  45.860         71.67	     9.274
  45.880         68.33	     9.055
  45.900         73.33	     9.381
  45.920         70.83	     9.220
  45.940         65.83	     8.888
  45.960         63.33	     8.718
  45.980         53.33	     8.000
  46.000         62.50	     8.660
  46.020         55.83	     8.185
  46.040         61.67	     8.602
  46.060         60.83	     8.544
  46.080         45.83	     7.416
  46.100         50.83	     7.810
  46.120         50.00	     7.746
  46.140         47.50	     7.550
  46.160         34.17	     6.403
  46.180         49.17	     7.681
  46.200         42.50	     7.141
  46.220         41.67	     7.071
  46.240         51.67	     7.874
  46.260         28.33	     5.831
  46.280         37.50	     6.708
  46.300         46.67	     7.483
  46.320         43.33	     7.211
  46.340         35.00	     6.481
  46.360         49.17	     7.681
  46.380         40.83	     7.000
  46.400         39.17	     6.856
  46.420         37.50	     6.708
  46.440         58.33	     8.367
  46.460         50.00	     7.746
  46.480         50.00	     7.746
  46.500         50.83	     7.810
  46.520         44.17	     7.280
  46.540         46.67	     7.483
  46.560         38.33	     6.782
  46.580         46.67	     7.483
  46.600         41.67	     7.071
  46.620         40.00	     6.928
  46.640         52.50	     7.937
  46.660         41.67	     7.071
  46.680         38.33	     6.782
  46.700         60.83	     8.544
  46.720         40.00	     6.928
  46.740         44.17	     7.280
  46.760         44.17	     7.280
  46.780         40.00	     6.928
  46.800         43.33	     7.211
  46.820         45.00	     7.348
  46.840         38.33	     6.782
  46.860         55.00	     8.124
  46.880         46.67	     7.483
  46.900         41.67	     7.071
  46.920         48.33	     7.616
  46.940         65.83	     8.888
  46.960         73.33	     9.381
  46.980         65.00	     8.832
  47.000         74.17	     9.434
  47.020         63.33	     8.718
  47.040         65.00	     8.832
  47.060         58.33	     8.367
  47.080         57.50	     8.307
  47.100         64.17	     8.775
  47.120         70.00	     9.165
  47.140         53.33	     8.000
  47.160         52.50	     7.937
  47.180         61.67	     8.602
  47.200         35.83	     6.557
  47.220         39.17	     6.856
  47.240         38.33	     6.782
  47.260         35.00	     6.481
  47.280         41.67	     7.071
  47.300         45.00	     7.348
  47.320         48.33	     7.616
  47.340         43.33	     7.211
  47.360         41.67	     7.071
  47.380         37.50	     6.708
  47.400         40.83	     7.000
  47.420         40.00	     6.928
  47.440         40.00	     6.928
  47.460         51.67	     7.874
  47.480         40.00	     6.928
  47.500         36.67	     6.633
  47.520         40.00	     6.928
  47.540         39.17	     6.856
  47.560         35.83	     6.557
  47.580         35.83	     6.557
  47.600         32.50	     6.245
  47.620         37.50	     6.708
  47.640         42.50	     7.141
  47.660         30.83	     6.083
  47.680         33.33	     6.325
  47.700         36.67	     6.633
  47.720         33.33	     6.325
  47.740         34.17	     6.403
  47.760         33.33	     6.325
  47.780         39.17	     6.856
  47.800         45.83	     7.416
  47.820         43.33	     7.211
  47.840         46.67	     7.483
  47.860         45.83	     7.416
  47.880         58.33	     8.367
  47.900         45.83	     7.416
  47.920         46.67	     7.483
  47.940         41.67	     7.071
  47.960         44.17	     7.280
  47.980         52.50	     7.937
  48.000         57.50	     8.307
  48.020         70.83	     9.220
  48.040         81.67	     9.899
  48.060         70.00	     9.165
  48.080         73.33	     9.381
  48.100         61.67	     8.602
  48.120         87.50	    10.247
  48.140         64.17	     8.775
  48.160         79.17	     9.747
  48.180         60.83	     8.544
  48.200         72.50	     9.327
  48.220         57.50	     8.307
  48.240         72.50	     9.327
  48.260         75.83	     9.539
  48.280         57.50	     8.307
  48.300         47.50	     7.550
  48.320         45.00	     7.348
  48.340         46.67	     7.483
  48.360         51.67	     7.874
  48.380         65.00	     8.832
  48.400         52.50	     7.937
  48.420         40.00	     6.928
  48.440         47.50	     7.550
  48.460         44.17	     7.280
  48.480         45.83	     7.416
  48.500         39.17	     6.856
  48.520         45.83	     7.416
  48.540         44.17	     7.280
  48.560         44.17	     7.280
  48.580         42.50	     7.141
  48.600         40.83	     7.000
  48.620         44.17	     7.280
  48.640         50.83	     7.810
  48.660         43.33	     7.211
  48.680         42.50	     7.141
  48.700         44.17	     7.280
  48.720         51.67	     7.874
  48.740         45.83	     7.416
  48.760         61.67	     8.602
  48.780         55.00	     8.124
  48.800         41.67	     7.071
  48.820         38.33	     6.782
  48.840         46.67	     7.483
  48.860         36.67	     6.633
  48.880         47.50	     7.550
  48.900         32.50	     6.245
  48.920         35.00	     6.481
  48.940         45.00	     7.348
  48.960         40.83	     7.000
  48.980         39.17	     6.856
  49.000         30.00	     6.000
  49.020         45.00	     7.348
  49.040         40.00	     6.928
  49.060         39.17	     6.856
  49.080         51.67	     7.874
  49.100         50.83	     7.810
  49.120         50.83	     7.810
  49.140         50.00	     7.746
  49.160         35.83	     6.557
  49.180         41.67	     7.071
  49.200         47.50	     7.550
  49.220         51.67	     7.874
  49.240         54.17	     8.062
  49.260         42.50	     7.141
  49.280         51.67	     7.874
  49.300         32.50	     6.245
  49.320         40.83	     7.000
  49.340         48.33	     7.616
  49.360         45.83	     7.416
  49.380         40.83	     7.000
  49.400         45.00	     7.348
  49.420         35.00	     6.481
  49.440         50.00	     7.746
  49.460         41.67	     7.071
  49.480         55.00	     8.124
  49.500         53.33	     8.000
  49.520         43.33	     7.211
  49.540         45.00	     7.348
  49.560         49.17	     7.681
  49.580         48.33	     7.616
  49.600         65.00	     8.832
  49.620         55.00	     8.124
  49.640         59.17	     8.426
  49.660         53.33	     8.000
  49.680         60.83	     8.544
  49.700         75.83	     9.539
  49.720         74.17	     9.434
  49.740         69.17	     9.110
  49.760         71.67	     9.274
  49.780         85.00	    10.100
  49.800         80.00	     9.798
  49.820         89.17	    10.344
  49.840         66.67	     8.944
  49.860         76.67	     9.592
  49.880         86.67	    10.198
  49.900        104.17	    11.180
  49.920        100.00	    10.954
  49.940        137.50	    12.845
  49.960        150.00	    13.416
  49.980        220.83	    16.279
  50.000        260.00	    17.664
  50.020        293.33	    18.762
  50.040        255.83	    17.521
  50.060        210.83	    15.906
  50.080        145.00	    13.191
  50.100        149.17	    13.379
  50.120        184.17	    14.866
  50.140        174.17	    14.457
  50.160        154.17	    13.601
  50.180        137.50	    12.845
  50.200        114.17	    11.705
  50.220         90.83	    10.440
  50.240         69.17	     9.110
  50.260         59.17	     8.426
  50.280         66.67	     8.944
  50.300         52.50	     7.937
  50.320         68.33	     9.055
  50.340         56.67	     8.246
  50.360         58.33	     8.367
  50.380         61.67	     8.602
  50.400         73.33	     9.381
  50.420         77.50	     9.644
  50.440         65.00	     8.832
  50.460         81.67	     9.899
  50.480         77.50	     9.644
  50.500         92.50	    10.536
  50.520         93.33	    10.583
  50.540         76.67	     9.592
  50.560         58.33	     8.367
  50.580         70.00	     9.165
  50.600         77.50	     9.644
  50.620         70.00	     9.165
  50.640         89.17	    10.344
  50.660         71.67	     9.274
  50.680         55.00	     8.124
  50.700         58.33	     8.367
  50.720         66.67	     8.944
  50.740         40.83	     7.000
  50.760         47.50	     7.550
  50.780         55.83	     8.185
  50.800         40.00	     6.928
  50.820         36.67	     6.633
  50.840         36.67	     6.633
  50.860         38.33	     6.782
  50.880         48.33	     7.616
  50.900         54.17	     8.062
  50.920         54.17	     8.062
  50.940         58.33	     8.367
  50.960        105.83	    11.269
  50.980        148.33	    13.342
  51.000        130.00	    12.490
  51.020         92.50	    10.536
  51.040         64.17	     8.775
  51.060         66.67	     8.944
  51.080         60.83	     8.544
  51.100         75.83	     9.539
  51.120         96.67	    10.770
  51.140         84.17	    10.050
  51.160         59.17	     8.426
  51.180         51.67	     7.874
  51.200         52.50	     7.937
  51.220         55.83	     8.185
  51.240         60.00	     8.485
  51.260         54.17	     8.062
  51.280         46.67	     7.483
  51.300         48.33	     7.616
  51.320         39.17	     6.856
  51.340         47.50	     7.550
  51.360         45.83	     7.416
  51.380         43.33	     7.211
  51.400         39.17	     6.856
  51.420         42.50	     7.141
  51.440         34.17	     6.403
  51.460         40.83	     7.000
  51.480         44.17	     7.280
  51.500         34.17	     6.403
  51.520         33.33	     6.325
  51.540         38.33	     6.782
  51.560         44.17	     7.280
  51.580         27.50	     5.745
  51.600         30.00	     6.000
  51.620         35.83	     6.557
  51.640         36.67	     6.633
  51.660         33.33	     6.325
  51.680         29.17	     5.916
  51.700         33.33	     6.325
  51.720         35.83	     6.557
  51.740         34.17	     6.403
  51.760         42.50	     7.141
  51.780         25.00	     5.477
  51.800         31.67	     6.164
  51.820         38.33	     6.782
  51.840         32.50	     6.245
  51.860         35.00	     6.481
  51.880         32.50	     6.245
  51.900         39.17	     6.856
  51.920         28.33	     5.831
  51.940         45.83	     7.416
  51.960         40.00	     6.928
  51.980         55.83	     8.185
  52.000         51.67	     7.874
  52.020         50.00	     7.746
  52.040         45.00	     7.348
  52.060         48.33	     7.616
  52.080         56.67	     8.246
  52.100         56.67	     8.246
  52.120         55.00	     8.124
  52.140         58.33	     8.367
  52.160         65.83	     8.888
  52.180         53.33	     8.000
  52.200         36.67	     6.633
  52.220         49.17	     7.681
  52.240         56.67	     8.246
  52.260         55.00	     8.124
  52.280         40.83	     7.000
  52.300         54.17	     8.062
  52.320         49.17	     7.681
  52.340         48.33	     7.616
  52.360         60.83	     8.544
  52.380         49.17	     7.681
  52.400         50.83	     7.810
  52.420         70.83	     9.220
  52.440         60.00	     8.485
  52.460         47.50	     7.550
  52.480         40.00	     6.928
  52.500         40.83	     7.000
  52.520         50.00	     7.746
  52.540         50.00	     7.746
  52.560         54.17	     8.062
  52.580         46.67	     7.483
  52.600         53.33	     8.000
  52.620         37.50	     6.708
  52.640         37.50	     6.708
  52.660         43.33	     7.211
  52.680         45.00	     7.348
  52.700         49.17	     7.681
  52.720         44.17	     7.280
  52.740         44.17	     7.280
  52.760         45.00	     7.348
  52.780         55.00	     8.124
  52.800         51.67	     7.874
  52.820         41.67	     7.071
  52.840         49.17	     7.681
  52.860         46.67	     7.483
  52.880         40.00	     6.928
  52.900         55.00	     8.124
  52.920         42.50	     7.141
  52.940         45.83	     7.416
  52.960         55.83	     8.185
  52.980         45.83	     7.416
  53.000         55.00	     8.124
  53.020         47.50	     7.550
  53.040         54.17	     8.062
  53.060         52.50	     7.937
  53.080         43.33	     7.211
  53.100         41.67	     7.071
  53.120         60.00	     8.485
  53.140         66.67	     8.944
  53.160         45.83	     7.416
  53.180         43.33	     7.211
  53.200         63.33	     8.718
  53.220         70.00	     9.165
  53.240         56.67	     8.246
  53.260         44.17	     7.280
  53.280         46.67	     7.483
  53.300         50.00	     7.746
  53.320         47.50	     7.550
  53.340         54.17	     8.062
  53.360         45.83	     7.416
  53.380         43.33	     7.211
  53.400         54.17	     8.062
  53.420         50.00	     7.746
  53.440         47.50	     7.550
  53.460         40.83	     7.000
  53.480         52.50	     7.937
  53.500         30.83	     6.083
  53.520         41.67	     7.071
  53.540         35.83	     6.557
  53.560         47.50	     7.550
  53.580         39.17	     6.856
  53.600         25.83	     5.568
  53.620         32.50	     6.245
  53.640         32.50	     6.245
  53.660         52.50	     7.937
  53.680         50.00	     7.746
  53.700         29.17	     5.916
  53.720         30.83	     6.083
  53.740         35.00	     6.481
  53.760         30.83	     6.083
  53.780         38.33	     6.782
  53.800         50.83	     7.810
  53.820         33.33	     6.325
  53.840         50.83	     7.810
  53.860         35.83	     6.557
  53.880         35.83	     6.557
  53.900         37.50	     6.708
  53.920         30.83	     6.083
  53.940         43.33	     7.211
  53.960         38.33	     6.782
  53.980         31.67	     6.164
  54.000         29.17	     5.916
  54.020         37.50	     6.708
  54.040         33.33	     6.325
  54.060         38.33	     6.782
  54.080         41.67	     7.071
  54.100         35.00	     6.481
  54.120         46.67	     7.483
  54.140         38.33	     6.782
  54.160         48.33	     7.616
  54.180         44.17	     7.280
  54.200         51.67	     7.874
  54.220         40.83	     7.000
  54.240         46.67	     7.483
  54.260         43.33	     7.211
  54.280         40.83	     7.000
  54.300         41.67	     7.071
  54.320         37.50	     6.708
  54.340         39.17	     6.856
  54.360         50.83	     7.810
  54.380         36.67	     6.633
  54.400         45.00	     7.348
  54.420         43.33	     7.211
  54.440         46.67	     7.483
  54.460         56.67	     8.246
  54.480         47.50	     7.550
  54.500         56.67	     8.246
  54.520         53.33	     8.000
  54.540         52.50	     7.937
  54.560         40.00	     6.928
  54.580         55.00	     8.124
  54.600         46.67	     7.483
  54.620         55.83	     8.185
  54.640         52.50	     7.937
  54.660         75.00	     9.487
  54.680         75.83	     9.539
  54.700         76.67	     9.592
  54.720        117.50	    11.874
  54.740        115.00	    11.747
  54.760        122.50	    12.124
  54.780         98.33	    10.863
  54.800         79.17	     9.747
  54.820         72.50	     9.327
  54.840        130.83	    12.530
  54.860        208.33	    15.811
  54.880        197.50	    15.395
  54.900        155.83	    13.675
  54.920        109.17	    11.446
  54.940         75.83	     9.539
  54.960         70.83	     9.220
  54.980         74.17	     9.434
  55.000         95.00	    10.677
  55.020        124.17	    12.207
  55.040         97.50	    10.817
  55.060         72.50	     9.327
  55.080         60.00	     8.485
  55.100         55.00	     8.124
  55.120         55.83	     8.185
  55.140         60.00	     8.485
  55.160         55.83	     8.185
  55.180         68.33	     9.055
  55.200         75.83	     9.539
  55.220         59.17	     8.426
  55.240         55.00	     8.124
  55.260         52.50	     7.937
  55.280         51.67	     7.874
  55.300         53.33	     8.000
  55.320         54.17	     8.062
  55.340         60.83	     8.544
  55.360         60.83	     8.544
  55.380         55.00	     8.124
  55.400         51.67	     7.874
  55.420         58.33	     8.367
  55.440         49.17	     7.681
  55.460         56.67	     8.246
  55.480         45.83	     7.416
  55.500         52.50	     7.937
  55.520         65.00	     8.832
  55.540         50.83	     7.810
  55.560         58.33	     8.367
  55.580         55.83	     8.185
  55.600         71.67	     9.274
  55.620         80.83	     9.849
  55.640        110.83	    11.533
  55.660        113.33	    11.662
  55.680         97.50	    10.817
  55.700        102.50	    11.091
  55.720        112.50	    11.619
  55.740         94.17	    10.630
  55.760         88.33	    10.296
  55.780         67.50	     9.000
  55.800         83.33	    10.000
  55.820         91.67	    10.488
  55.840         90.00	    10.392
  55.860         75.00	     9.487
  55.880         70.00	     9.165
  55.900         57.50	     8.307
  55.920         42.50	     7.141
  55.940         39.17	     6.856
  55.960         55.00	     8.124
  55.980         33.33	     6.325
  56.000         42.50	     7.141
  56.020         54.17	     8.062
  56.040         48.33	     7.616
  56.060         45.00	     7.348
  56.080         32.50	     6.245
  56.100         43.33	     7.211
  56.120         40.83	     7.000
  56.140         40.00	     6.928
  56.160         40.00	     6.928
  56.180         48.33	     7.616
  56.200         30.83	     6.083
  56.220         46.67	     7.483
  56.240         34.17	     6.403
  56.260         32.50	     6.245
  56.280         40.00	     6.928
  56.300         40.00	     6.928
  56.320         40.83	     7.000
  56.340         45.83	     7.416
  56.360         44.17	     7.280
  56.380         40.83	     7.000
  56.400         54.17	     8.062
  56.420         49.17	     7.681
  56.440         41.67	     7.071
  56.460         41.67	     7.071
  56.480         50.83	     7.810
  56.500         35.83	     6.557
  56.520         45.83	     7.416
  56.540         32.50	     6.245
  56.560         35.00	     6.481
  56.580         46.67	     7.483
  56.600         51.67	     7.874
  56.620         40.83	     7.000
  56.640         45.00	     7.348
  56.660         44.17	     7.280
  56.680         46.67	     7.483
  56.700         40.83	     7.000
  56.720         42.50	     7.141
  56.740         30.00	     6.000
  56.760         37.50	     6.708
  56.780         54.17	     8.062
  56.800         38.33	     6.782
  56.820         41.67	     7.071
  56.840         46.67	     7.483
  56.860         55.83	     8.185
  56.880         43.33	     7.211
  56.900         35.83	     6.557
  56.920         44.17	     7.280
  56.940         31.67	     6.164
  56.960         35.83	     6.557
  56.980         40.00	     6.928
  57.000         29.17	     5.916
  57.020         42.50	     7.141
  57.040         45.00	     7.348
  57.060         39.17	     6.856
  57.080         35.83	     6.557
  57.100         46.67	     7.483
  57.120         43.33	     7.211
  57.140         37.50	     6.708
  57.160         50.00	     7.746
  57.180         44.17	     7.280
  57.200         39.17	     6.856
  57.220         43.33	     7.211
  57.240         37.50	     6.708
  57.260         57.50	     8.307
  57.280         50.00	     7.746
  57.300         40.83	     7.000
  57.320         41.67	     7.071
  57.340         46.67	     7.483
  57.360         45.83	     7.416
  57.380         35.83	     6.557
  57.400         41.67	     7.071
  57.420         37.50	     6.708
  57.440         47.50	     7.550
  57.460         43.33	     7.211
  57.480         29.17	     5.916
  57.500         38.33	     6.782
  57.520         48.33	     7.616
  57.540         37.50	     6.708
  57.560         30.00	     6.000
  57.580         40.00	     6.928
  57.600         38.33	     6.782
  57.620         39.17	     6.856
  57.640         40.00	     6.928
  57.660         40.00	     6.928
  57.680         45.00	     7.348
  57.700         33.33	     6.325
  57.720         28.33	     5.831
  57.740         28.33	     5.831
  57.760         33.33	     6.325
  57.780         30.00	     6.000
  57.800         36.67	     6.633
  57.820         34.17	     6.403
  57.840         41.67	     7.071
  57.860         40.00	     6.928
  57.880         31.67	     6.164
  57.900         39.17	     6.856
  57.920         41.67	     7.071
  57.940         41.67	     7.071
  57.960         30.83	     6.083
  57.980         42.50	     7.141
  58.000         32.50	     6.245
  58.020         38.33	     6.782
  58.040         40.00	     6.928
  58.060         35.83	     6.557
  58.080         35.00	     6.481
  58.100         35.83	     6.557
  58.120         38.33	     6.782
  58.140         36.67	     6.633
  58.160         57.50	     8.307
  58.180         39.17	     6.856
  58.200         38.33	     6.782
  58.220         39.17	     6.856
  58.240         40.00	     6.928
  58.260         43.33	     7.211
  58.280         29.17	     5.916
  58.300         45.00	     7.348
  58.320         45.83	     7.416
  58.340         40.00	     6.928
  58.360         54.17	     8.062
  58.380         39.17	     6.856
  58.400         51.67	     7.874
  58.420         39.17	     6.856
  58.440         45.83	     7.416
  58.460         60.00	     8.485
  58.480         52.50	     7.937
  58.500         48.33	     7.616
  58.520         41.67	     7.071
  58.540         55.83	     8.185
  58.560         68.33	     9.055
  58.580         49.17	     7.681
  58.600         42.50	     7.141
  58.620         45.00	     7.348
  58.640         57.50	     8.307
  58.660         54.17	     8.062
  58.680         58.33	     8.367
  58.700         54.17	     8.062
  58.720         52.50	     7.937
  58.740         53.33	     8.000
  58.760         53.33	     8.000
  58.780         46.67	     7.483
  58.800         55.83	     8.185
  58.820         65.00	     8.832
  58.840         54.17	     8.062
  58.860         69.17	     9.110
  58.880         45.00	     7.348
  58.900         46.67	     7.483
  58.920         53.33	     8.000
  58.940         55.00	     8.124
  58.960         65.00	     8.832
  58.980         62.50	     8.660
  59.000         53.33	     8.000
  59.020         59.17	     8.426
  59.040         70.83	     9.220
  59.060         67.50	     9.000
  59.080         50.83	     7.810
  59.100         55.83	     8.185
  59.120         57.50	     8.307
  59.140         55.83	     8.185
  59.160         60.83	     8.544
  59.180         54.17	     8.062
  59.200         50.00	     7.746
  59.220         54.17	     8.062
  59.240         46.67	     7.483
  59.260         55.83	     8.185
  59.280         46.67	     7.483
  59.300         48.33	     7.616
  59.320         39.17	     6.856
  59.340         39.17	     6.856
  59.360         49.17	     7.681
  59.380         41.67	     7.071
  59.400         40.00	     6.928
  59.420         37.50	     6.708
  59.440         50.00	     7.746
  59.460         44.17	     7.280
  59.480         45.00	     7.348
  59.500         39.17	     6.856
  59.520         47.50	     7.550
  59.540         46.67	     7.483
  59.560         51.67	     7.874
  59.580         40.00	     6.928
  59.600         44.17	     7.280
  59.620         37.50	     6.708
  59.640         51.67	     7.874
  59.660         61.67	     8.602
  59.680         65.83	     8.888
  59.700         74.17	     9.434
  59.720         80.83	     9.849
  59.740        102.50	    11.091
  59.760        108.33	    11.402
  59.780        155.00	    13.638
  59.800        217.50	    16.155
  59.820        289.17	    18.628
  59.840        273.33	    18.111
  59.860        255.00	    17.493
  59.880        203.33	    15.620
  59.900        186.67	    14.967
  59.920        154.17	    13.601
  59.940        145.00	    13.191
  59.960        146.67	    13.266
  59.980        150.83	    13.454
  60.000        194.17	    15.264
  60.020        166.67	    14.142
  60.040        150.00	    13.416
  60.060        105.00	    11.225
  60.080         74.17	     9.434
  60.100         80.00	     9.798
  60.120         60.83	     8.544
  60.140         62.50	     8.660
  60.160         62.50	     8.660
  60.180         55.00	     8.124
  60.200         60.83	     8.544
  60.220         60.83	     8.544
  60.240         59.17	     8.426
  60.260         62.50	     8.660
  60.280         61.67	     8.602
  60.300         48.33	     7.616
  60.320         60.83	     8.544
  60.340         50.00	     7.746
  60.360         53.33	     8.000
  60.380         64.17	     8.775
  60.400         52.50	     7.937
  60.420         57.50	     8.307
  60.440         55.83	     8.185
  60.460         45.00	     7.348
  60.480         58.33	     8.367
  60.500         42.50	     7.141
  60.520         41.67	     7.071
  60.540         49.17	     7.681
  60.560         59.17	     8.426
  60.580         52.50	     7.937
  60.600         55.83	     8.185
  60.620         63.33	     8.718
  60.640         55.00	     8.124
  60.660         60.83	     8.544
  60.680         70.83	     9.220
  60.700         65.00	     8.832
  60.720         60.83	     8.544
  60.740         70.83	     9.220
  60.760         59.17	     8.426
  60.780         66.67	     8.944
  60.800         62.50	     8.660
  60.820         69.17	     9.110
  60.840         55.00	     8.124
  60.860         58.33	     8.367
  60.880         63.33	     8.718
  60.900         69.17	     9.110
  60.920         40.00	     6.928
  60.940         54.17	     8.062
  60.960         52.50	     7.937
  60.980         58.33	     8.367
  61.000         59.17	     8.426
  61.020         51.67	     7.874
  61.040         64.17	     8.775
  61.060         35.00	     6.481
  61.080         40.83	     7.000
  61.100         53.33	     8.000
  61.120         51.67	     7.874
  61.140         49.17	     7.681
  61.160         47.50	     7.550
  61.180         45.00	     7.348
  61.200         45.00	     7.348
  61.220         45.00	     7.348
  61.240         49.17	     7.681
  61.260         51.67	     7.874
  61.280         54.17	     8.062
  61.300         48.33	     7.616
  61.320         65.83	     8.888
  61.340         70.00	     9.165
  61.360         56.67	     8.246
  61.380         65.83	     8.888
  61.400         71.67	     9.274
  61.420         60.83	     8.544
  61.440         66.67	     8.944
  61.460         52.50	     7.937
  61.480         82.50	     9.950
  61.500         80.83	     9.849
  61.520         81.67	     9.899
  61.540         66.67	     8.944
  61.560         64.17	     8.775
  61.580         55.83	     8.185
  61.600         65.00	     8.832
  61.620         60.83	     8.544
  61.640         56.67	     8.246
  61.660         54.17	     8.062
  61.680         55.00	     8.124
  61.700         72.50	     9.327
  61.720         42.50	     7.141
  61.740         50.00	     7.746
  61.760         47.50	     7.550
  61.780         69.17	     9.110
  61.800         51.67	     7.874
  61.820         55.83	     8.185
  61.840         55.00	     8.124
  61.860         58.33	     8.367
  61.880         59.17	     8.426
  61.900         43.33	     7.211
  61.920         60.00	     8.485
  61.940         45.00	     7.348
  61.960         50.00	     7.746
  61.980         46.67	     7.483
  62.000         53.33	     8.000
  62.020         47.50	     7.550
  62.040         32.50	     6.245
  62.060         48.33	     7.616
  62.080         41.67	     7.071
  62.100         44.17	     7.280
  62.120         42.50	     7.141
  62.140         39.17	     6.856
  62.160         34.17	     6.403
  62.180         41.67	     7.071
  62.200         41.67	     7.071
  62.220         44.17	     7.280
  62.240         33.33	     6.325
  62.260         35.83	     6.557
  62.280         33.33	     6.325
  62.300         50.00	     7.746
  62.320         43.33	     7.211
  62.340         35.83	     6.557
  62.360         31.67	     6.164
  62.380         33.33	     6.325
  62.400         43.33	     7.211
  62.420         50.00	     7.746
  62.440         39.17	     6.856
  62.460         37.50	     6.708
  62.480         41.67	     7.071
  62.500         39.17	     6.856
  62.520         48.33	     7.616
  62.540         42.50	     7.141
  62.560         41.67	     7.071
  62.580         46.67	     7.483
  62.600         54.17	     8.062
  62.620         31.67	     6.164
  62.640         39.17	     6.856
  62.660         45.83	     7.416
  62.680         44.17	     7.280
  62.700         41.67	     7.071
  62.720         40.00	     6.928
  62.740         49.17	     7.681
  62.760         43.33	     7.211
  62.780         40.83	     7.000
  62.800         36.67	     6.633
  62.820         32.50	     6.245
  62.840         37.50	     6.708
  62.860         53.33	     8.000
  62.880         39.17	     6.856
  62.900         40.83	     7.000
  62.920         40.83	     7.000
  62.940         51.67	     7.874
  62.960         42.50	     7.141
  62.980         35.83	     6.557
  63.000         35.00	     6.481
  63.020         40.83	     7.000
  63.040         30.83	     6.083
  63.060         34.17	     6.403
  63.080         43.33	     7.211
  63.100         42.50	     7.141
  63.120         43.33	     7.211
  63.140         45.00	     7.348
  63.160         36.67	     6.633
  63.180         45.00	     7.348
  63.200         42.50	     7.141
  63.220         50.00	     7.746
  63.240         45.83	     7.416
  63.260         28.33	     5.831
  63.280         44.17	     7.280
  63.300         52.50	     7.937
  63.320         55.83	     8.185
  63.340         52.50	     7.937
  63.360         43.33	     7.211
  63.380         42.50	     7.141
  63.400         46.67	     7.483
  63.420         54.17	     8.062
  63.440         39.17	     6.856
  63.460         38.33	     6.782
  63.480         51.67	     7.874
  63.500         50.00	     7.746
  63.520         50.00	     7.746
  63.540         47.50	     7.550
  63.560         45.83	     7.416
  63.580         62.50	     8.660
  63.600         59.17	     8.426
  63.620         54.17	     8.062
  63.640         60.00	     8.485
  63.660         68.33	     9.055
  63.680         62.50	     8.660
  63.700         81.67	     9.899
  63.720         73.33	     9.381
  63.740         80.00	     9.798
  63.760         77.50	     9.644
  63.780         68.33	     9.055
  63.800         93.33	    10.583
  63.820         84.17	    10.050
  63.840         95.00	    10.677
  63.860        106.67	    11.314
  63.880        108.33	    11.402
  63.900        103.33	    11.136
  63.920        123.33	    12.166
  63.940        128.33	    12.410
  63.960        116.67	    11.832
  63.980         93.33	    10.583
  64.000         77.50	     9.644
  64.020         78.33	     9.695
  64.040         77.50	     9.644
  64.060         82.50	     9.950
  64.080         95.83	    10.724
  64.100        104.17	    11.180
  64.120         83.33	    10.000
  64.140         75.83	     9.539
  64.160         70.00	     9.165
  64.180         65.00	     8.832
  64.200         60.83	     8.544
  64.220         66.67	     8.944
  64.240         55.83	     8.185
  64.260         48.33	     7.616
  64.280         59.17	     8.426
  64.300         45.00	     7.348
  64.320         59.17	     8.426
  64.340         64.17	     8.775
  64.360         90.83	    10.440
  64.380         70.83	     9.220
  64.400         90.83	    10.440
  64.420        121.67	    12.083
  64.440        180.83	    14.731
  64.460        154.17	    13.601
  64.480        151.67	    13.491
  64.500        138.33	    12.884
  64.520        120.83	    12.042
  64.540         96.67	    10.770
  64.560         73.33	     9.381
  64.580         99.17	    10.909
  64.600         89.17	    10.344
  64.620         94.17	    10.630
  64.640        100.00	    10.954
  64.660         95.00	    10.677
  64.680         90.00	    10.392
  64.700         95.00	    10.677
  64.720         73.33	     9.381
  64.740         72.50	     9.327
  64.760         61.67	     8.602
  64.780         59.17	     8.426
  64.800         66.67	     8.944
  64.820         50.83	     7.810
  64.840         55.00	     8.124
  64.860         36.67	     6.633
  64.880         44.17	     7.280
  64.900         53.33	     8.000
  64.920         55.83	     8.185
  64.940         44.17	     7.280
  64.960         53.33	     8.000
  64.980         67.50	     9.000
  65.000         52.50	     7.937
