
Filename:
	C:\Program Files\Thermo Electron\WinXRD\Datafiles\F_HERMAN\GEO\G32_RT.raw

File Created:
	February 18, 2020 - 06:11 PM

Specimen Id:
	G32_RT

Specimen Name:
	

Specimen Description:
	

Comment:
Scan Type: 2Theta Scan
Start Angle: 3 deg.
Stop Angle: 65 deg.
Num Points: 3101
Step Size: 0.02 deg.
Scan Rate: 1.000000
Scan Mode: Continuous
Wavelength: 1.540562
\Kalpha1: 1.540562	\Kalpha2: 1.544390	\Kbeta: 1.392218

Optics:
		Detector:
			 Type: Fixed Slits
		Tube: 
			 Type: Fixed Slits


Datas:
 Pos [deg]       Rate [CPS]      ESD [-]

Range 1 ---> Iteration 1
   3.000        453.33	    23.324
   3.020        459.17	    23.473
   3.040        412.50	    22.249
   3.060        456.67	    23.409
   3.080        448.33	    23.195
   3.100        430.83	    22.738
   3.120        444.17	    23.087
   3.140        404.17	    22.023
   3.160        415.83	    22.338
   3.180        399.17	    21.886
   3.200        420.83	    22.472
   3.220        375.00	    21.213
   3.240        418.33	    22.405
   3.260        380.00	    21.354
   3.280        404.17	    22.023
   3.300        367.50	    21.000
   3.320        401.67	    21.954
   3.340        373.33	    21.166
   3.360        379.17	    21.331
   3.380        370.83	    21.095
   3.400        367.50	    21.000
   3.420        363.33	    20.881
   3.440        369.17	    21.048
   3.460        370.83	    21.095
   3.480        359.17	    20.761
   3.500        369.17	    21.048
   3.520        372.50	    21.142
   3.540        380.00	    21.354
   3.560        345.83	    20.372
   3.580        350.83	    20.518
   3.600        368.33	    21.024
   3.620        355.83	    20.664
   3.640        320.00	    19.596
   3.660        342.50	    20.273
   3.680        340.00	    20.199
   3.700        350.83	    20.518
   3.720        351.67	    20.543
   3.740        346.67	    20.396
   3.760        325.00	    19.748
   3.780        322.50	    19.672
   3.800        298.33	    18.921
   3.820        335.00	    20.050
   3.840        330.00	    19.900
   3.860        325.00	    19.748
   3.880        305.83	    19.157
   3.900        311.67	    19.339
   3.920        309.17	    19.261
   3.940        305.83	    19.157
   3.960        327.50	    19.824
   3.980        290.83	    18.682
   4.000        298.33	    18.921
   4.020        300.83	    19.000
   4.040        329.17	    19.875
   4.060        292.50	    18.735
   4.080        288.33	    18.601
   4.100        298.33	    18.921
   4.120        312.50	    19.365
   4.140        274.17	    18.138
   4.160        311.67	    19.339
   4.180        292.50	    18.735
   4.200        296.67	    18.868
   4.220        275.00	    18.166
   4.240        276.67	    18.221
   4.260        291.67	    18.708
   4.280        280.83	    18.358
   4.300        296.67	    18.868
   4.320        289.17	    18.628
   4.340        250.83	    17.349
   4.360        268.33	    17.944
   4.380        290.83	    18.682
   4.400        250.00	    17.321
   4.420        258.33	    17.607
   4.440        275.00	    18.166
   4.460        288.33	    18.601
   4.480        250.00	    17.321
   4.500        269.17	    17.972
   4.520        259.17	    17.635
   4.540        245.00	    17.146
   4.560        265.83	    17.861
   4.580        251.67	    17.378
   4.600        261.67	    17.720
   4.620        252.50	    17.407
   4.640        260.83	    17.692
   4.660        243.33	    17.088
   4.680        258.33	    17.607
   4.700        280.83	    18.358
   4.720        249.17	    17.292
   4.740        258.33	    17.607
   4.760        246.67	    17.205
   4.780        252.50	    17.407
   4.800        260.00	    17.664
   4.820        236.67	    16.852
   4.840        258.33	    17.607
   4.860        260.00	    17.664
   4.880        229.17	    16.583
   4.900        241.67	    17.029
   4.920        207.50	    15.780
   4.940        235.83	    16.823
   4.960        231.67	    16.673
   4.980        245.00	    17.146
   5.000        258.33	    17.607
   5.020        245.83	    17.176
   5.040        253.33	    17.436
   5.060        233.33	    16.733
   5.080        230.00	    16.613
   5.100        231.67	    16.673
   5.120        228.33	    16.553
   5.140        228.33	    16.553
   5.160        225.83	    16.462
   5.180        232.50	    16.703
   5.200        219.17	    16.217
   5.220        236.67	    16.852
   5.240        211.67	    15.937
   5.260        220.83	    16.279
   5.280        236.67	    16.852
   5.300        213.33	    16.000
   5.320        214.17	    16.031
   5.340        228.33	    16.553
   5.360        240.00	    16.971
   5.380        218.33	    16.186
   5.400        240.00	    16.971
   5.420        211.67	    15.937
   5.440        196.67	    15.362
   5.460        218.33	    16.186
   5.480        234.17	    16.763
   5.500        231.67	    16.673
   5.520        219.17	    16.217
   5.540        210.83	    15.906
   5.560        200.00	    15.492
   5.580        190.00	    15.100
   5.600        222.50	    16.340
   5.620        199.17	    15.460
   5.640        222.50	    16.340
   5.660        230.00	    16.613
   5.680        180.83	    14.731
   5.700        214.17	    16.031
   5.720        204.17	    15.652
   5.740        215.00	    16.062
   5.760        220.83	    16.279
   5.780        227.50	    16.523
   5.800        190.83	    15.133
   5.820        220.00	    16.248
   5.840        221.67	    16.310
   5.860        215.83	    16.093
   5.880        225.83	    16.462
   5.900        230.83	    16.643
   5.920        245.00	    17.146
   5.940        237.50	    16.882
   5.960        228.33	    16.553
   5.980        223.33	    16.371
   6.000        215.00	    16.062
   6.020        236.67	    16.852
   6.040        220.00	    16.248
   6.060        235.83	    16.823
   6.080        281.67	    18.385
   6.100        298.33	    18.921
   6.120        266.67	    17.889
   6.140        285.00	    18.493
   6.160        271.67	    18.055
   6.180        245.83	    17.176
   6.200        220.00	    16.248
   6.220        205.83	    15.716
   6.240        175.83	    14.526
   6.260        181.67	    14.765
   6.280        182.50	    14.799
   6.300        200.00	    15.492
   6.320        177.50	    14.595
   6.340        192.50	    15.199
   6.360        191.67	    15.166
   6.380        184.17	    14.866
   6.400        185.83	    14.933
   6.420        193.33	    15.232
   6.440        215.83	    16.093
   6.460        205.00	    15.684
   6.480        165.00	    14.071
   6.500        172.50	    14.387
   6.520        181.67	    14.765
   6.540        168.33	    14.213
   6.560        171.67	    14.353
   6.580        161.67	    13.928
   6.600        176.67	    14.560
   6.620        191.67	    15.166
   6.640        181.67	    14.765
   6.660        192.50	    15.199
   6.680        180.00	    14.697
   6.700        175.83	    14.526
   6.720        160.83	    13.892
   6.740        169.17	    14.248
   6.760        165.83	    14.107
   6.780        176.67	    14.560
   6.800        176.67	    14.560
   6.820        179.17	    14.663
   6.840        168.33	    14.213
   6.860        171.67	    14.353
   6.880        182.50	    14.799
   6.900        177.50	    14.595
   6.920        169.17	    14.248
   6.940        191.67	    15.166
   6.960        170.83	    14.318
   6.980        175.83	    14.526
   7.000        167.50	    14.177
   7.020        171.67	    14.353
   7.040        165.83	    14.107
   7.060        150.00	    13.416
   7.080        174.17	    14.457
   7.100        165.00	    14.071
   7.120        180.00	    14.697
   7.140        160.83	    13.892
   7.160        180.83	    14.731
   7.180        157.50	    13.748
   7.200        160.00	    13.856
   7.220        155.83	    13.675
   7.240        149.17	    13.379
   7.260        172.50	    14.387
   7.280        170.00	    14.283
   7.300        128.33	    12.410
   7.320        145.00	    13.191
   7.340        164.17	    14.036
   7.360        171.67	    14.353
   7.380        174.17	    14.457
   7.400        174.17	    14.457
   7.420        157.50	    13.748
   7.440        130.83	    12.530
   7.460        149.17	    13.379
   7.480        159.17	    13.820
   7.500        163.33	    14.000
   7.520        156.67	    13.711
   7.540        180.00	    14.697
   7.560        155.83	    13.675
   7.580        145.00	    13.191
   7.600        141.67	    13.038
   7.620        135.00	    12.728
   7.640        156.67	    13.711
   7.660        150.83	    13.454
   7.680        159.17	    13.820
   7.700        151.67	    13.491
   7.720        164.17	    14.036
   7.740        148.33	    13.342
   7.760        126.67	    12.329
   7.780        163.33	    14.000
   7.800        160.00	    13.856
   7.820        150.00	    13.416
   7.840        163.33	    14.000
   7.860        150.00	    13.416
   7.880        145.83	    13.229
   7.900        162.50	    13.964
   7.920        139.17	    12.923
   7.940        150.00	    13.416
   7.960        155.83	    13.675
   7.980        140.00	    12.961
   8.000        143.33	    13.115
   8.020        164.17	    14.036
   8.040        152.50	    13.528
   8.060        158.33	    13.784
   8.080        148.33	    13.342
   8.100        164.17	    14.036
   8.120        154.17	    13.601
   8.140        129.17	    12.450
   8.160        140.00	    12.961
   8.180        145.83	    13.229
   8.200        134.17	    12.689
   8.220        158.33	    13.784
   8.240        165.83	    14.107
   8.260        178.33	    14.629
   8.280        149.17	    13.379
   8.300        132.50	    12.610
   8.320        157.50	    13.748
   8.340        170.00	    14.283
   8.360        150.00	    13.416
   8.380        165.00	    14.071
   8.400        159.17	    13.820
   8.420        180.00	    14.697
   8.440        145.83	    13.229
   8.460        170.83	    14.318
   8.480        205.00	    15.684
   8.500        177.50	    14.595
   8.520        190.00	    15.100
   8.540        176.67	    14.560
   8.560        218.33	    16.186
   8.580        232.50	    16.703
   8.600        232.50	    16.703
   8.620        314.17	    19.416
   8.640        337.50	    20.125
   8.660        375.00	    21.213
   8.680        355.83	    20.664
   8.700        388.33	    21.587
   8.720        486.67	    24.166
   8.740        595.83	    26.739
   8.760        740.00	    29.799
   8.780        822.50	    31.417
   8.800        657.50	    28.089
   8.820        481.67	    24.042
   8.840        277.50	    18.248
   8.860        196.67	    15.362
   8.880        167.50	    14.177
   8.900        159.17	    13.820
   8.920        184.17	    14.866
   8.940        175.83	    14.526
   8.960        134.17	    12.689
   8.980        137.50	    12.845
   9.000        168.33	    14.213
   9.020        148.33	    13.342
   9.040        145.00	    13.191
   9.060        140.00	    12.961
   9.080        133.33	    12.649
   9.100        139.17	    12.923
   9.120        124.17	    12.207
   9.140        146.67	    13.266
   9.160        137.50	    12.845
   9.180        126.67	    12.329
   9.200        129.17	    12.450
   9.220        126.67	    12.329
   9.240        117.50	    11.874
   9.260        137.50	    12.845
   9.280        117.50	    11.874
   9.300        134.17	    12.689
   9.320        135.00	    12.728
   9.340        144.17	    13.153
   9.360        135.00	    12.728
   9.380        123.33	    12.166
   9.400        119.17	    11.958
   9.420        110.83	    11.533
   9.440        111.67	    11.576
   9.460        125.83	    12.288
   9.480        124.17	    12.207
   9.500        128.33	    12.410
   9.520        113.33	    11.662
   9.540        101.67	    11.045
   9.560        140.00	    12.961
   9.580        117.50	    11.874
   9.600        117.50	    11.874
   9.620        119.17	    11.958
   9.640        120.00	    12.000
   9.660        127.50	    12.369
   9.680        135.00	    12.728
   9.700        131.67	    12.570
   9.720        132.50	    12.610
   9.740        100.83	    11.000
   9.760        120.83	    12.042
   9.780        120.00	    12.000
   9.800        116.67	    11.832
   9.820        111.67	    11.576
   9.840        124.17	    12.207
   9.860        108.33	    11.402
   9.880        123.33	    12.166
   9.900        110.00	    11.489
   9.920        113.33	    11.662
   9.940        103.33	    11.136
   9.960        105.83	    11.269
   9.980        110.83	    11.533
  10.000        105.00	    11.225
  10.020        130.00	    12.490
  10.040        103.33	    11.136
  10.060         97.50	    10.817
  10.080        102.50	    11.091
  10.100        122.50	    12.124
  10.120        100.83	    11.000
  10.140         91.67	    10.488
  10.160        109.17	    11.446
  10.180        110.00	    11.489
  10.200        107.50	    11.358
  10.220        100.00	    10.954
  10.240         93.33	    10.583
  10.260        115.00	    11.747
  10.280        120.83	    12.042
  10.300        115.00	    11.747
  10.320        130.00	    12.490
  10.340        166.67	    14.142
  10.360        184.17	    14.866
  10.380        212.50	    15.969
  10.400        162.50	    13.964
  10.420        149.17	    13.379
  10.440        116.67	    11.832
  10.460        126.67	    12.329
  10.480        111.67	    11.576
  10.500        121.67	    12.083
  10.520        108.33	    11.402
  10.540        110.00	    11.489
  10.560         90.83	    10.440
  10.580         95.83	    10.724
  10.600        115.00	    11.747
  10.620        115.00	    11.747
  10.640        105.00	    11.225
  10.660        117.50	    11.874
  10.680         98.33	    10.863
  10.700        102.50	    11.091
  10.720        110.83	    11.533
  10.740        105.00	    11.225
  10.760        124.17	    12.207
  10.780        110.83	    11.533
  10.800         98.33	    10.863
  10.820        101.67	    11.045
  10.840         87.50	    10.247
  10.860        128.33	    12.410
  10.880         80.83	     9.849
  10.900        101.67	    11.045
  10.920        100.00	    10.954
  10.940        100.00	    10.954
  10.960        104.17	    11.180
  10.980         97.50	    10.817
  11.000        105.83	    11.269
  11.020        105.83	    11.269
  11.040         98.33	    10.863
  11.060        106.67	    11.314
  11.080         90.83	    10.440
  11.100         75.83	     9.539
  11.120        108.33	    11.402
  11.140         80.83	     9.849
  11.160         99.17	    10.909
  11.180         73.33	     9.381
  11.200         87.50	    10.247
  11.220        102.50	    11.091
  11.240         83.33	    10.000
  11.260         80.00	     9.798
  11.280         91.67	    10.488
  11.300         86.67	    10.198
  11.320         89.17	    10.344
  11.340         98.33	    10.863
  11.360        105.83	    11.269
  11.380         92.50	    10.536
  11.400         90.83	    10.440
  11.420        106.67	    11.314
  11.440        110.00	    11.489
  11.460         90.00	    10.392
  11.480         85.83	    10.149
  11.500        108.33	    11.402
  11.520         87.50	    10.247
  11.540         78.33	     9.695
  11.560         87.50	    10.247
  11.580        104.17	    11.180
  11.600        102.50	    11.091
  11.620         96.67	    10.770
  11.640         80.83	     9.849
  11.660         99.17	    10.909
  11.680         82.50	     9.950
  11.700         89.17	    10.344
  11.720        107.50	    11.358
  11.740         93.33	    10.583
  11.760         78.33	     9.695
  11.780         97.50	    10.817
  11.800        107.50	    11.358
  11.820        105.83	    11.269
  11.840        113.33	    11.662
  11.860         99.17	    10.909
  11.880        100.00	    10.954
  11.900        101.67	    11.045
  11.920         97.50	    10.817
  11.940        117.50	    11.874
  11.960        126.67	    12.329
  11.980        119.17	    11.958
  12.000        125.00	    12.247
  12.020        154.17	    13.601
  12.040        184.17	    14.866
  12.060        240.00	    16.971
  12.080        240.00	    16.971
  12.100        245.83	    17.176
  12.120        194.17	    15.264
  12.140        173.33	    14.422
  12.160        165.83	    14.107
  12.180        130.00	    12.490
  12.200        131.67	    12.570
  12.220        143.33	    13.115
  12.240        148.33	    13.342
  12.260        177.50	    14.595
  12.280        180.00	    14.697
  12.300        152.50	    13.528
  12.320        190.00	    15.100
  12.340        200.00	    15.492
  12.360        205.83	    15.716
  12.380        286.67	    18.547
  12.400        300.83	    19.000
  12.420        319.17	    19.570
  12.440        263.33	    17.776
  12.460        160.00	    13.856
  12.480        138.33	    12.884
  12.500        105.83	    11.269
  12.520        105.00	    11.225
  12.540         90.83	    10.440
  12.560         90.00	    10.392
  12.580         99.17	    10.909
  12.600        102.50	    11.091
  12.620        107.50	    11.358
  12.640         90.83	    10.440
  12.660        100.00	    10.954
  12.680         88.33	    10.296
  12.700         82.50	     9.950
  12.720         95.00	    10.677
  12.740         75.00	     9.487
  12.760         85.00	    10.100
  12.780        100.83	    11.000
  12.800         94.17	    10.630
  12.820         90.00	    10.392
  12.840         83.33	    10.000
  12.860         84.17	    10.050
  12.880         81.67	     9.899
  12.900         97.50	    10.817
  12.920         70.00	     9.165
  12.940         85.83	    10.149
  12.960         97.50	    10.817
  12.980        103.33	    11.136
  13.000        103.33	    11.136
  13.020         78.33	     9.695
  13.040         83.33	    10.000
  13.060        106.67	    11.314
  13.080         82.50	     9.950
  13.100         78.33	     9.695
  13.120         86.67	    10.198
  13.140         75.00	     9.487
  13.160         95.00	    10.677
  13.180         66.67	     8.944
  13.200         89.17	    10.344
  13.220         78.33	     9.695
  13.240         90.00	    10.392
  13.260         66.67	     8.944
  13.280         79.17	     9.747
  13.300        110.83	    11.533
  13.320         95.83	    10.724
  13.340         95.83	    10.724
  13.360         82.50	     9.950
  13.380         85.00	    10.100
  13.400         98.33	    10.863
  13.420         83.33	    10.000
  13.440         74.17	     9.434
  13.460         71.67	     9.274
  13.480         84.17	    10.050
  13.500         93.33	    10.583
  13.520        113.33	    11.662
  13.540        100.00	    10.954
  13.560        128.33	    12.410
  13.580        102.50	    11.091
  13.600         70.00	     9.165
  13.620         83.33	    10.000
  13.640         90.83	    10.440
  13.660         98.33	    10.863
  13.680         66.67	     8.944
  13.700         90.83	    10.440
  13.720        137.50	    12.845
  13.740        156.67	    13.711
  13.760        148.33	    13.342
  13.780        143.33	    13.115
  13.800        128.33	    12.410
  13.820        122.50	    12.124
  13.840        127.50	    12.369
  13.860        115.83	    11.790
  13.880        109.17	    11.446
  13.900         84.17	    10.050
  13.920         78.33	     9.695
  13.940         88.33	    10.296
  13.960         85.00	    10.100
  13.980        102.50	    11.091
  14.000         70.00	     9.165
  14.020         74.17	     9.434
  14.040         84.17	    10.050
  14.060         83.33	    10.000
  14.080         69.17	     9.110
  14.100         78.33	     9.695
  14.120         77.50	     9.644
  14.140         81.67	     9.899
  14.160         75.83	     9.539
  14.180         78.33	     9.695
  14.200         75.00	     9.487
  14.220         68.33	     9.055
  14.240         72.50	     9.327
  14.260         74.17	     9.434
  14.280         85.83	    10.149
  14.300         75.00	     9.487
  14.320         75.83	     9.539
  14.340         60.00	     8.485
  14.360         63.33	     8.718
  14.380         71.67	     9.274
  14.400         63.33	     8.718
  14.420         67.50	     9.000
  14.440         80.83	     9.849
  14.460         70.83	     9.220
  14.480         61.67	     8.602
  14.500         61.67	     8.602
  14.520         67.50	     9.000
  14.540         93.33	    10.583
  14.560         77.50	     9.644
  14.580         79.17	     9.747
  14.600         66.67	     8.944
  14.620         71.67	     9.274
  14.640         83.33	    10.000
  14.660         60.83	     8.544
  14.680         65.00	     8.832
  14.700         59.17	     8.426
  14.720         70.83	     9.220
  14.740         45.00	     7.348
  14.760         61.67	     8.602
  14.780         64.17	     8.775
  14.800         62.50	     8.660
  14.820         80.00	     9.798
  14.840         67.50	     9.000
  14.860         79.17	     9.747
  14.880         80.00	     9.798
  14.900         80.00	     9.798
  14.920         77.50	     9.644
  14.940         60.83	     8.544
  14.960         62.50	     8.660
  14.980         63.33	     8.718
  15.000         83.33	    10.000
  15.020         60.83	     8.544
  15.040         79.17	     9.747
  15.060         79.17	     9.747
  15.080         51.67	     7.874
  15.100         62.50	     8.660
  15.120         60.00	     8.485
  15.140         68.33	     9.055
  15.160         76.67	     9.592
  15.180         56.67	     8.246
  15.200         53.33	     8.000
  15.220         65.83	     8.888
  15.240         56.67	     8.246
  15.260         70.83	     9.220
  15.280         77.50	     9.644
  15.300         65.00	     8.832
  15.320         69.17	     9.110
  15.340         70.00	     9.165
  15.360         58.33	     8.367
  15.380         77.50	     9.644
  15.400         61.67	     8.602
  15.420         56.67	     8.246
  15.440         56.67	     8.246
  15.460         65.83	     8.888
  15.480         82.50	     9.950
  15.500         70.00	     9.165
  15.520         65.00	     8.832
  15.540         70.83	     9.220
  15.560         73.33	     9.381
  15.580         62.50	     8.660
  15.600         61.67	     8.602
  15.620         67.50	     9.000
  15.640         68.33	     9.055
  15.660         60.83	     8.544
  15.680         72.50	     9.327
  15.700         65.83	     8.888
  15.720         75.00	     9.487
  15.740         72.50	     9.327
  15.760         66.67	     8.944
  15.780         63.33	     8.718
  15.800         72.50	     9.327
  15.820         70.00	     9.165
  15.840         77.50	     9.644
  15.860         74.17	     9.434
  15.880         77.50	     9.644
  15.900         70.00	     9.165
  15.920         55.00	     8.124
  15.940         69.17	     9.110
  15.960         81.67	     9.899
  15.980         62.50	     8.660
  16.000         78.33	     9.695
  16.020         59.17	     8.426
  16.040         60.83	     8.544
  16.060         58.33	     8.367
  16.080         64.17	     8.775
  16.100         45.83	     7.416
  16.120         68.33	     9.055
  16.140         51.67	     7.874
  16.160         55.00	     8.124
  16.180         70.00	     9.165
  16.200         65.00	     8.832
  16.220         57.50	     8.307
  16.240         65.00	     8.832
  16.260         65.83	     8.888
  16.280         58.33	     8.367
  16.300         64.17	     8.775
  16.320         67.50	     9.000
  16.340         66.67	     8.944
  16.360         75.00	     9.487
  16.380         66.67	     8.944
  16.400         70.83	     9.220
  16.420         67.50	     9.000
  16.440         58.33	     8.367
  16.460         52.50	     7.937
  16.480         64.17	     8.775
  16.500         66.67	     8.944
  16.520         61.67	     8.602
  16.540         62.50	     8.660
  16.560         54.17	     8.062
  16.580         70.83	     9.220
  16.600         61.67	     8.602
  16.620         57.50	     8.307
  16.640         63.33	     8.718
  16.660         61.67	     8.602
  16.680         64.17	     8.775
  16.700         62.50	     8.660
  16.720         66.67	     8.944
  16.740         79.17	     9.747
  16.760         69.17	     9.110
  16.780         70.00	     9.165
  16.800         70.83	     9.220
  16.820         60.83	     8.544
  16.840         62.50	     8.660
  16.860         60.00	     8.485
  16.880         71.67	     9.274
  16.900         52.50	     7.937
  16.920         73.33	     9.381
  16.940         62.50	     8.660
  16.960         64.17	     8.775
  16.980         63.33	     8.718
  17.000         65.00	     8.832
  17.020         58.33	     8.367
  17.040         53.33	     8.000
  17.060         75.83	     9.539
  17.080         56.67	     8.246
  17.100         56.67	     8.246
  17.120         61.67	     8.602
  17.140         54.17	     8.062
  17.160         61.67	     8.602
  17.180         61.67	     8.602
  17.200         58.33	     8.367
  17.220         60.83	     8.544
  17.240         61.67	     8.602
  17.260         72.50	     9.327
  17.280         66.67	     8.944
  17.300         60.83	     8.544
  17.320         74.17	     9.434
  17.340         68.33	     9.055
  17.360         59.17	     8.426
  17.380         71.67	     9.274
  17.400         65.83	     8.888
  17.420         74.17	     9.434
  17.440         58.33	     8.367
  17.460         63.33	     8.718
  17.480         70.00	     9.165
  17.500         91.67	    10.488
  17.520         56.67	     8.246
  17.540         71.67	     9.274
  17.560         95.00	    10.677
  17.580         75.00	     9.487
  17.600         77.50	     9.644
  17.620        119.17	    11.958
  17.640        117.50	    11.874
  17.660        180.83	    14.731
  17.680        198.33	    15.427
  17.700        230.00	    16.613
  17.720        280.00	    18.330
  17.740        267.50	    17.916
  17.760        209.17	    15.843
  17.780        136.67	    12.806
  17.800        123.33	    12.166
  17.820         76.67	     9.592
  17.840         63.33	     8.718
  17.860         70.83	     9.220
  17.880         72.50	     9.327
  17.900         60.83	     8.544
  17.920         67.50	     9.000
  17.940         76.67	     9.592
  17.960         77.50	     9.644
  17.980         59.17	     8.426
  18.000         69.17	     9.110
  18.020         82.50	     9.950
  18.040         61.67	     8.602
  18.060         71.67	     9.274
  18.080         62.50	     8.660
  18.100         60.00	     8.485
  18.120         65.83	     8.888
  18.140         59.17	     8.426
  18.160         62.50	     8.660
  18.180         64.17	     8.775
  18.200         65.83	     8.888
  18.220         60.83	     8.544
  18.240         60.83	     8.544
  18.260         67.50	     9.000
  18.280         64.17	     8.775
  18.300         73.33	     9.381
  18.320         84.17	    10.050
  18.340         65.00	     8.832
  18.360         61.67	     8.602
  18.380         76.67	     9.592
  18.400         73.33	     9.381
  18.420         89.17	    10.344
  18.440         90.00	    10.392
  18.460         91.67	    10.488
  18.480        105.00	    11.225
  18.500         87.50	    10.247
  18.520         81.67	     9.899
  18.540         85.83	    10.149
  18.560         75.83	     9.539
  18.580         74.17	     9.434
  18.600         85.00	    10.100
  18.620        100.00	    10.954
  18.640         95.83	    10.724
  18.660        123.33	    12.166
  18.680        144.17	    13.153
  18.700        131.67	    12.570
  18.720        141.67	    13.038
  18.740        113.33	    11.662
  18.760         85.00	    10.100
  18.780         85.83	    10.149
  18.800         76.67	     9.592
  18.820         70.00	     9.165
  18.840         62.50	     8.660
  18.860         67.50	     9.000
  18.880         75.83	     9.539
  18.900         60.00	     8.485
  18.920         55.00	     8.124
  18.940         60.83	     8.544
  18.960         62.50	     8.660
  18.980         59.17	     8.426
  19.000         56.67	     8.246
  19.020         56.67	     8.246
  19.040         72.50	     9.327
  19.060         58.33	     8.367
  19.080         71.67	     9.274
  19.100         61.67	     8.602
  19.120         58.33	     8.367
  19.140         64.17	     8.775
  19.160         75.00	     9.487
  19.180         61.67	     8.602
  19.200         62.50	     8.660
  19.220         70.00	     9.165
  19.240         74.17	     9.434
  19.260         67.50	     9.000
  19.280         63.33	     8.718
  19.300         55.00	     8.124
  19.320         71.67	     9.274
  19.340         58.33	     8.367
  19.360         58.33	     8.367
  19.380         59.17	     8.426
  19.400         53.33	     8.000
  19.420         63.33	     8.718
  19.440         60.00	     8.485
  19.460         78.33	     9.695
  19.480         72.50	     9.327
  19.500         65.83	     8.888
  19.520         59.17	     8.426
  19.540         57.50	     8.307
  19.560         67.50	     9.000
  19.580         93.33	    10.583
  19.600         80.00	     9.798
  19.620         75.00	     9.487
  19.640         71.67	     9.274
  19.660         75.83	     9.539
  19.680         74.17	     9.434
  19.700         82.50	     9.950
  19.720         85.83	    10.149
  19.740         84.17	    10.050
  19.760         66.67	     8.944
  19.780         95.83	    10.724
  19.800         74.17	     9.434
  19.820         62.50	     8.660
  19.840         68.33	     9.055
  19.860         75.83	     9.539
  19.880         71.67	     9.274
  19.900         79.17	     9.747
  19.920         56.67	     8.246
  19.940         78.33	     9.695
  19.960         58.33	     8.367
  19.980         70.83	     9.220
  20.000         59.17	     8.426
  20.020         73.33	     9.381
  20.040         54.17	     8.062
  20.060         80.00	     9.798
  20.080         55.83	     8.185
  20.100         48.33	     7.616
  20.120         70.00	     9.165
  20.140         63.33	     8.718
  20.160         57.50	     8.307
  20.180         52.50	     7.937
  20.200         50.00	     7.746
  20.220         50.00	     7.746
  20.240         62.50	     8.660
  20.260         64.17	     8.775
  20.280         53.33	     8.000
  20.300         65.00	     8.832
  20.320         56.67	     8.246
  20.340         54.17	     8.062
  20.360         40.00	     6.928
  20.380         70.00	     9.165
  20.400         58.33	     8.367
  20.420         62.50	     8.660
  20.440         65.83	     8.888
  20.460         60.83	     8.544
  20.480         75.83	     9.539
  20.500         55.00	     8.124
  20.520         88.33	    10.296
  20.540         84.17	    10.050
  20.560         81.67	     9.899
  20.580         74.17	     9.434
  20.600         75.00	     9.487
  20.620         99.17	    10.909
  20.640        100.83	    11.000
  20.660        153.33	    13.565
  20.680        195.00	    15.297
  20.700        276.67	    18.221
  20.720        416.67	    22.361
  20.740        618.33	    27.240
  20.760        484.17	    24.104
  20.780        370.83	    21.095
  20.800        326.67	    19.799
  20.820        226.67	    16.492
  20.840        139.17	    12.923
  20.860        120.00	    12.000
  20.880        141.67	    13.038
  20.900        123.33	    12.166
  20.920        105.83	    11.269
  20.940        101.67	    11.045
  20.960         86.67	    10.198
  20.980         86.67	    10.198
  21.000         70.00	     9.165
  21.020         62.50	     8.660
  21.040         45.00	     7.348
  21.060         70.83	     9.220
  21.080         56.67	     8.246
  21.100         62.50	     8.660
  21.120         48.33	     7.616
  21.140         64.17	     8.775
  21.160         56.67	     8.246
  21.180         65.00	     8.832
  21.200         62.50	     8.660
  21.220         52.50	     7.937
  21.240         54.17	     8.062
  21.260         53.33	     8.000
  21.280         44.17	     7.280
  21.300         58.33	     8.367
  21.320         46.67	     7.483
  21.340         52.50	     7.937
  21.360         53.33	     8.000
  21.380         50.00	     7.746
  21.400         53.33	     8.000
  21.420         65.83	     8.888
  21.440         71.67	     9.274
  21.460         55.00	     8.124
  21.480         70.00	     9.165
  21.500         74.17	     9.434
  21.520         57.50	     8.307
  21.540         55.00	     8.124
  21.560         53.33	     8.000
  21.580         50.00	     7.746
  21.600         59.17	     8.426
  21.620         57.50	     8.307
  21.640         52.50	     7.937
  21.660         46.67	     7.483
  21.680         52.50	     7.937
  21.700         60.00	     8.485
  21.720         48.33	     7.616
  21.740         70.00	     9.165
  21.760         64.17	     8.775
  21.780         69.17	     9.110
  21.800         60.83	     8.544
  21.820         55.83	     8.185
  21.840         62.50	     8.660
  21.860         83.33	    10.000
  21.880         74.17	     9.434
  21.900         90.83	    10.440
  21.920        115.83	    11.790
  21.940        135.00	    12.728
  21.960        118.33	    11.916
  21.980         89.17	    10.344
  22.000         99.17	    10.909
  22.020         95.00	    10.677
  22.040         80.83	     9.849
  22.060         63.33	     8.718
  22.080         75.00	     9.487
  22.100         62.50	     8.660
  22.120         66.67	     8.944
  22.140         78.33	     9.695
  22.160         65.83	     8.888
  22.180         66.67	     8.944
  22.200         76.67	     9.592
  22.220         57.50	     8.307
  22.240         82.50	     9.950
  22.260         62.50	     8.660
  22.280         63.33	     8.718
  22.300         62.50	     8.660
  22.320         73.33	     9.381
  22.340         87.50	    10.247
  22.360         79.17	     9.747
  22.380         80.83	     9.849
  22.400         76.67	     9.592
  22.420         70.83	     9.220
  22.440         57.50	     8.307
  22.460         62.50	     8.660
  22.480         56.67	     8.246
  22.500         58.33	     8.367
  22.520         57.50	     8.307
  22.540         52.50	     7.937
  22.560         60.00	     8.485
  22.580         57.50	     8.307
  22.600         60.83	     8.544
  22.620         64.17	     8.775
  22.640         74.17	     9.434
  22.660         65.83	     8.888
  22.680         49.17	     7.681
  22.700         70.00	     9.165
  22.720         65.83	     8.888
  22.740         72.50	     9.327
  22.760         72.50	     9.327
  22.780         80.00	     9.798
  22.800         90.83	    10.440
  22.820         87.50	    10.247
  22.840         84.17	    10.050
  22.860         67.50	     9.000
  22.880         73.33	     9.381
  22.900        110.00	    11.489
  22.920         96.67	    10.770
  22.940        100.00	    10.954
  22.960        111.67	    11.576
  22.980         81.67	     9.899
  23.000         86.67	    10.198
  23.020         79.17	     9.747
  23.040         60.00	     8.485
  23.060         70.83	     9.220
  23.080         72.50	     9.327
  23.100         68.33	     9.055
  23.120         72.50	     9.327
  23.140         87.50	    10.247
  23.160         83.33	    10.000
  23.180         90.83	    10.440
  23.200        100.00	    10.954
  23.220        115.00	    11.747
  23.240        110.00	    11.489
  23.260        145.00	    13.191
  23.280        168.33	    14.213
  23.300        180.83	    14.731
  23.320        160.83	    13.892
  23.340        180.83	    14.731
  23.360        169.17	    14.248
  23.380        240.00	    16.971
  23.400        317.50	    19.519
  23.420        302.50	    19.053
  23.440        209.17	    15.843
  23.460        214.17	    16.031
  23.480        215.83	    16.093
  23.500        135.83	    12.767
  23.520        112.50	    11.619
  23.540        100.83	    11.000
  23.560         81.67	     9.899
  23.580         86.67	    10.198
  23.600         71.67	     9.274
  23.620         80.00	     9.798
  23.640         85.83	    10.149
  23.660         67.50	     9.000
  23.680         90.00	    10.392
  23.700         75.83	     9.539
  23.720         84.17	    10.050
  23.740         77.50	     9.644
  23.760         79.17	     9.747
  23.780         73.33	     9.381
  23.800         68.33	     9.055
  23.820         73.33	     9.381
  23.840         65.00	     8.832
  23.860         67.50	     9.000
  23.880         66.67	     8.944
  23.900         77.50	     9.644
  23.920         78.33	     9.695
  23.940         86.67	    10.198
  23.960         73.33	     9.381
  23.980         75.83	     9.539
  24.000         80.00	     9.798
  24.020         98.33	    10.863
  24.040        110.00	    11.489
  24.060        106.67	    11.314
  24.080        105.00	    11.225
  24.100        122.50	    12.124
  24.120        116.67	    11.832
  24.140        119.17	    11.958
  24.160        120.83	    12.042
  24.180        149.17	    13.379
  24.200        143.33	    13.115
  24.220        129.17	    12.450
  24.240        117.50	    11.874
  24.260         96.67	    10.770
  24.280         95.83	    10.724
  24.300         81.67	     9.899
  24.320         66.67	     8.944
  24.340         85.00	    10.100
  24.360         77.50	     9.644
  24.380         90.83	    10.440
  24.400        105.83	    11.269
  24.420        120.83	    12.042
  24.440        126.67	    12.329
  24.460        160.00	    13.856
  24.480        192.50	    15.199
  24.500        247.50	    17.234
  24.520        247.50	    17.234
  24.540        230.00	    16.613
  24.560        199.17	    15.460
  24.580        175.00	    14.491
  24.600        141.67	    13.038
  24.620        123.33	    12.166
  24.640        122.50	    12.124
  24.660        113.33	    11.662
  24.680        105.83	    11.269
  24.700        115.00	    11.747
  24.720        108.33	    11.402
  24.740        102.50	    11.091
  24.760         83.33	    10.000
  24.780         99.17	    10.909
  24.800         88.33	    10.296
  24.820         87.50	    10.247
  24.840         95.00	    10.677
  24.860         85.83	    10.149
  24.880         92.50	    10.536
  24.900         89.17	    10.344
  24.920        103.33	    11.136
  24.940        107.50	    11.358
  24.960        135.83	    12.767
  24.980        124.17	    12.207
  25.000        155.00	    13.638
  25.020        211.67	    15.937
  25.040        222.50	    16.340
  25.060        235.83	    16.823
  25.080        215.00	    16.062
  25.100        184.17	    14.866
  25.120        161.67	    13.928
  25.140        137.50	    12.845
  25.160         96.67	    10.770
  25.180         98.33	    10.863
  25.200         94.17	    10.630
  25.220         89.17	    10.344
  25.240         92.50	    10.536
  25.260        108.33	    11.402
  25.280        114.17	    11.705
  25.300        110.00	    11.489
  25.320        109.17	    11.446
  25.340        114.17	    11.705
  25.360        129.17	    12.450
  25.380        132.50	    12.610
  25.400        145.00	    13.191
  25.420        131.67	    12.570
  25.440        120.83	    12.042
  25.460         98.33	    10.863
  25.480        125.00	    12.247
  25.500        120.00	    12.000
  25.520        115.00	    11.747
  25.540        116.67	    11.832
  25.560        105.83	    11.269
  25.580        117.50	    11.874
  25.600         95.00	    10.677
  25.620         95.00	    10.677
  25.640         85.83	    10.149
  25.660         82.50	     9.950
  25.680         79.17	     9.747
  25.700         81.67	     9.899
  25.720         70.00	     9.165
  25.740         82.50	     9.950
  25.760         52.50	     7.937
  25.780         84.17	    10.050
  25.800         72.50	     9.327
  25.820         90.00	    10.392
  25.840         73.33	     9.381
  25.860         59.17	     8.426
  25.880         58.33	     8.367
  25.900         63.33	     8.718
  25.920         86.67	    10.198
  25.940         70.00	     9.165
  25.960         59.17	     8.426
  25.980         76.67	     9.592
  26.000         76.67	     9.592
  26.020         70.83	     9.220
  26.040         81.67	     9.899
  26.060         81.67	     9.899
  26.080         94.17	    10.630
  26.100         70.83	     9.220
  26.120         60.00	     8.485
  26.140         94.17	    10.630
  26.160         90.00	    10.392
  26.180        105.00	    11.225
  26.200        100.00	    10.954
  26.220        107.50	    11.358
  26.240        123.33	    12.166
  26.260        150.00	    13.416
  26.280        170.83	    14.318
  26.300        150.83	    13.454
  26.320        215.00	    16.062
  26.340        221.67	    16.310
  26.360        219.17	    16.217
  26.380        254.17	    17.464
  26.400        275.83	    18.193
  26.420        321.67	    19.647
  26.440        405.00	    22.045
  26.460        525.83	    25.120
  26.480        890.00	    32.680
  26.500       1790.00	    46.347
  26.520       2823.33	    58.207
  26.540       2798.33	    57.948
  26.560       1915.00	    47.937
  26.580       1604.17	    43.875
  26.600       1590.83	    43.692
  26.620       1067.50	    35.791
  26.640        577.50	    26.325
  26.660        439.17	    22.956
  26.680        383.33	    21.448
  26.700        458.33	    23.452
  26.720        555.83	    25.826
  26.740        597.50	    26.777
  26.760        715.00	    29.292
  26.780        705.83	    29.103
  26.800        662.50	    28.196
  26.820        545.00	    25.573
  26.840        477.50	    23.937
  26.860        347.50	    20.421
  26.880        229.17	    16.583
  26.900        195.00	    15.297
  26.920        156.67	    13.711
  26.940        131.67	    12.570
  26.960        130.00	    12.490
  26.980        119.17	    11.958
  27.000        116.67	    11.832
  27.020        105.00	    11.225
  27.040         89.17	    10.344
  27.060         96.67	    10.770
  27.080         87.50	    10.247
  27.100         78.33	     9.695
  27.120         82.50	     9.950
  27.140         85.83	    10.149
  27.160         83.33	    10.000
  27.180         79.17	     9.747
  27.200         93.33	    10.583
  27.220        101.67	    11.045
  27.240        102.50	    11.091
  27.260         95.00	    10.677
  27.280        117.50	    11.874
  27.300        115.83	    11.790
  27.320        120.00	    12.000
  27.340        125.00	    12.247
  27.360        168.33	    14.213
  27.380        249.17	    17.292
  27.400        292.50	    18.735
  27.420        166.67	    14.142
  27.440        155.83	    13.675
  27.460        192.50	    15.199
  27.480        139.17	    12.923
  27.500        102.50	    11.091
  27.520         95.83	    10.724
  27.540        101.67	    11.045
  27.560        113.33	    11.662
  27.580        163.33	    14.000
  27.600        234.17	    16.763
  27.620        218.33	    16.186
  27.640        247.50	    17.234
  27.660        208.33	    15.811
  27.680        231.67	    16.673
  27.700        240.00	    16.971
  27.720        255.83	    17.521
  27.740        376.67	    21.260
  27.760        607.50	    27.000
  27.780        684.17	    28.653
  27.800        677.50	    28.513
  27.820        631.67	    27.532
  27.840        686.67	    28.705
  27.860        654.17	    28.018
  27.880        502.50	    24.556
  27.900        419.17	    22.428
  27.920        296.67	    18.868
  27.940        242.50	    17.059
  27.960        201.67	    15.556
  27.980        199.17	    15.460
  28.000        206.67	    15.748
  28.020        161.67	    13.928
  28.040        167.50	    14.177
  28.060        133.33	    12.649
  28.080        138.33	    12.884
  28.100        163.33	    14.000
  28.120        208.33	    15.811
  28.140        244.17	    17.117
  28.160        230.00	    16.613
  28.180        166.67	    14.142
  28.200        185.00	    14.900
  28.220        168.33	    14.213
  28.240        145.00	    13.191
  28.260        105.83	    11.269
  28.280         91.67	    10.488
  28.300         74.17	     9.434
  28.320         77.50	     9.644
  28.340         69.17	     9.110
  28.360         75.00	     9.487
  28.380         87.50	    10.247
  28.400        113.33	    11.662
  28.420         90.83	    10.440
  28.440         80.83	     9.849
  28.460        104.17	    11.180
  28.480        102.50	    11.091
  28.500        104.17	    11.180
  28.520         87.50	    10.247
  28.540         96.67	    10.770
  28.560         84.17	    10.050
  28.580        100.83	    11.000
  28.600         74.17	     9.434
  28.620         85.83	    10.149
  28.640         65.83	     8.888
  28.660         59.17	     8.426
  28.680         57.50	     8.307
  28.700         70.00	     9.165
  28.720         65.00	     8.832
  28.740         64.17	     8.775
  28.760         58.33	     8.367
  28.780         47.50	     7.550
  28.800         70.83	     9.220
  28.820         50.83	     7.810
  28.840         52.50	     7.937
  28.860         53.33	     8.000
  28.880         61.67	     8.602
  28.900         40.00	     6.928
  28.920         55.83	     8.185
  28.940         54.17	     8.062
  28.960         61.67	     8.602
  28.980         56.67	     8.246
  29.000         56.67	     8.246
  29.020         60.83	     8.544
  29.040         45.83	     7.416
  29.060         49.17	     7.681
  29.080         61.67	     8.602
  29.100         60.83	     8.544
  29.120         51.67	     7.874
  29.140         50.83	     7.810
  29.160         60.00	     8.485
  29.180         39.17	     6.856
  29.200         49.17	     7.681
  29.220         58.33	     8.367
  29.240         49.17	     7.681
  29.260         49.17	     7.681
  29.280         66.67	     8.944
  29.300         60.00	     8.485
  29.320         64.17	     8.775
  29.340         62.50	     8.660
  29.360         54.17	     8.062
  29.380         51.67	     7.874
  29.400         57.50	     8.307
  29.420         58.33	     8.367
  29.440         50.00	     7.746
  29.460         58.33	     8.367
  29.480         51.67	     7.874
  29.500         71.67	     9.274
  29.520         46.67	     7.483
  29.540         60.00	     8.485
  29.560         71.67	     9.274
  29.580         69.17	     9.110
  29.600         64.17	     8.775
  29.620         66.67	     8.944
  29.640         80.83	     9.849
  29.660         78.33	     9.695
  29.680        109.17	    11.446
  29.700        106.67	    11.314
  29.720         99.17	    10.909
  29.740        125.83	    12.288
  29.760        114.17	    11.705
  29.780        126.67	    12.329
  29.800        114.17	    11.705
  29.820        110.83	    11.533
  29.840        124.17	    12.207
  29.860         85.00	    10.100
  29.880        100.83	    11.000
  29.900         85.83	    10.149
  29.920         87.50	    10.247
  29.940         94.17	    10.630
  29.960         86.67	    10.198
  29.980        100.00	    10.954
  30.000         93.33	    10.583
  30.020         83.33	    10.000
  30.040        102.50	    11.091
  30.060        103.33	    11.136
  30.080        101.67	    11.045
  30.100        100.00	    10.954
  30.120        122.50	    12.124
  30.140        129.17	    12.450
  30.160        149.17	    13.379
  30.180        150.00	    13.416
  30.200        105.00	    11.225
  30.220        105.83	    11.269
  30.240        113.33	    11.662
  30.260        111.67	    11.576
  30.280         86.67	    10.198
  30.300         86.67	    10.198
  30.320        108.33	    11.402
  30.340        105.00	    11.225
  30.360        132.50	    12.610
  30.380        125.83	    12.288
  30.400        115.83	    11.790
  30.420         87.50	    10.247
  30.440        108.33	    11.402
  30.460         85.83	    10.149
  30.480         95.83	    10.724
  30.500         76.67	     9.592
  30.520         65.00	     8.832
  30.540         65.00	     8.832
  30.560         45.83	     7.416
  30.580         62.50	     8.660
  30.600         80.83	     9.849
  30.620         77.50	     9.644
  30.640         86.67	    10.198
  30.660         93.33	    10.583
  30.680        113.33	    11.662
  30.700        163.33	    14.000
  30.720        155.83	    13.675
  30.740        149.17	    13.379
  30.760        176.67	    14.560
  30.780        165.00	    14.071
  30.800        162.50	    13.964
  30.820        123.33	    12.166
  30.840        123.33	    12.166
  30.860         95.00	    10.677
  30.880         79.17	     9.747
  30.900         76.67	     9.592
  30.920         64.17	     8.775
  30.940         69.17	     9.110
  30.960         80.83	     9.849
  30.980         68.33	     9.055
  31.000         69.17	     9.110
  31.020         60.00	     8.485
  31.040         75.83	     9.539
  31.060         85.00	    10.100
  31.080        103.33	    11.136
  31.100         97.50	    10.817
  31.120        102.50	    11.091
  31.140        107.50	    11.358
  31.160        113.33	    11.662
  31.180         91.67	    10.488
  31.200         91.67	    10.488
  31.220         80.00	     9.798
  31.240         65.83	     8.888
  31.260         69.17	     9.110
  31.280         58.33	     8.367
  31.300         65.83	     8.888
  31.320         55.00	     8.124
  31.340         66.67	     8.944
  31.360         85.00	    10.100
  31.380         74.17	     9.434
  31.400         70.00	     9.165
  31.420         64.17	     8.775
  31.440         75.00	     9.487
  31.460         70.83	     9.220
  31.480         81.67	     9.899
  31.500         65.83	     8.888
  31.520         62.50	     8.660
  31.540         60.83	     8.544
  31.560         55.83	     8.185
  31.580         45.00	     7.348
  31.600         66.67	     8.944
  31.620         59.17	     8.426
  31.640         64.17	     8.775
  31.660         48.33	     7.616
  31.680         54.17	     8.062
  31.700         56.67	     8.246
  31.720         66.67	     8.944
  31.740         73.33	     9.381
  31.760         55.00	     8.124
  31.780         61.67	     8.602
  31.800         57.50	     8.307
  31.820         61.67	     8.602
  31.840         59.17	     8.426
  31.860         67.50	     9.000
  31.880         57.50	     8.307
  31.900         64.17	     8.775
  31.920         57.50	     8.307
  31.940         65.00	     8.832
  31.960         71.67	     9.274
  31.980         68.33	     9.055
  32.000         75.00	     9.487
  32.020         62.50	     8.660
  32.040         67.50	     9.000
  32.060         70.00	     9.165
  32.080         57.50	     8.307
  32.100         71.67	     9.274
  32.120         69.17	     9.110
  32.140         60.83	     8.544
  32.160         46.67	     7.483
  32.180         55.83	     8.185
  32.200         60.83	     8.544
  32.220         56.67	     8.246
  32.240         56.67	     8.246
  32.260         57.50	     8.307
  32.280         49.17	     7.681
  32.300         50.83	     7.810
  32.320         50.00	     7.746
  32.340         43.33	     7.211
  32.360         42.50	     7.141
  32.380         55.00	     8.124
  32.400         45.83	     7.416
  32.420         56.67	     8.246
  32.440         50.00	     7.746
  32.460         58.33	     8.367
  32.480         51.67	     7.874
  32.500         47.50	     7.550
  32.520         43.33	     7.211
  32.540         41.67	     7.071
  32.560         39.17	     6.856
  32.580         45.00	     7.348
  32.600         43.33	     7.211
  32.620         35.83	     6.557
  32.640         52.50	     7.937
  32.660         47.50	     7.550
  32.680         60.83	     8.544
  32.700         54.17	     8.062
  32.720         54.17	     8.062
  32.740         39.17	     6.856
  32.760         60.00	     8.485
  32.780         50.83	     7.810
  32.800         39.17	     6.856
  32.820         38.33	     6.782
  32.840         58.33	     8.367
  32.860         60.00	     8.485
  32.880         60.00	     8.485
  32.900         46.67	     7.483
  32.920         57.50	     8.307
  32.940         53.33	     8.000
  32.960         57.50	     8.307
  32.980         54.17	     8.062
  33.000         56.67	     8.246
  33.020         49.17	     7.681
  33.040         42.50	     7.141
  33.060         55.83	     8.185
  33.080         59.17	     8.426
  33.100         45.83	     7.416
  33.120         39.17	     6.856
  33.140         46.67	     7.483
  33.160         38.33	     6.782
  33.180         40.83	     7.000
  33.200         48.33	     7.616
  33.220         37.50	     6.708
  33.240         52.50	     7.937
  33.260         60.83	     8.544
  33.280         50.83	     7.810
  33.300         55.83	     8.185
  33.320         55.83	     8.185
  33.340         91.67	    10.488
  33.360        110.83	    11.533
  33.380         87.50	    10.247
  33.400         58.33	     8.367
  33.420         46.67	     7.483
  33.440         49.17	     7.681
  33.460         64.17	     8.775
  33.480         58.33	     8.367
  33.500         47.50	     7.550
  33.520         46.67	     7.483
  33.540         44.17	     7.280
  33.560         51.67	     7.874
  33.580         41.67	     7.071
  33.600         51.67	     7.874
  33.620         50.00	     7.746
  33.640         45.83	     7.416
  33.660         45.00	     7.348
  33.680         48.33	     7.616
  33.700         62.50	     8.660
  33.720         62.50	     8.660
  33.740         59.17	     8.426
  33.760         73.33	     9.381
  33.780         77.50	     9.644
  33.800        147.50	    13.304
  33.820        316.67	    19.494
  33.840        496.67	    24.413
  33.860        415.00	    22.316
  33.880        178.33	    14.629
  33.900        138.33	    12.884
  33.920        268.33	    17.944
  33.940        300.00	    18.974
  33.960        152.50	    13.528
  33.980         82.50	     9.950
  34.000         54.17	     8.062
  34.020         67.50	     9.000
  34.040         57.50	     8.307
  34.060         65.83	     8.888
  34.080         60.00	     8.485
  34.100         56.67	     8.246
  34.120         60.83	     8.544
  34.140         50.83	     7.810
  34.160         52.50	     7.937
  34.180         68.33	     9.055
  34.200         50.00	     7.746
  34.220         59.17	     8.426
  34.240         52.50	     7.937
  34.260         54.17	     8.062
  34.280         61.67	     8.602
  34.300         57.50	     8.307
  34.320         55.00	     8.124
  34.340         70.00	     9.165
  34.360         71.67	     9.274
  34.380         88.33	    10.296
  34.400         74.17	     9.434
  34.420         72.50	     9.327
  34.440         75.83	     9.539
  34.460         75.00	     9.487
  34.480         81.67	     9.899
  34.500         75.00	     9.487
  34.520         77.50	     9.644
  34.540         74.17	     9.434
  34.560         74.17	     9.434
  34.580         80.83	     9.849
  34.600         78.33	     9.695
  34.620         71.67	     9.274
  34.640         60.83	     8.544
  34.660         70.00	     9.165
  34.680         64.17	     8.775
  34.700         79.17	     9.747
  34.720         82.50	     9.950
  34.740         81.67	     9.899
  34.760         93.33	    10.583
  34.780         87.50	    10.247
  34.800         97.50	    10.817
  34.820         97.50	    10.817
  34.840        112.50	    11.619
  34.860         98.33	    10.863
  34.880        123.33	    12.166
  34.900        134.17	    12.689
  34.920        120.83	    12.042
  34.940        112.50	    11.619
  34.960        114.17	    11.705
  34.980         99.17	    10.909
  35.000        111.67	    11.576
  35.020        103.33	    11.136
  35.040        101.67	    11.045
  35.060         92.50	    10.536
  35.080         78.33	     9.695
  35.100         85.00	    10.100
  35.120         69.17	     9.110
  35.140         80.83	     9.849
  35.160         72.50	     9.327
  35.180         91.67	    10.488
  35.200         60.83	     8.544
  35.220         87.50	    10.247
  35.240         67.50	     9.000
  35.260         71.67	     9.274
  35.280         69.17	     9.110
  35.300         90.83	    10.440
  35.320         98.33	    10.863
  35.340         96.67	    10.770
  35.360        100.00	    10.954
  35.380         90.83	    10.440
  35.400        110.83	    11.533
  35.420        125.83	    12.288
  35.440        105.00	    11.225
  35.460        103.33	    11.136
  35.480        103.33	    11.136
  35.500        113.33	    11.662
  35.520        117.50	    11.874
  35.540         91.67	    10.488
  35.560         90.00	    10.392
  35.580         95.83	    10.724
  35.600         89.17	    10.344
  35.620         72.50	     9.327
  35.640         65.83	     8.888
  35.660         60.00	     8.485
  35.680         58.33	     8.367
  35.700         59.17	     8.426
  35.720         61.67	     8.602
  35.740         68.33	     9.055
  35.760         66.67	     8.944
  35.780         50.83	     7.810
  35.800         67.50	     9.000
  35.820         70.83	     9.220
  35.840         65.83	     8.888
  35.860         57.50	     8.307
  35.880         58.33	     8.367
  35.900         71.67	     9.274
  35.920         83.33	    10.000
  35.940        105.00	    11.225
  35.960        105.83	    11.269
  35.980        102.50	    11.091
  36.000        104.17	    11.180
  36.020         72.50	     9.327
  36.040         95.00	    10.677
  36.060        100.83	    11.000
  36.080         93.33	    10.583
  36.100         64.17	     8.775
  36.120         67.50	     9.000
  36.140         65.83	     8.888
  36.160         60.00	     8.485
  36.180         55.83	     8.185
  36.200         55.00	     8.124
  36.220         60.83	     8.544
  36.240         55.83	     8.185
  36.260         60.83	     8.544
  36.280         72.50	     9.327
  36.300         75.00	     9.487
  36.320         74.17	     9.434
  36.340         84.17	    10.050
  36.360        103.33	    11.136
  36.380        120.83	    12.042
  36.400        220.00	    16.248
  36.420        292.50	    18.735
  36.440        317.50	    19.519
  36.460        269.17	    17.972
  36.480        176.67	    14.560
  36.500        191.67	    15.166
  36.520        172.50	    14.387
  36.540        203.33	    15.620
  36.560        132.50	    12.610
  36.580         97.50	    10.817
  36.600         94.17	    10.630
  36.620         96.67	    10.770
  36.640         70.83	     9.220
  36.660         85.83	    10.149
  36.680         74.17	     9.434
  36.700         63.33	     8.718
  36.720         65.00	     8.832
  36.740         46.67	     7.483
  36.760         60.00	     8.485
  36.780         36.67	     6.633
  36.800         45.00	     7.348
  36.820         52.50	     7.937
  36.840         50.83	     7.810
  36.860         60.83	     8.544
  36.880         49.17	     7.681
  36.900         52.50	     7.937
  36.920         47.50	     7.550
  36.940         55.00	     8.124
  36.960         48.33	     7.616
  36.980         50.83	     7.810
  37.000         69.17	     9.110
  37.020         65.83	     8.888
  37.040         54.17	     8.062
  37.060         58.33	     8.367
  37.080         51.67	     7.874
  37.100         53.33	     8.000
  37.120         57.50	     8.307
  37.140         70.00	     9.165
  37.160         82.50	     9.950
  37.180         55.00	     8.124
  37.200         62.50	     8.660
  37.220         65.00	     8.832
  37.240         78.33	     9.695
  37.260         72.50	     9.327
  37.280         63.33	     8.718
  37.300         76.67	     9.592
  37.320         75.83	     9.539
  37.340         60.00	     8.485
  37.360         61.67	     8.602
  37.380         68.33	     9.055
  37.400         66.67	     8.944
  37.420         75.00	     9.487
  37.440         72.50	     9.327
  37.460         93.33	    10.583
  37.480        109.17	    11.446
  37.500         86.67	    10.198
  37.520         89.17	    10.344
  37.540         88.33	    10.296
  37.560        105.00	    11.225
  37.580        100.00	    10.954
  37.600         75.00	     9.487
  37.620         84.17	    10.050
  37.640         89.17	    10.344
  37.660         69.17	     9.110
  37.680         85.83	    10.149
  37.700         70.83	     9.220
  37.720         52.50	     7.937
  37.740         49.17	     7.681
  37.760         45.83	     7.416
  37.780         43.33	     7.211
  37.800         44.17	     7.280
  37.820         40.00	     6.928
  37.840         38.33	     6.782
  37.860         43.33	     7.211
  37.880         40.83	     7.000
  37.900         46.67	     7.483
  37.920         45.00	     7.348
  37.940         35.83	     6.557
  37.960         39.17	     6.856
  37.980         31.67	     6.164
  38.000         44.17	     7.280
  38.020         28.33	     5.831
  38.040         47.50	     7.550
  38.060         41.67	     7.071
  38.080         35.00	     6.481
  38.100         38.33	     6.782
  38.120         42.50	     7.141
  38.140         37.50	     6.708
  38.160         32.50	     6.245
  38.180         46.67	     7.483
  38.200         39.17	     6.856
  38.220         41.67	     7.071
  38.240         31.67	     6.164
  38.260         35.83	     6.557
  38.280         48.33	     7.616
  38.300         64.17	     8.775
  38.320         58.33	     8.367
  38.340         50.83	     7.810
  38.360         44.17	     7.280
  38.380         55.83	     8.185
  38.400         50.83	     7.810
  38.420         52.50	     7.937
  38.440         58.33	     8.367
  38.460         50.00	     7.746
  38.480         48.33	     7.616
  38.500         60.00	     8.485
  38.520         71.67	     9.274
  38.540         66.67	     8.944
  38.560         66.67	     8.944
  38.580         68.33	     9.055
  38.600         45.83	     7.416
  38.620         55.83	     8.185
  38.640         51.67	     7.874
  38.660         52.50	     7.937
  38.680         45.00	     7.348
  38.700         54.17	     8.062
  38.720         62.50	     8.660
  38.740         58.33	     8.367
  38.760         45.83	     7.416
  38.780         45.83	     7.416
  38.800         55.00	     8.124
  38.820         46.67	     7.483
  38.840         47.50	     7.550
  38.860         45.83	     7.416
  38.880         43.33	     7.211
  38.900         56.67	     8.246
  38.920         49.17	     7.681
  38.940         55.00	     8.124
  38.960         50.00	     7.746
  38.980         43.33	     7.211
  39.000         40.00	     6.928
  39.020         45.83	     7.416
  39.040         51.67	     7.874
  39.060         48.33	     7.616
  39.080         57.50	     8.307
  39.100         46.67	     7.483
  39.120         40.00	     6.928
  39.140         54.17	     8.062
  39.160         53.33	     8.000
  39.180         41.67	     7.071
  39.200         34.17	     6.403
  39.220         50.83	     7.810
  39.240         43.33	     7.211
  39.260         49.17	     7.681
  39.280         57.50	     8.307
  39.300         85.83	    10.149
  39.320        133.33	    12.649
  39.340        180.00	    14.697
  39.360        166.67	    14.142
  39.380        123.33	    12.166
  39.400         98.33	    10.863
  39.420        101.67	    11.045
  39.440        130.83	    12.530
  39.460        110.83	    11.533
  39.480         99.17	    10.909
  39.500         73.33	     9.381
  39.520         70.00	     9.165
  39.540         56.67	     8.246
  39.560         51.67	     7.874
  39.580         59.17	     8.426
  39.600         46.67	     7.483
  39.620         60.83	     8.544
  39.640         42.50	     7.141
  39.660         58.33	     8.367
  39.680         46.67	     7.483
  39.700         54.17	     8.062
  39.720         56.67	     8.246
  39.740         53.33	     8.000
  39.760         54.17	     8.062
  39.780         45.83	     7.416
  39.800         45.83	     7.416
  39.820         51.67	     7.874
  39.840         55.83	     8.185
  39.860         46.67	     7.483
  39.880         55.83	     8.185
  39.900         51.67	     7.874
  39.920         57.50	     8.307
  39.940         54.17	     8.062
  39.960         55.00	     8.124
  39.980         54.17	     8.062
  40.000         59.17	     8.426
  40.020         49.17	     7.681
  40.040         60.00	     8.485
  40.060         44.17	     7.280
  40.080         52.50	     7.937
  40.100         75.00	     9.487
  40.120         85.83	    10.149
  40.140        142.50	    13.077
  40.160        233.33	    16.733
  40.180        366.67	    20.976
  40.200        415.00	    22.316
  40.220        261.67	    17.720
  40.240        170.00	    14.283
  40.260        170.83	    14.318
  40.280        220.83	    16.279
  40.300        196.67	    15.362
  40.320        153.33	    13.565
  40.340        109.17	    11.446
  40.360         69.17	     9.110
  40.380         50.83	     7.810
  40.400         40.00	     6.928
  40.420         42.50	     7.141
  40.440         38.33	     6.782
  40.460         51.67	     7.874
  40.480         47.50	     7.550
  40.500         47.50	     7.550
  40.520         45.83	     7.416
  40.540         50.83	     7.810
  40.560         40.83	     7.000
  40.580         38.33	     6.782
  40.600         43.33	     7.211
  40.620         45.00	     7.348
  40.640         49.17	     7.681
  40.660         43.33	     7.211
  40.680         42.50	     7.141
  40.700         30.00	     6.000
  40.720         45.00	     7.348
  40.740         32.50	     6.245
  40.760         39.17	     6.856
  40.780         50.00	     7.746
  40.800         46.67	     7.483
  40.820         50.00	     7.746
  40.840         60.83	     8.544
  40.860         56.67	     8.246
  40.880         55.83	     8.185
  40.900         51.67	     7.874
  40.920         53.33	     8.000
  40.940         40.00	     6.928
  40.960         38.33	     6.782
  40.980         46.67	     7.483
  41.000         49.17	     7.681
  41.020         45.00	     7.348
  41.040         44.17	     7.280
  41.060         60.00	     8.485
  41.080         62.50	     8.660
  41.100         53.33	     8.000
  41.120         58.33	     8.367
  41.140         62.50	     8.660
  41.160         45.83	     7.416
  41.180         53.33	     8.000
  41.200         47.50	     7.550
  41.220         59.17	     8.426
  41.240         45.83	     7.416
  41.260         48.33	     7.616
  41.280         46.67	     7.483
  41.300         40.83	     7.000
  41.320         45.83	     7.416
  41.340         44.17	     7.280
  41.360         50.00	     7.746
  41.380         49.17	     7.681
  41.400         42.50	     7.141
  41.420         50.00	     7.746
  41.440         44.17	     7.280
  41.460         50.83	     7.810
  41.480         53.33	     8.000
  41.500         55.00	     8.124
  41.520         55.00	     8.124
  41.540         53.33	     8.000
  41.560         45.83	     7.416
  41.580         76.67	     9.592
  41.600         52.50	     7.937
  41.620         62.50	     8.660
  41.640         54.17	     8.062
  41.660         60.00	     8.485
  41.680         65.00	     8.832
  41.700         56.67	     8.246
  41.720         66.67	     8.944
  41.740         54.17	     8.062
  41.760         55.83	     8.185
  41.780         45.83	     7.416
  41.800         62.50	     8.660
  41.820         50.00	     7.746
  41.840         77.50	     9.644
  41.860         60.00	     8.485
  41.880         60.00	     8.485
  41.900         59.17	     8.426
  41.920         48.33	     7.616
  41.940         50.83	     7.810
  41.960         58.33	     8.367
  41.980         50.83	     7.810
  42.000         64.17	     8.775
  42.020         68.33	     9.055
  42.040         53.33	     8.000
  42.060         50.00	     7.746
  42.080         50.83	     7.810
  42.100         52.50	     7.937
  42.120         55.83	     8.185
  42.140         52.50	     7.937
  42.160         69.17	     9.110
  42.180         73.33	     9.381
  42.200         63.33	     8.718
  42.220         76.67	     9.592
  42.240         83.33	    10.000
  42.260         87.50	    10.247
  42.280        111.67	    11.576
  42.300        149.17	    13.379
  42.320        202.50	    15.588
  42.340        230.83	    16.643
  42.360        172.50	    14.387
  42.380        155.00	    13.638
  42.400        155.83	    13.675
  42.420        147.50	    13.304
  42.440        131.67	    12.570
  42.460        147.50	    13.304
  42.480        127.50	    12.369
  42.500         91.67	    10.488
  42.520         74.17	     9.434
  42.540         69.17	     9.110
  42.560         80.83	     9.849
  42.580         75.00	     9.487
  42.600         75.00	     9.487
  42.620         71.67	     9.274
  42.640         68.33	     9.055
  42.660         45.00	     7.348
  42.680         56.67	     8.246
  42.700         61.67	     8.602
  42.720         59.17	     8.426
  42.740         65.83	     8.888
  42.760         53.33	     8.000
  42.780         52.50	     7.937
  42.800         50.83	     7.810
  42.820         62.50	     8.660
  42.840         45.83	     7.416
  42.860         55.00	     8.124
  42.880         60.00	     8.485
  42.900         62.50	     8.660
  42.920         57.50	     8.307
  42.940         42.50	     7.141
  42.960         49.17	     7.681
  42.980         48.33	     7.616
  43.000         44.17	     7.280
  43.020         46.67	     7.483
  43.040         48.33	     7.616
  43.060         61.67	     8.602
  43.080         60.83	     8.544
  43.100         55.83	     8.185
  43.120         56.67	     8.246
  43.140         58.33	     8.367
  43.160         68.33	     9.055
  43.180         50.83	     7.810
  43.200         71.67	     9.274
  43.220         67.50	     9.000
  43.240         60.83	     8.544
  43.260         52.50	     7.937
  43.280         65.00	     8.832
  43.300         76.67	     9.592
  43.320         69.17	     9.110
  43.340         70.00	     9.165
  43.360         81.67	     9.899
  43.380        104.17	    11.180
  43.400         95.83	    10.724
  43.420         94.17	    10.630
  43.440         89.17	    10.344
  43.460         94.17	    10.630
  43.480        111.67	    11.576
  43.500         92.50	    10.536
  43.520        110.83	    11.533
  43.540        111.67	    11.576
  43.560        103.33	    11.136
  43.580        100.00	    10.954
  43.600        113.33	    11.662
  43.620         95.83	    10.724
  43.640         95.00	    10.677
  43.660        108.33	    11.402
  43.680        115.83	    11.790
  43.700        127.50	    12.369
  43.720        107.50	    11.358
  43.740         90.00	    10.392
  43.760        118.33	    11.916
  43.780         90.00	    10.392
  43.800         90.00	    10.392
  43.820         96.67	    10.770
  43.840         80.83	     9.849
  43.860         99.17	    10.909
  43.880         99.17	    10.909
  43.900         89.17	    10.344
  43.920         98.33	    10.863
  43.940        103.33	    11.136
  43.960         95.00	    10.677
  43.980        118.33	    11.916
  44.000        106.67	    11.314
  44.020        126.67	    12.329
  44.040        113.33	    11.662
  44.060        130.83	    12.530
  44.080        139.17	    12.923
  44.100        150.00	    13.416
  44.120        169.17	    14.248
  44.140        184.17	    14.866
  44.160        193.33	    15.232
  44.180        224.17	    16.401
  44.200        209.17	    15.843
  44.220        222.50	    16.340
  44.240        252.50	    17.407
  44.260        223.33	    16.371
  44.280        285.00	    18.493
  44.300        297.50	    18.894
  44.320        310.83	    19.313
  44.340        301.67	    19.026
  44.360        305.00	    19.131
  44.380        334.17	    20.025
  44.400        290.00	    18.655
  44.420        325.00	    19.748
  44.440        327.50	    19.824
  44.460        323.33	    19.698
  44.480        311.67	    19.339
  44.500        263.33	    17.776
  44.520        301.67	    19.026
  44.540        259.17	    17.635
  44.560        260.83	    17.692
  44.580        254.17	    17.464
  44.600        227.50	    16.523
  44.620        253.33	    17.436
  44.640        220.83	    16.279
  44.660        182.50	    14.799
  44.680        181.67	    14.765
  44.700        185.83	    14.933
  44.720        176.67	    14.560
  44.740        156.67	    13.711
  44.760        180.83	    14.731
  44.780        140.83	    13.000
  44.800        152.50	    13.528
  44.820        140.83	    13.000
  44.840        129.17	    12.450
  44.860        145.00	    13.191
  44.880        113.33	    11.662
  44.900        115.00	    11.747
  44.920         97.50	    10.817
  44.940        114.17	    11.705
  44.960        122.50	    12.124
  44.980         99.17	    10.909
  45.000         95.83	    10.724
  45.020        102.50	    11.091
  45.040        115.83	    11.790
  45.060        139.17	    12.923
  45.080        129.17	    12.450
  45.100        113.33	    11.662
  45.120         82.50	     9.950
  45.140         82.50	     9.950
  45.160         99.17	    10.909
  45.180         92.50	    10.536
  45.200        130.00	    12.490
  45.220        114.17	    11.705
  45.240        110.00	    11.489
  45.260        105.83	    11.269
  45.280        130.83	    12.530
  45.300        140.00	    12.961
  45.320        174.17	    14.457
  45.340        175.83	    14.526
  45.360        221.67	    16.310
  45.380        228.33	    16.553
  45.400        225.83	    16.462
  45.420        245.00	    17.146
  45.440        283.33	    18.439
  45.460        279.17	    18.303
  45.480        285.00	    18.493
  45.500        290.00	    18.655
  45.520        263.33	    17.776
  45.540        202.50	    15.588
  45.560        212.50	    15.969
  45.580        181.67	    14.765
  45.600        212.50	    15.969
  45.620        190.00	    15.100
  45.640        169.17	    14.248
  45.660        174.17	    14.457
  45.680        167.50	    14.177
  45.700        158.33	    13.784
  45.720        125.83	    12.288
  45.740        106.67	    11.314
  45.760         83.33	    10.000
  45.780         90.83	    10.440
  45.800        110.00	    11.489
  45.820        110.83	    11.533
  45.840         98.33	    10.863
  45.860         65.83	     8.888
  45.880         62.50	     8.660
  45.900         60.00	     8.485
  45.920         57.50	     8.307
  45.940         52.50	     7.937
  45.960         49.17	     7.681
  45.980         78.33	     9.695
  46.000         50.00	     7.746
  46.020         45.83	     7.416
  46.040         43.33	     7.211
  46.060         45.00	     7.348
  46.080         46.67	     7.483
  46.100         46.67	     7.483
  46.120         43.33	     7.211
  46.140         55.83	     8.185
  46.160         42.50	     7.141
  46.180         50.00	     7.746
  46.200         55.83	     8.185
  46.220         47.50	     7.550
  46.240         37.50	     6.708
  46.260         41.67	     7.071
  46.280         46.67	     7.483
  46.300         50.83	     7.810
  46.320         50.83	     7.810
  46.340         29.17	     5.916
  46.360         45.83	     7.416
  46.380         40.00	     6.928
  46.400         50.00	     7.746
  46.420         39.17	     6.856
  46.440         47.50	     7.550
  46.460         31.67	     6.164
  46.480         28.33	     5.831
  46.500         50.83	     7.810
  46.520         32.50	     6.245
  46.540         38.33	     6.782
  46.560         36.67	     6.633
  46.580         55.00	     8.124
  46.600         35.00	     6.481
  46.620         35.83	     6.557
  46.640         31.67	     6.164
  46.660         30.00	     6.000
  46.680         25.00	     5.477
  46.700         31.67	     6.164
  46.720         37.50	     6.708
  46.740         35.83	     6.557
  46.760         39.17	     6.856
  46.780         30.00	     6.000
  46.800         39.17	     6.856
  46.820         38.33	     6.782
  46.840         47.50	     7.550
  46.860         53.33	     8.000
  46.880         40.83	     7.000
  46.900         55.83	     8.185
  46.920         40.83	     7.000
  46.940         42.50	     7.141
  46.960         40.83	     7.000
  46.980         60.83	     8.544
  47.000         68.33	     9.055
  47.020         64.17	     8.775
  47.040         56.67	     8.246
  47.060         45.00	     7.348
  47.080         45.83	     7.416
  47.100         50.00	     7.746
  47.120         67.50	     9.000
  47.140         50.83	     7.810
  47.160         44.17	     7.280
  47.180         47.50	     7.550
  47.200         38.33	     6.782
  47.220         40.83	     7.000
  47.240         30.00	     6.000
  47.260         41.67	     7.071
  47.280         36.67	     6.633
  47.300         36.67	     6.633
  47.320         48.33	     7.616
  47.340         39.17	     6.856
  47.360         31.67	     6.164
  47.380         31.67	     6.164
  47.400         42.50	     7.141
  47.420         30.83	     6.083
  47.440         45.00	     7.348
  47.460         32.50	     6.245
  47.480         35.00	     6.481
  47.500         41.67	     7.071
  47.520         40.00	     6.928
  47.540         40.83	     7.000
  47.560         34.17	     6.403
  47.580         32.50	     6.245
  47.600         31.67	     6.164
  47.620         35.83	     6.557
  47.640         35.83	     6.557
  47.660         41.67	     7.071
  47.680         39.17	     6.856
  47.700         37.50	     6.708
  47.720         41.67	     7.071
  47.740         38.33	     6.782
  47.760         35.83	     6.557
  47.780         39.17	     6.856
  47.800         59.17	     8.426
  47.820         60.83	     8.544
  47.840         57.50	     8.307
  47.860         58.33	     8.367
  47.880         64.17	     8.775
  47.900         50.00	     7.746
  47.920         43.33	     7.211
  47.940         48.33	     7.616
  47.960         71.67	     9.274
  47.980         63.33	     8.718
  48.000         61.67	     8.602
  48.020         59.17	     8.426
  48.040         62.50	     8.660
  48.060         55.83	     8.185
  48.080         50.00	     7.746
  48.100         59.17	     8.426
  48.120         48.33	     7.616
  48.140         44.17	     7.280
  48.160         44.17	     7.280
  48.180         60.00	     8.485
  48.200         39.17	     6.856
  48.220         41.67	     7.071
  48.240         43.33	     7.211
  48.260         48.33	     7.616
  48.280         44.17	     7.280
  48.300         35.83	     6.557
  48.320         33.33	     6.325
  48.340         44.17	     7.280
  48.360         39.17	     6.856
  48.380         40.83	     7.000
  48.400         44.17	     7.280
  48.420         35.83	     6.557
  48.440         41.67	     7.071
  48.460         36.67	     6.633
  48.480         47.50	     7.550
  48.500         40.00	     6.928
  48.520         50.00	     7.746
  48.540         60.83	     8.544
  48.560         52.50	     7.937
  48.580         46.67	     7.483
  48.600         41.67	     7.071
  48.620         45.00	     7.348
  48.640         53.33	     8.000
  48.660         50.83	     7.810
  48.680         36.67	     6.633
  48.700         32.50	     6.245
  48.720         49.17	     7.681
  48.740         43.33	     7.211
  48.760         39.17	     6.856
  48.780         30.83	     6.083
  48.800         45.00	     7.348
  48.820         43.33	     7.211
  48.840         46.67	     7.483
  48.860         41.67	     7.071
  48.880         44.17	     7.280
  48.900         36.67	     6.633
  48.920         35.00	     6.481
  48.940         48.33	     7.616
  48.960         43.33	     7.211
  48.980         50.83	     7.810
  49.000         34.17	     6.403
  49.020         38.33	     6.782
  49.040         44.17	     7.280
  49.060         54.17	     8.062
  49.080         67.50	     9.000
  49.100         72.50	     9.327
  49.120         70.00	     9.165
  49.140         53.33	     8.000
  49.160         61.67	     8.602
  49.180         59.17	     8.426
  49.200         60.00	     8.485
  49.220         60.83	     8.544
  49.240         48.33	     7.616
  49.260         49.17	     7.681
  49.280         40.83	     7.000
  49.300         53.33	     8.000
  49.320         61.67	     8.602
  49.340         51.67	     7.874
  49.360         42.50	     7.141
  49.380         49.17	     7.681
  49.400         40.00	     6.928
  49.420         32.50	     6.245
  49.440         44.17	     7.280
  49.460         53.33	     8.000
  49.480         47.50	     7.550
  49.500         45.00	     7.348
  49.520         43.33	     7.211
  49.540         56.67	     8.246
  49.560         50.83	     7.810
  49.580         54.17	     8.062
  49.600         51.67	     7.874
  49.620         60.83	     8.544
  49.640         64.17	     8.775
  49.660         75.00	     9.487
  49.680         73.33	     9.381
  49.700         75.83	     9.539
  49.720         67.50	     9.000
  49.740         74.17	     9.434
  49.760         87.50	    10.247
  49.780         90.00	    10.392
  49.800         95.00	    10.677
  49.820        102.50	    11.091
  49.840         94.17	    10.630
  49.860        107.50	    11.358
  49.880         92.50	    10.536
  49.900         84.17	    10.050
  49.920         93.33	    10.583
  49.940        123.33	    12.166
  49.960        177.50	    14.595
  49.980        228.33	    16.553
  50.000        276.67	    18.221
  50.020        315.00	    19.442
  50.040        332.50	    19.975
  50.060        237.50	    16.882
  50.080        161.67	    13.928
  50.100        143.33	    13.115
  50.120        167.50	    14.177
  50.140        174.17	    14.457
  50.160        191.67	    15.166
  50.180        177.50	    14.595
  50.200        125.00	    12.247
  50.220         90.00	    10.392
  50.240         83.33	    10.000
  50.260         56.67	     8.246
  50.280         50.00	     7.746
  50.300         56.67	     8.246
  50.320         66.67	     8.944
  50.340         48.33	     7.616
  50.360         65.00	     8.832
  50.380         60.83	     8.544
  50.400         60.83	     8.544
  50.420         82.50	     9.950
  50.440        100.00	    10.954
  50.460        103.33	    11.136
  50.480        112.50	    11.619
  50.500        105.00	    11.225
  50.520        105.00	    11.225
  50.540         86.67	    10.198
  50.560         77.50	     9.644
  50.580         80.83	     9.849
  50.600         98.33	    10.863
  50.620         99.17	    10.909
  50.640         85.00	    10.100
  50.660         85.00	    10.100
  50.680         64.17	     8.775
  50.700         70.00	     9.165
  50.720         56.67	     8.246
  50.740         64.17	     8.775
  50.760         67.50	     9.000
  50.780         60.83	     8.544
  50.800         49.17	     7.681
  50.820         59.17	     8.426
  50.840         40.00	     6.928
  50.860         42.50	     7.141
  50.880         50.83	     7.810
  50.900         44.17	     7.280
  50.920         46.67	     7.483
  50.940         45.83	     7.416
  50.960         96.67	    10.770
  50.980        123.33	    12.166
  51.000        172.50	    14.387
  51.020        122.50	    12.124
  51.040        101.67	    11.045
  51.060         85.83	    10.149
  51.080         79.17	     9.747
  51.100         79.17	     9.747
  51.120         84.17	    10.050
  51.140        101.67	    11.045
  51.160         92.50	    10.536
  51.180         72.50	     9.327
  51.200         52.50	     7.937
  51.220         55.83	     8.185
  51.240         55.83	     8.185
  51.260         54.17	     8.062
  51.280         50.00	     7.746
  51.300         52.50	     7.937
  51.320         39.17	     6.856
  51.340         49.17	     7.681
  51.360         33.33	     6.325
  51.380         42.50	     7.141
  51.400         41.67	     7.071
  51.420         32.50	     6.245
  51.440         41.67	     7.071
  51.460         37.50	     6.708
  51.480         38.33	     6.782
  51.500         43.33	     7.211
  51.520         45.00	     7.348
  51.540         33.33	     6.325
  51.560         30.83	     6.083
  51.580         36.67	     6.633
  51.600         34.17	     6.403
  51.620         35.83	     6.557
  51.640         31.67	     6.164
  51.660         35.00	     6.481
  51.680         40.83	     7.000
  51.700         30.83	     6.083
  51.720         30.00	     6.000
  51.740         40.83	     7.000
  51.760         28.33	     5.831
  51.780         45.00	     7.348
  51.800         25.00	     5.477
  51.820         35.00	     6.481
  51.840         36.67	     6.633
  51.860         30.00	     6.000
  51.880         30.83	     6.083
  51.900         35.83	     6.557
  51.920         38.33	     6.782
  51.940         27.50	     5.745
  51.960         35.83	     6.557
  51.980         43.33	     7.211
  52.000         44.17	     7.280
  52.020         41.67	     7.071
  52.040         31.67	     6.164
  52.060         33.33	     6.325
  52.080         43.33	     7.211
  52.100         35.00	     6.481
  52.120         53.33	     8.000
  52.140         44.17	     7.280
  52.160         32.50	     6.245
  52.180         34.17	     6.403
  52.200         50.00	     7.746
  52.220         46.67	     7.483
  52.240         39.17	     6.856
  52.260         52.50	     7.937
  52.280         54.17	     8.062
  52.300         47.50	     7.550
  52.320         44.17	     7.280
  52.340         50.83	     7.810
  52.360         37.50	     6.708
  52.380         38.33	     6.782
  52.400         50.83	     7.810
  52.420         52.50	     7.937
  52.440         55.83	     8.185
  52.460         60.00	     8.485
  52.480         40.00	     6.928
  52.500         44.17	     7.280
  52.520         38.33	     6.782
  52.540         45.83	     7.416
  52.560         43.33	     7.211
  52.580         46.67	     7.483
  52.600         35.00	     6.481
  52.620         45.00	     7.348
  52.640         35.83	     6.557
  52.660         40.00	     6.928
  52.680         35.83	     6.557
  52.700         45.83	     7.416
  52.720         44.17	     7.280
  52.740         40.83	     7.000
  52.760         42.50	     7.141
  52.780         41.67	     7.071
  52.800         49.17	     7.681
  52.820         42.50	     7.141
  52.840         43.33	     7.211
  52.860         38.33	     6.782
  52.880         45.83	     7.416
  52.900         36.67	     6.633
  52.920         43.33	     7.211
  52.940         46.67	     7.483
  52.960         41.67	     7.071
  52.980         40.00	     6.928
  53.000         47.50	     7.550
  53.020         54.17	     8.062
  53.040         63.33	     8.718
  53.060         63.33	     8.718
  53.080         44.17	     7.280
  53.100         67.50	     9.000
  53.120         65.00	     8.832
  53.140         68.33	     9.055
  53.160         70.83	     9.220
  53.180         65.83	     8.888
  53.200         50.00	     7.746
  53.220         49.17	     7.681
  53.240         42.50	     7.141
  53.260         50.00	     7.746
  53.280         35.83	     6.557
  53.300         46.67	     7.483
  53.320         37.50	     6.708
  53.340         33.33	     6.325
  53.360         45.00	     7.348
  53.380         38.33	     6.782
  53.400         37.50	     6.708
  53.420         35.83	     6.557
  53.440         33.33	     6.325
  53.460         43.33	     7.211
  53.480         45.00	     7.348
  53.500         35.83	     6.557
  53.520         45.00	     7.348
  53.540         43.33	     7.211
  53.560         37.50	     6.708
  53.580         34.17	     6.403
  53.600         36.67	     6.633
  53.620         45.00	     7.348
  53.640         30.00	     6.000
  53.660         40.83	     7.000
  53.680         35.00	     6.481
  53.700         42.50	     7.141
  53.720         50.00	     7.746
  53.740         43.33	     7.211
  53.760         40.83	     7.000
  53.780         45.00	     7.348
  53.800         40.83	     7.000
  53.820         47.50	     7.550
  53.840         44.17	     7.280
  53.860         50.00	     7.746
  53.880         48.33	     7.616
  53.900         51.67	     7.874
  53.920         50.83	     7.810
  53.940         45.00	     7.348
  53.960         38.33	     6.782
  53.980         35.83	     6.557
  54.000         40.83	     7.000
  54.020         45.00	     7.348
  54.040         31.67	     6.164
  54.060         36.67	     6.633
  54.080         35.00	     6.481
  54.100         46.67	     7.483
  54.120         30.00	     6.000
  54.140         36.67	     6.633
  54.160         35.00	     6.481
  54.180         44.17	     7.280
  54.200         50.00	     7.746
  54.220         34.17	     6.403
  54.240         37.50	     6.708
  54.260         37.50	     6.708
  54.280         42.50	     7.141
  54.300         51.67	     7.874
  54.320         46.67	     7.483
  54.340         41.67	     7.071
  54.360         40.83	     7.000
  54.380         40.83	     7.000
  54.400         42.50	     7.141
  54.420         54.17	     8.062
  54.440         48.33	     7.616
  54.460         45.00	     7.348
  54.480         38.33	     6.782
  54.500         30.83	     6.083
  54.520         40.83	     7.000
  54.540         49.17	     7.681
  54.560         38.33	     6.782
  54.580         48.33	     7.616
  54.600         54.17	     8.062
  54.620         40.00	     6.928
  54.640         46.67	     7.483
  54.660         60.83	     8.544
  54.680         56.67	     8.246
  54.700         64.17	     8.775
  54.720        104.17	    11.180
  54.740        122.50	    12.124
  54.760        135.00	    12.728
  54.780        143.33	    13.115
  54.800        101.67	    11.045
  54.820         75.00	     9.487
  54.840         69.17	     9.110
  54.860         65.83	     8.888
  54.880         83.33	    10.000
  54.900         87.50	    10.247
  54.920         88.33	    10.296
  54.940         70.00	     9.165
  54.960         65.83	     8.888
  54.980         40.00	     6.928
  55.000         49.17	     7.681
  55.020         40.83	     7.000
  55.040         46.67	     7.483
  55.060         37.50	     6.708
  55.080         43.33	     7.211
  55.100         42.50	     7.141
  55.120         45.83	     7.416
  55.140         61.67	     8.602
  55.160         55.83	     8.185
  55.180         59.17	     8.426
  55.200         93.33	    10.583
  55.220         81.67	     9.899
  55.240         79.17	     9.747
  55.260         64.17	     8.775
  55.280         60.00	     8.485
  55.300         65.00	     8.832
  55.320         50.83	     7.810
  55.340         59.17	     8.426
  55.360         63.33	     8.718
  55.380         65.83	     8.888
  55.400         60.83	     8.544
  55.420         48.33	     7.616
  55.440         53.33	     8.000
  55.460         45.00	     7.348
  55.480         52.50	     7.937
  55.500         48.33	     7.616
  55.520         43.33	     7.211
  55.540         64.17	     8.775
  55.560         54.17	     8.062
  55.580         50.83	     7.810
  55.600         51.67	     7.874
  55.620         72.50	     9.327
  55.640         61.67	     8.602
  55.660        100.00	    10.954
  55.680         90.00	    10.392
  55.700         80.00	     9.798
  55.720         84.17	    10.050
  55.740         63.33	     8.718
  55.760         65.00	     8.832
  55.780         74.17	     9.434
  55.800         76.67	     9.592
  55.820         75.83	     9.539
  55.840         67.50	     9.000
  55.860         63.33	     8.718
  55.880         53.33	     8.000
  55.900         40.00	     6.928
  55.920         52.50	     7.937
  55.940         55.83	     8.185
  55.960         40.00	     6.928
  55.980         37.50	     6.708
  56.000         40.00	     6.928
  56.020         42.50	     7.141
  56.040         46.67	     7.483
  56.060         49.17	     7.681
  56.080         50.00	     7.746
  56.100         36.67	     6.633
  56.120         41.67	     7.071
  56.140         37.50	     6.708
  56.160         43.33	     7.211
  56.180         40.00	     6.928
  56.200         49.17	     7.681
  56.220         46.67	     7.483
  56.240         40.83	     7.000
  56.260         46.67	     7.483
  56.280         50.00	     7.746
  56.300         37.50	     6.708
  56.320         40.00	     6.928
  56.340         28.33	     5.831
  56.360         41.67	     7.071
  56.380         43.33	     7.211
  56.400         31.67	     6.164
  56.420         38.33	     6.782
  56.440         45.00	     7.348
  56.460         35.83	     6.557
  56.480         36.67	     6.633
  56.500         43.33	     7.211
  56.520         34.17	     6.403
  56.540         36.67	     6.633
  56.560         54.17	     8.062
  56.580         55.00	     8.124
  56.600         57.50	     8.307
  56.620         47.50	     7.550
  56.640         44.17	     7.280
  56.660         45.83	     7.416
  56.680         45.00	     7.348
  56.700         53.33	     8.000
  56.720         43.33	     7.211
  56.740         47.50	     7.550
  56.760         49.17	     7.681
  56.780         50.00	     7.746
  56.800         41.67	     7.071
  56.820         44.17	     7.280
  56.840         36.67	     6.633
  56.860         50.00	     7.746
  56.880         46.67	     7.483
  56.900         46.67	     7.483
  56.920         33.33	     6.325
  56.940         36.67	     6.633
  56.960         35.83	     6.557
  56.980         32.50	     6.245
  57.000         35.83	     6.557
  57.020         33.33	     6.325
  57.040         44.17	     7.280
  57.060         40.00	     6.928
  57.080         50.00	     7.746
  57.100         55.00	     8.124
  57.120         45.00	     7.348
  57.140         41.67	     7.071
  57.160         38.33	     6.782
  57.180         45.83	     7.416
  57.200         34.17	     6.403
  57.220         49.17	     7.681
  57.240         37.50	     6.708
  57.260         43.33	     7.211
  57.280         47.50	     7.550
  57.300         29.17	     5.916
  57.320         47.50	     7.550
  57.340         47.50	     7.550
  57.360         36.67	     6.633
  57.380         46.67	     7.483
  57.400         55.00	     8.124
  57.420         47.50	     7.550
  57.440         43.33	     7.211
  57.460         39.17	     6.856
  57.480         30.00	     6.000
  57.500         38.33	     6.782
  57.520         44.17	     7.280
  57.540         33.33	     6.325
  57.560         44.17	     7.280
  57.580         45.00	     7.348
  57.600         42.50	     7.141
  57.620         42.50	     7.141
  57.640         45.83	     7.416
  57.660         49.17	     7.681
  57.680         54.17	     8.062
  57.700         31.67	     6.164
  57.720         36.67	     6.633
  57.740         33.33	     6.325
  57.760         27.50	     5.745
  57.780         36.67	     6.633
  57.800         34.17	     6.403
  57.820         40.00	     6.928
  57.840         30.83	     6.083
  57.860         38.33	     6.782
  57.880         41.67	     7.071
  57.900         29.17	     5.916
  57.920         44.17	     7.280
  57.940         41.67	     7.071
  57.960         56.67	     8.246
  57.980         45.00	     7.348
  58.000         45.83	     7.416
  58.020         37.50	     6.708
  58.040         45.00	     7.348
  58.060         50.00	     7.746
  58.080         50.83	     7.810
  58.100         40.00	     6.928
  58.120         56.67	     8.246
  58.140         45.00	     7.348
  58.160         39.17	     6.856
  58.180         48.33	     7.616
  58.200         49.17	     7.681
  58.220         35.83	     6.557
  58.240         37.50	     6.708
  58.260         38.33	     6.782
  58.280         36.67	     6.633
  58.300         35.83	     6.557
  58.320         41.67	     7.071
  58.340         30.83	     6.083
  58.360         49.17	     7.681
  58.380         50.00	     7.746
  58.400         37.50	     6.708
  58.420         58.33	     8.367
  58.440         33.33	     6.325
  58.460         44.17	     7.280
  58.480         48.33	     7.616
  58.500         47.50	     7.550
  58.520         57.50	     8.307
  58.540         58.33	     8.367
  58.560         60.83	     8.544
  58.580         58.33	     8.367
  58.600         55.00	     8.124
  58.620         41.67	     7.071
  58.640         54.17	     8.062
  58.660         50.83	     7.810
  58.680         51.67	     7.874
  58.700         48.33	     7.616
  58.720         34.17	     6.403
  58.740         37.50	     6.708
  58.760         42.50	     7.141
  58.780         50.00	     7.746
  58.800         54.17	     8.062
  58.820         54.17	     8.062
  58.840         39.17	     6.856
  58.860         49.17	     7.681
  58.880         52.50	     7.937
  58.900         40.83	     7.000
  58.920         51.67	     7.874
  58.940         49.17	     7.681
  58.960         40.00	     6.928
  58.980         44.17	     7.280
  59.000         41.67	     7.071
  59.020         46.67	     7.483
  59.040         48.33	     7.616
  59.060         50.83	     7.810
  59.080         56.67	     8.246
  59.100         38.33	     6.782
  59.120         60.83	     8.544
  59.140         56.67	     8.246
  59.160         51.67	     7.874
  59.180         47.50	     7.550
  59.200         45.00	     7.348
  59.220         54.17	     8.062
  59.240         44.17	     7.280
  59.260         49.17	     7.681
  59.280         45.00	     7.348
  59.300         53.33	     8.000
  59.320         50.83	     7.810
  59.340         31.67	     6.164
  59.360         32.50	     6.245
  59.380         44.17	     7.280
  59.400         40.00	     6.928
  59.420         50.83	     7.810
  59.440         45.00	     7.348
  59.460         28.33	     5.831
  59.480         47.50	     7.550
  59.500         35.83	     6.557
  59.520         39.17	     6.856
  59.540         48.33	     7.616
  59.560         38.33	     6.782
  59.580         55.00	     8.124
  59.600         46.67	     7.483
  59.620         48.33	     7.616
  59.640         43.33	     7.211
  59.660         57.50	     8.307
  59.680         54.17	     8.062
  59.700         52.50	     7.937
  59.720         75.83	     9.539
  59.740         73.33	     9.381
  59.760         86.67	    10.198
  59.780        138.33	    12.884
  59.800        203.33	    15.620
  59.820        265.00	    17.833
  59.840        328.33	    19.849
  59.860        286.67	    18.547
  59.880        260.83	    17.692
  59.900        187.50	    15.000
  59.920        131.67	    12.570
  59.940        133.33	    12.649
  59.960        123.33	    12.166
  59.980        155.00	    13.638
  60.000        186.67	    14.967
  60.020        202.50	    15.588
  60.040        159.17	    13.820
  60.060        111.67	    11.576
  60.080         89.17	    10.344
  60.100         60.83	     8.544
  60.120         69.17	     9.110
  60.140         65.83	     8.888
  60.160         52.50	     7.937
  60.180         54.17	     8.062
  60.200         55.00	     8.124
  60.220         50.83	     7.810
  60.240         37.50	     6.708
  60.260         50.83	     7.810
  60.280         46.67	     7.483
  60.300         56.67	     8.246
  60.320         46.67	     7.483
  60.340         52.50	     7.937
  60.360         44.17	     7.280
  60.380         42.50	     7.141
  60.400         45.00	     7.348
  60.420         36.67	     6.633
  60.440         40.00	     6.928
  60.460         41.67	     7.071
  60.480         50.83	     7.810
  60.500         32.50	     6.245
  60.520         55.00	     8.124
  60.540         40.83	     7.000
  60.560         45.00	     7.348
  60.580         63.33	     8.718
  60.600         59.17	     8.426
  60.620         48.33	     7.616
  60.640         65.00	     8.832
  60.660         45.00	     7.348
  60.680         55.00	     8.124
  60.700         50.83	     7.810
  60.720         56.67	     8.246
  60.740         52.50	     7.937
  60.760         53.33	     8.000
  60.780         61.67	     8.602
  60.800         63.33	     8.718
  60.820         47.50	     7.550
  60.840         45.00	     7.348
  60.860         57.50	     8.307
  60.880         53.33	     8.000
  60.900         45.83	     7.416
  60.920         44.17	     7.280
  60.940         55.00	     8.124
  60.960         51.67	     7.874
  60.980         54.17	     8.062
  61.000         52.50	     7.937
  61.020         53.33	     8.000
  61.040         46.67	     7.483
  61.060         43.33	     7.211
  61.080         52.50	     7.937
  61.100         55.83	     8.185
  61.120         45.00	     7.348
  61.140         47.50	     7.550
  61.160         52.50	     7.937
  61.180         41.67	     7.071
  61.200         37.50	     6.708
  61.220         57.50	     8.307
  61.240         55.00	     8.124
  61.260         64.17	     8.775
  61.280         55.83	     8.185
  61.300         60.00	     8.485
  61.320         49.17	     7.681
  61.340         57.50	     8.307
  61.360         76.67	     9.592
  61.380         94.17	    10.630
  61.400         57.50	     8.307
  61.420         68.33	     9.055
  61.440         67.50	     9.000
  61.460         70.83	     9.220
  61.480         65.83	     8.888
  61.500         77.50	     9.644
  61.520         61.67	     8.602
  61.540         67.50	     9.000
  61.560         72.50	     9.327
  61.580         59.17	     8.426
  61.600         65.83	     8.888
  61.620         73.33	     9.381
  61.640         55.00	     8.124
  61.660         61.67	     8.602
  61.680         67.50	     9.000
  61.700         55.00	     8.124
  61.720         59.17	     8.426
  61.740         54.17	     8.062
  61.760         69.17	     9.110
  61.780         49.17	     7.681
  61.800         60.00	     8.485
  61.820         52.50	     7.937
  61.840         56.67	     8.246
  61.860         62.50	     8.660
  61.880         55.83	     8.185
  61.900         56.67	     8.246
  61.920         40.83	     7.000
  61.940         37.50	     6.708
  61.960         44.17	     7.280
  61.980         46.67	     7.483
  62.000         50.83	     7.810
  62.020         31.67	     6.164
  62.040         44.17	     7.280
  62.060         45.00	     7.348
  62.080         36.67	     6.633
  62.100         39.17	     6.856
  62.120         46.67	     7.483
  62.140         35.83	     6.557
  62.160         35.00	     6.481
  62.180         40.83	     7.000
  62.200         40.83	     7.000
  62.220         30.83	     6.083
  62.240         35.83	     6.557
  62.260         33.33	     6.325
  62.280         39.17	     6.856
  62.300         31.67	     6.164
  62.320         39.17	     6.856
  62.340         31.67	     6.164
  62.360         40.83	     7.000
  62.380         42.50	     7.141
  62.400         42.50	     7.141
  62.420         41.67	     7.071
  62.440         46.67	     7.483
  62.460         50.83	     7.810
  62.480         40.00	     6.928
  62.500         47.50	     7.550
  62.520         45.00	     7.348
  62.540         44.17	     7.280
  62.560         43.33	     7.211
  62.580         48.33	     7.616
  62.600         52.50	     7.937
  62.620         35.83	     6.557
  62.640         37.50	     6.708
  62.660         55.00	     8.124
  62.680         49.17	     7.681
  62.700         30.00	     6.000
  62.720         40.83	     7.000
  62.740         40.00	     6.928
  62.760         35.00	     6.481
  62.780         47.50	     7.550
  62.800         45.00	     7.348
  62.820         44.17	     7.280
  62.840         38.33	     6.782
  62.860         49.17	     7.681
  62.880         38.33	     6.782
  62.900         34.17	     6.403
  62.920         37.50	     6.708
  62.940         35.00	     6.481
  62.960         31.67	     6.164
  62.980         40.83	     7.000
  63.000         34.17	     6.403
  63.020         38.33	     6.782
  63.040         35.83	     6.557
  63.060         28.33	     5.831
  63.080         39.17	     6.856
  63.100         45.00	     7.348
  63.120         34.17	     6.403
  63.140         44.17	     7.280
  63.160         44.17	     7.280
  63.180         35.83	     6.557
  63.200         43.33	     7.211
  63.220         34.17	     6.403
  63.240         39.17	     6.856
  63.260         40.83	     7.000
  63.280         40.00	     6.928
  63.300         42.50	     7.141
  63.320         51.67	     7.874
  63.340         60.83	     8.544
  63.360         54.17	     8.062
  63.380         60.00	     8.485
  63.400         59.17	     8.426
  63.420         46.67	     7.483
  63.440         53.33	     8.000
  63.460         45.83	     7.416
  63.480         44.17	     7.280
  63.500         49.17	     7.681
  63.520         47.50	     7.550
  63.540         49.17	     7.681
  63.560         42.50	     7.141
  63.580         56.67	     8.246
  63.600         51.67	     7.874
  63.620         45.00	     7.348
  63.640         36.67	     6.633
  63.660         51.67	     7.874
  63.680         49.17	     7.681
  63.700         39.17	     6.856
  63.720         35.00	     6.481
  63.740         51.67	     7.874
  63.760         59.17	     8.426
  63.780         57.50	     8.307
  63.800         50.83	     7.810
  63.820         55.00	     8.124
  63.840         59.17	     8.426
  63.860         57.50	     8.307
  63.880         70.83	     9.220
  63.900         96.67	    10.770
  63.920        105.00	    11.225
  63.940         85.83	    10.149
  63.960         80.00	     9.798
  63.980         60.00	     8.485
  64.000         66.67	     8.944
  64.020         64.17	     8.775
  64.040         70.00	     9.165
  64.060         66.67	     8.944
  64.080         60.00	     8.485
  64.100         72.50	     9.327
  64.120         65.83	     8.888
  64.140         55.00	     8.124
  64.160         69.17	     9.110
  64.180         55.00	     8.124
  64.200         48.33	     7.616
  64.220         45.00	     7.348
  64.240         58.33	     8.367
  64.260         49.17	     7.681
  64.280         45.83	     7.416
  64.300         55.00	     8.124
  64.320         57.50	     8.307
  64.340         55.00	     8.124
  64.360         55.00	     8.124
  64.380         55.00	     8.124
  64.400         61.67	     8.602
  64.420         56.67	     8.246
  64.440         62.50	     8.660
  64.460         51.67	     7.874
  64.480         51.67	     7.874
  64.500         68.33	     9.055
  64.520         57.50	     8.307
  64.540         65.83	     8.888
  64.560         64.17	     8.775
  64.580         63.33	     8.718
  64.600         58.33	     8.367
  64.620         58.33	     8.367
  64.640         49.17	     7.681
  64.660         56.67	     8.246
  64.680         56.67	     8.246
  64.700         55.83	     8.185
  64.720         48.33	     7.616
  64.740         48.33	     7.616
  64.760         49.17	     7.681
  64.780         62.50	     8.660
  64.800         57.50	     8.307
  64.820         79.17	     9.747
  64.840         55.83	     8.185
  64.860         60.00	     8.485
  64.880         60.83	     8.544
  64.900         69.17	     9.110
  64.920         51.67	     7.874
  64.940         65.83	     8.888
  64.960         60.83	     8.544
  64.980         64.17	     8.775
  65.000         70.00	     9.165
