
Filename:
	C:\Program Files\Thermo Electron\WinXRD\Datafiles\F_HERMAN\GEO\G33_RT.raw

File Created:
	February 18, 2020 - 07:13 PM

Specimen Id:
	G33_RT

Specimen Name:
	

Specimen Description:
	

Comment:
Scan Type: 2Theta Scan
Start Angle: 3 deg.
Stop Angle: 65 deg.
Num Points: 3101
Step Size: 0.02 deg.
Scan Rate: 1.000000
Scan Mode: Continuous
Wavelength: 1.540562
\Kalpha1: 1.540562	\Kalpha2: 1.544390	\Kbeta: 1.392218

Optics:
		Detector:
			 Type: Fixed Slits
		Tube: 
			 Type: Fixed Slits


Datas:
 Pos [deg]       Rate [CPS]      ESD [-]

Range 1 ---> Iteration 1
   3.000        392.50	    21.703
   3.020        416.67	    22.361
   3.040        437.50	    22.913
   3.060        422.50	    22.517
   3.080        410.83	    22.204
   3.100        427.50	    22.650
   3.120        388.33	    21.587
   3.140        453.33	    23.324
   3.160        392.50	    21.703
   3.180        420.83	    22.472
   3.200        406.67	    22.091
   3.220        380.83	    21.378
   3.240        427.50	    22.650
   3.260        366.67	    20.976
   3.280        406.67	    22.091
   3.300        370.83	    21.095
   3.320        385.83	    21.517
   3.340        395.00	    21.772
   3.360        375.00	    21.213
   3.380        395.00	    21.772
   3.400        368.33	    21.024
   3.420        351.67	    20.543
   3.440        360.00	    20.785
   3.460        374.17	    21.190
   3.480        337.50	    20.125
   3.500        375.83	    21.237
   3.520        354.17	    20.616
   3.540        411.67	    22.226
   3.560        349.17	    20.469
   3.580        380.83	    21.378
   3.600        330.00	    19.900
   3.620        319.17	    19.570
   3.640        362.50	    20.857
   3.660        331.67	    19.950
   3.680        317.50	    19.519
   3.700        330.00	    19.900
   3.720        338.33	    20.149
   3.740        370.83	    21.095
   3.760        328.33	    19.849
   3.780        375.83	    21.237
   3.800        355.83	    20.664
   3.820        321.67	    19.647
   3.840        305.00	    19.131
   3.860        303.33	    19.079
   3.880        342.50	    20.273
   3.900        329.17	    19.875
   3.920        355.83	    20.664
   3.940        348.33	    20.445
   3.960        316.67	    19.494
   3.980        317.50	    19.519
   4.000        303.33	    19.079
   4.020        314.17	    19.416
   4.040        314.17	    19.416
   4.060        302.50	    19.053
   4.080        321.67	    19.647
   4.100        299.17	    18.947
   4.120        307.50	    19.209
   4.140        311.67	    19.339
   4.160        283.33	    18.439
   4.180        300.00	    18.974
   4.200        291.67	    18.708
   4.220        303.33	    19.079
   4.240        260.83	    17.692
   4.260        307.50	    19.209
   4.280        290.83	    18.682
   4.300        290.83	    18.682
   4.320        299.17	    18.947
   4.340        271.67	    18.055
   4.360        286.67	    18.547
   4.380        275.83	    18.193
   4.400        297.50	    18.894
   4.420        310.00	    19.287
   4.440        270.83	    18.028
   4.460        270.83	    18.028
   4.480        290.83	    18.682
   4.500        252.50	    17.407
   4.520        255.83	    17.521
   4.540        263.33	    17.776
   4.560        274.17	    18.138
   4.580        290.00	    18.655
   4.600        270.00	    18.000
   4.620        276.67	    18.221
   4.640        273.33	    18.111
   4.660        250.00	    17.321
   4.680        252.50	    17.407
   4.700        257.50	    17.578
   4.720        253.33	    17.436
   4.740        247.50	    17.234
   4.760        240.00	    16.971
   4.780        240.00	    16.971
   4.800        267.50	    17.916
   4.820        251.67	    17.378
   4.840        250.00	    17.321
   4.860        279.17	    18.303
   4.880        259.17	    17.635
   4.900        237.50	    16.882
   4.920        256.67	    17.550
   4.940        248.33	    17.263
   4.960        230.83	    16.643
   4.980        242.50	    17.059
   5.000        233.33	    16.733
   5.020        224.17	    16.401
   5.040        240.83	    17.000
   5.060        250.00	    17.321
   5.080        227.50	    16.523
   5.100        257.50	    17.578
   5.120        223.33	    16.371
   5.140        268.33	    17.944
   5.160        220.00	    16.248
   5.180        227.50	    16.523
   5.200        252.50	    17.407
   5.220        250.83	    17.349
   5.240        214.17	    16.031
   5.260        226.67	    16.492
   5.280        241.67	    17.029
   5.300        218.33	    16.186
   5.320        223.33	    16.371
   5.340        238.33	    16.912
   5.360        220.83	    16.279
   5.380        220.00	    16.248
   5.400        229.17	    16.583
   5.420        203.33	    15.620
   5.440        229.17	    16.583
   5.460        220.00	    16.248
   5.480        199.17	    15.460
   5.500        229.17	    16.583
   5.520        220.83	    16.279
   5.540        185.00	    14.900
   5.560        213.33	    16.000
   5.580        217.50	    16.155
   5.600        176.67	    14.560
   5.620        190.83	    15.133
   5.640        210.00	    15.875
   5.660        218.33	    16.186
   5.680        206.67	    15.748
   5.700        200.83	    15.524
   5.720        208.33	    15.811
   5.740        218.33	    16.186
   5.760        218.33	    16.186
   5.780        214.17	    16.031
   5.800        222.50	    16.340
   5.820        190.00	    15.100
   5.840        219.17	    16.217
   5.860        220.00	    16.248
   5.880        210.00	    15.875
   5.900        230.83	    16.643
   5.920        200.00	    15.492
   5.940        210.00	    15.875
   5.960        208.33	    15.811
   5.980        205.83	    15.716
   6.000        219.17	    16.217
   6.020        187.50	    15.000
   6.040        216.67	    16.125
   6.060        226.67	    16.492
   6.080        218.33	    16.186
   6.100        231.67	    16.673
   6.120        251.67	    17.378
   6.140        225.00	    16.432
   6.160        233.33	    16.733
   6.180        231.67	    16.673
   6.200        277.50	    18.248
   6.220        235.00	    16.793
   6.240        258.33	    17.607
   6.260        250.83	    17.349
   6.280        225.00	    16.432
   6.300        219.17	    16.217
   6.320        199.17	    15.460
   6.340        204.17	    15.652
   6.360        190.00	    15.100
   6.380        192.50	    15.199
   6.400        193.33	    15.232
   6.420        205.00	    15.684
   6.440        187.50	    15.000
   6.460        185.00	    14.900
   6.480        190.83	    15.133
   6.500        177.50	    14.595
   6.520        191.67	    15.166
   6.540        174.17	    14.457
   6.560        212.50	    15.969
   6.580        165.00	    14.071
   6.600        178.33	    14.629
   6.620        170.00	    14.283
   6.640        176.67	    14.560
   6.660        187.50	    15.000
   6.680        191.67	    15.166
   6.700        185.00	    14.900
   6.720        175.83	    14.526
   6.740        185.00	    14.900
   6.760        175.00	    14.491
   6.780        178.33	    14.629
   6.800        163.33	    14.000
   6.820        164.17	    14.036
   6.840        177.50	    14.595
   6.860        159.17	    13.820
   6.880        165.00	    14.071
   6.900        193.33	    15.232
   6.920        185.00	    14.900
   6.940        165.00	    14.071
   6.960        171.67	    14.353
   6.980        164.17	    14.036
   7.000        184.17	    14.866
   7.020        165.83	    14.107
   7.040        185.83	    14.933
   7.060        172.50	    14.387
   7.080        167.50	    14.177
   7.100        191.67	    15.166
   7.120        169.17	    14.248
   7.140        162.50	    13.964
   7.160        170.83	    14.318
   7.180        178.33	    14.629
   7.200        170.00	    14.283
   7.220        166.67	    14.142
   7.240        177.50	    14.595
   7.260        157.50	    13.748
   7.280        131.67	    12.570
   7.300        167.50	    14.177
   7.320        181.67	    14.765
   7.340        180.83	    14.731
   7.360        173.33	    14.422
   7.380        173.33	    14.422
   7.400        160.00	    13.856
   7.420        166.67	    14.142
   7.440        202.50	    15.588
   7.460        158.33	    13.784
   7.480        162.50	    13.964
   7.500        166.67	    14.142
   7.520        165.00	    14.071
   7.540        173.33	    14.422
   7.560        162.50	    13.964
   7.580        156.67	    13.711
   7.600        153.33	    13.565
   7.620        178.33	    14.629
   7.640        160.00	    13.856
   7.660        144.17	    13.153
   7.680        148.33	    13.342
   7.700        152.50	    13.528
   7.720        165.00	    14.071
   7.740        160.00	    13.856
   7.760        154.17	    13.601
   7.780        164.17	    14.036
   7.800        162.50	    13.964
   7.820        152.50	    13.528
   7.840        146.67	    13.266
   7.860        160.00	    13.856
   7.880        163.33	    14.000
   7.900        175.83	    14.526
   7.920        150.00	    13.416
   7.940        169.17	    14.248
   7.960        145.83	    13.229
   7.980        149.17	    13.379
   8.000        134.17	    12.689
   8.020        160.83	    13.892
   8.040        137.50	    12.845
   8.060        146.67	    13.266
   8.080        150.00	    13.416
   8.100        157.50	    13.748
   8.120        155.83	    13.675
   8.140        140.00	    12.961
   8.160        160.00	    13.856
   8.180        155.83	    13.675
   8.200        146.67	    13.266
   8.220        150.00	    13.416
   8.240        157.50	    13.748
   8.260        139.17	    12.923
   8.280        151.67	    13.491
   8.300        147.50	    13.304
   8.320        157.50	    13.748
   8.340        167.50	    14.177
   8.360        142.50	    13.077
   8.380        135.00	    12.728
   8.400        160.83	    13.892
   8.420        153.33	    13.565
   8.440        157.50	    13.748
   8.460        150.83	    13.454
   8.480        158.33	    13.784
   8.500        160.00	    13.856
   8.520        162.50	    13.964
   8.540        182.50	    14.799
   8.560        143.33	    13.115
   8.580        180.00	    14.697
   8.600        169.17	    14.248
   8.620        205.00	    15.684
   8.640        177.50	    14.595
   8.660        196.67	    15.362
   8.680        207.50	    15.780
   8.700        255.00	    17.493
   8.720        240.00	    16.971
   8.740        248.33	    17.263
   8.760        318.33	    19.545
   8.780        288.33	    18.601
   8.800        409.17	    22.159
   8.820        440.00	    22.978
   8.840        544.17	    25.554
   8.860        573.33	    26.230
   8.880        564.17	    26.019
   8.900        537.50	    25.397
   8.920        443.33	    23.065
   8.940        367.50	    21.000
   8.960        273.33	    18.111
   8.980        231.67	    16.673
   9.000        193.33	    15.232
   9.020        170.00	    14.283
   9.040        140.83	    13.000
   9.060        175.00	    14.491
   9.080        151.67	    13.491
   9.100        159.17	    13.820
   9.120        143.33	    13.115
   9.140        160.00	    13.856
   9.160        160.83	    13.892
   9.180        153.33	    13.565
   9.200        159.17	    13.820
   9.220        151.67	    13.491
   9.240        145.83	    13.229
   9.260        142.50	    13.077
   9.280        150.83	    13.454
   9.300        136.67	    12.806
   9.320        126.67	    12.329
   9.340        125.83	    12.288
   9.360        145.83	    13.229
   9.380        125.00	    12.247
   9.400        142.50	    13.077
   9.420        162.50	    13.964
   9.440        165.00	    14.071
   9.460        127.50	    12.369
   9.480        149.17	    13.379
   9.500        138.33	    12.884
   9.520        133.33	    12.649
   9.540        139.17	    12.923
   9.560        133.33	    12.649
   9.580        141.67	    13.038
   9.600        154.17	    13.601
   9.620        133.33	    12.649
   9.640        130.00	    12.490
   9.660        107.50	    11.358
   9.680        115.83	    11.790
   9.700        130.00	    12.490
   9.720        123.33	    12.166
   9.740        115.83	    11.790
   9.760        140.83	    13.000
   9.780        133.33	    12.649
   9.800        135.83	    12.767
   9.820        112.50	    11.619
   9.840        100.00	    10.954
   9.860        109.17	    11.446
   9.880        127.50	    12.369
   9.900        133.33	    12.649
   9.920        108.33	    11.402
   9.940        120.83	    12.042
   9.960        120.00	    12.000
   9.980        124.17	    12.207
  10.000        126.67	    12.329
  10.020        102.50	    11.091
  10.040        110.00	    11.489
  10.060        110.83	    11.533
  10.080        109.17	    11.446
  10.100        110.83	    11.533
  10.120        109.17	    11.446
  10.140        119.17	    11.958
  10.160        118.33	    11.916
  10.180        122.50	    12.124
  10.200        120.83	    12.042
  10.220         99.17	    10.909
  10.240        119.17	    11.958
  10.260        114.17	    11.705
  10.280        118.33	    11.916
  10.300        114.17	    11.705
  10.320        115.83	    11.790
  10.340        110.83	    11.533
  10.360        104.17	    11.180
  10.380        115.83	    11.790
  10.400        106.67	    11.314
  10.420        100.00	    10.954
  10.440        119.17	    11.958
  10.460        122.50	    12.124
  10.480        142.50	    13.077
  10.500        154.17	    13.601
  10.520        174.17	    14.457
  10.540        184.17	    14.866
  10.560        129.17	    12.450
  10.580        129.17	    12.450
  10.600        121.67	    12.083
  10.620        115.00	    11.747
  10.640        122.50	    12.124
  10.660        111.67	    11.576
  10.680        102.50	    11.091
  10.700         99.17	    10.909
  10.720        115.00	    11.747
  10.740        115.00	    11.747
  10.760        119.17	    11.958
  10.780        107.50	    11.358
  10.800        110.83	    11.533
  10.820        115.83	    11.790
  10.840        112.50	    11.619
  10.860         95.00	    10.677
  10.880         95.00	    10.677
  10.900        106.67	    11.314
  10.920         95.83	    10.724
  10.940        114.17	    11.705
  10.960         85.83	    10.149
  10.980        105.83	    11.269
  11.000        123.33	    12.166
  11.020        101.67	    11.045
  11.040        100.83	    11.000
  11.060        110.83	    11.533
  11.080        125.00	    12.247
  11.100        101.67	    11.045
  11.120        101.67	    11.045
  11.140         92.50	    10.536
  11.160        107.50	    11.358
  11.180        115.83	    11.790
  11.200        101.67	    11.045
  11.220        124.17	    12.207
  11.240        109.17	    11.446
  11.260        105.83	    11.269
  11.280        135.00	    12.728
  11.300         93.33	    10.583
  11.320        107.50	    11.358
  11.340        105.00	    11.225
  11.360         92.50	    10.536
  11.380         82.50	     9.950
  11.400        100.83	    11.000
  11.420        111.67	    11.576
  11.440        108.33	    11.402
  11.460        110.00	    11.489
  11.480        109.17	    11.446
  11.500        106.67	    11.314
  11.520         86.67	    10.198
  11.540        117.50	    11.874
  11.560        115.00	    11.747
  11.580         89.17	    10.344
  11.600        100.00	    10.954
  11.620         95.00	    10.677
  11.640        103.33	    11.136
  11.660        126.67	    12.329
  11.680         90.00	    10.392
  11.700        105.83	    11.269
  11.720        120.00	    12.000
  11.740        114.17	    11.705
  11.760        113.33	    11.662
  11.780        100.00	    10.954
  11.800        108.33	    11.402
  11.820        105.00	    11.225
  11.840         93.33	    10.583
  11.860        110.00	    11.489
  11.880        102.50	    11.091
  11.900        111.67	    11.576
  11.920        125.83	    12.288
  11.940        145.00	    13.191
  11.960        120.00	    12.000
  11.980        115.00	    11.747
  12.000        132.50	    12.610
  12.020        129.17	    12.450
  12.040        130.00	    12.490
  12.060        172.50	    14.387
  12.080        226.67	    16.492
  12.100        212.50	    15.969
  12.120        270.00	    18.000
  12.140        315.83	    19.468
  12.160        387.50	    21.564
  12.180        458.33	    23.452
  12.200        451.67	    23.281
  12.220        521.67	    25.020
  12.240        450.00	    23.238
  12.260        352.50	    20.567
  12.280        263.33	    17.776
  12.300        227.50	    16.523
  12.320        197.50	    15.395
  12.340        223.33	    16.371
  12.360        224.17	    16.401
  12.380        225.83	    16.462
  12.400        225.83	    16.462
  12.420        230.00	    16.613
  12.440        260.00	    17.664
  12.460        301.67	    19.026
  12.480        300.00	    18.974
  12.500        300.83	    19.000
  12.520        245.00	    17.146
  12.540        236.67	    16.852
  12.560        185.83	    14.933
  12.580        157.50	    13.748
  12.600        152.50	    13.528
  12.620        112.50	    11.619
  12.640         98.33	    10.863
  12.660        102.50	    11.091
  12.680         93.33	    10.583
  12.700        109.17	    11.446
  12.720         97.50	    10.817
  12.740        110.00	    11.489
  12.760         97.50	    10.817
  12.780        106.67	    11.314
  12.800        102.50	    11.091
  12.820         97.50	    10.817
  12.840         99.17	    10.909
  12.860        109.17	    11.446
  12.880        100.83	    11.000
  12.900         98.33	    10.863
  12.920        111.67	    11.576
  12.940        100.00	    10.954
  12.960         91.67	    10.488
  12.980         90.83	    10.440
  13.000        108.33	    11.402
  13.020         89.17	    10.344
  13.040         88.33	    10.296
  13.060         89.17	    10.344
  13.080         94.17	    10.630
  13.100         80.83	     9.849
  13.120         97.50	    10.817
  13.140         77.50	     9.644
  13.160         97.50	    10.817
  13.180         77.50	     9.644
  13.200        102.50	    11.091
  13.220         89.17	    10.344
  13.240         75.00	     9.487
  13.260         89.17	    10.344
  13.280         92.50	    10.536
  13.300         88.33	    10.296
  13.320         95.00	    10.677
  13.340         93.33	    10.583
  13.360         76.67	     9.592
  13.380         82.50	     9.950
  13.400         98.33	    10.863
  13.420         89.17	    10.344
  13.440        100.00	    10.954
  13.460        101.67	    11.045
  13.480         84.17	    10.050
  13.500         86.67	    10.198
  13.520        103.33	    11.136
  13.540         90.00	    10.392
  13.560        100.00	    10.954
  13.580         70.83	     9.220
  13.600         98.33	    10.863
  13.620         98.33	    10.863
  13.640         96.67	    10.770
  13.660         72.50	     9.327
  13.680         73.33	     9.381
  13.700         75.83	     9.539
  13.720         90.83	    10.440
  13.740         99.17	    10.909
  13.760         95.83	    10.724
  13.780        101.67	    11.045
  13.800        121.67	    12.083
  13.820         93.33	    10.583
  13.840        106.67	    11.314
  13.860        136.67	    12.806
  13.880         97.50	    10.817
  13.900        105.83	    11.269
  13.920        102.50	    11.091
  13.940         87.50	    10.247
  13.960         86.67	    10.198
  13.980         95.00	    10.677
  14.000         90.00	    10.392
  14.020         89.17	    10.344
  14.040         75.83	     9.539
  14.060         90.83	    10.440
  14.080         90.00	    10.392
  14.100         94.17	    10.630
  14.120         69.17	     9.110
  14.140         65.83	     8.888
  14.160         85.00	    10.100
  14.180         92.50	    10.536
  14.200         85.83	    10.149
  14.220         85.83	    10.149
  14.240         85.00	    10.100
  14.260         79.17	     9.747
  14.280         70.00	     9.165
  14.300        100.83	    11.000
  14.320         87.50	    10.247
  14.340         74.17	     9.434
  14.360         76.67	     9.592
  14.380         71.67	     9.274
  14.400         82.50	     9.950
  14.420         74.17	     9.434
  14.440         77.50	     9.644
  14.460         68.33	     9.055
  14.480         93.33	    10.583
  14.500         72.50	     9.327
  14.520        102.50	    11.091
  14.540         85.00	    10.100
  14.560         93.33	    10.583
  14.580         61.67	     8.602
  14.600         75.00	     9.487
  14.620         85.00	    10.100
  14.640         76.67	     9.592
  14.660         88.33	    10.296
  14.680         79.17	     9.747
  14.700         73.33	     9.381
  14.720         75.00	     9.487
  14.740         69.17	     9.110
  14.760         74.17	     9.434
  14.780         83.33	    10.000
  14.800         65.83	     8.888
  14.820         95.00	    10.677
  14.840         75.00	     9.487
  14.860         77.50	     9.644
  14.880         80.83	     9.849
  14.900         76.67	     9.592
  14.920         81.67	     9.899
  14.940         95.00	    10.677
  14.960         75.83	     9.539
  14.980         84.17	    10.050
  15.000         87.50	    10.247
  15.020         93.33	    10.583
  15.040         82.50	     9.950
  15.060         80.00	     9.798
  15.080         98.33	    10.863
  15.100         74.17	     9.434
  15.120         73.33	     9.381
  15.140         72.50	     9.327
  15.160         76.67	     9.592
  15.180         69.17	     9.110
  15.200         80.00	     9.798
  15.220         68.33	     9.055
  15.240         68.33	     9.055
  15.260         70.83	     9.220
  15.280         70.83	     9.220
  15.300         84.17	    10.050
  15.320         79.17	     9.747
  15.340         82.50	     9.950
  15.360         70.00	     9.165
  15.380         62.50	     8.660
  15.400         75.00	     9.487
  15.420         77.50	     9.644
  15.440         73.33	     9.381
  15.460         65.83	     8.888
  15.480         75.83	     9.539
  15.500         90.00	    10.392
  15.520         70.00	     9.165
  15.540         78.33	     9.695
  15.560         77.50	     9.644
  15.580         82.50	     9.950
  15.600         63.33	     8.718
  15.620         80.00	     9.798
  15.640         65.83	     8.888
  15.660         75.00	     9.487
  15.680         80.83	     9.849
  15.700         79.17	     9.747
  15.720         74.17	     9.434
  15.740         74.17	     9.434
  15.760         74.17	     9.434
  15.780         71.67	     9.274
  15.800         70.00	     9.165
  15.820         77.50	     9.644
  15.840         73.33	     9.381
  15.860         74.17	     9.434
  15.880         83.33	    10.000
  15.900         73.33	     9.381
  15.920         67.50	     9.000
  15.940         70.83	     9.220
  15.960         75.00	     9.487
  15.980         77.50	     9.644
  16.000         72.50	     9.327
  16.020         69.17	     9.110
  16.040         70.00	     9.165
  16.060         60.00	     8.485
  16.080         62.50	     8.660
  16.100         65.00	     8.832
  16.120         65.00	     8.832
  16.140         60.83	     8.544
  16.160         74.17	     9.434
  16.180         68.33	     9.055
  16.200         74.17	     9.434
  16.220         91.67	    10.488
  16.240         77.50	     9.644
  16.260         71.67	     9.274
  16.280         65.00	     8.832
  16.300         71.67	     9.274
  16.320         74.17	     9.434
  16.340         78.33	     9.695
  16.360         74.17	     9.434
  16.380         70.00	     9.165
  16.400         82.50	     9.950
  16.420         60.00	     8.485
  16.440         70.83	     9.220
  16.460         84.17	    10.050
  16.480         59.17	     8.426
  16.500         71.67	     9.274
  16.520         67.50	     9.000
  16.540         71.67	     9.274
  16.560         77.50	     9.644
  16.580         77.50	     9.644
  16.600         87.50	    10.247
  16.620         70.83	     9.220
  16.640         82.50	     9.950
  16.660         73.33	     9.381
  16.680         65.83	     8.888
  16.700         65.83	     8.888
  16.720         78.33	     9.695
  16.740         55.83	     8.185
  16.760         94.17	    10.630
  16.780         63.33	     8.718
  16.800         75.83	     9.539
  16.820         60.83	     8.544
  16.840         76.67	     9.592
  16.860         75.00	     9.487
  16.880         66.67	     8.944
  16.900         68.33	     9.055
  16.920         71.67	     9.274
  16.940         68.33	     9.055
  16.960         72.50	     9.327
  16.980         80.83	     9.849
  17.000         67.50	     9.000
  17.020         68.33	     9.055
  17.040         65.83	     8.888
  17.060         57.50	     8.307
  17.080         69.17	     9.110
  17.100         78.33	     9.695
  17.120         79.17	     9.747
  17.140         60.83	     8.544
  17.160         77.50	     9.644
  17.180         74.17	     9.434
  17.200         71.67	     9.274
  17.220         66.67	     8.944
  17.240         65.83	     8.888
  17.260         66.67	     8.944
  17.280         58.33	     8.367
  17.300         70.00	     9.165
  17.320         66.67	     8.944
  17.340         63.33	     8.718
  17.360         79.17	     9.747
  17.380         74.17	     9.434
  17.400         70.83	     9.220
  17.420         79.17	     9.747
  17.440         82.50	     9.950
  17.460         74.17	     9.434
  17.480         80.83	     9.849
  17.500         81.67	     9.899
  17.520         63.33	     8.718
  17.540         75.83	     9.539
  17.560         80.83	     9.849
  17.580         95.83	    10.724
  17.600         64.17	     8.775
  17.620         69.17	     9.110
  17.640         85.00	    10.100
  17.660         90.00	    10.392
  17.680         79.17	     9.747
  17.700        115.83	    11.790
  17.720        127.50	    12.369
  17.740        162.50	    13.964
  17.760        158.33	    13.784
  17.780        235.83	    16.823
  17.800        210.83	    15.906
  17.820        235.83	    16.823
  17.840        205.00	    15.684
  17.860        184.17	    14.866
  17.880        143.33	    13.115
  17.900        140.00	    12.961
  17.920        105.83	    11.269
  17.940        107.50	    11.358
  17.960        109.17	    11.446
  17.980         81.67	     9.899
  18.000         76.67	     9.592
  18.020         77.50	     9.644
  18.040         74.17	     9.434
  18.060         70.83	     9.220
  18.080         79.17	     9.747
  18.100         75.83	     9.539
  18.120         82.50	     9.950
  18.140        100.83	    11.000
  18.160         70.83	     9.220
  18.180         80.00	     9.798
  18.200         65.00	     8.832
  18.220         80.00	     9.798
  18.240         80.83	     9.849
  18.260         69.17	     9.110
  18.280         84.17	    10.050
  18.300         63.33	     8.718
  18.320         66.67	     8.944
  18.340         79.17	     9.747
  18.360         67.50	     9.000
  18.380         60.83	     8.544
  18.400         79.17	     9.747
  18.420         99.17	    10.909
  18.440         90.83	    10.440
  18.460         82.50	     9.950
  18.480         81.67	     9.899
  18.500        100.83	    11.000
  18.520        107.50	    11.358
  18.540        123.33	    12.166
  18.560        105.83	    11.269
  18.580        123.33	    12.166
  18.600        117.50	    11.874
  18.620        116.67	    11.832
  18.640        101.67	    11.045
  18.660         97.50	    10.817
  18.680         91.67	    10.488
  18.700        111.67	    11.576
  18.720        126.67	    12.329
  18.740        135.83	    12.767
  18.760        167.50	    14.177
  18.780        177.50	    14.595
  18.800        140.00	    12.961
  18.820        125.00	    12.247
  18.840        106.67	    11.314
  18.860        122.50	    12.124
  18.880         80.83	     9.849
  18.900         95.00	    10.677
  18.920         79.17	     9.747
  18.940         78.33	     9.695
  18.960         78.33	     9.695
  18.980         84.17	    10.050
  19.000         80.00	     9.798
  19.020         78.33	     9.695
  19.040         72.50	     9.327
  19.060         74.17	     9.434
  19.080         70.00	     9.165
  19.100         74.17	     9.434
  19.120         76.67	     9.592
  19.140         77.50	     9.644
  19.160         82.50	     9.950
  19.180         85.00	    10.100
  19.200         57.50	     8.307
  19.220         69.17	     9.110
  19.240         70.83	     9.220
  19.260         75.00	     9.487
  19.280         59.17	     8.426
  19.300         75.83	     9.539
  19.320         83.33	    10.000
  19.340         84.17	    10.050
  19.360         80.83	     9.849
  19.380         73.33	     9.381
  19.400         68.33	     9.055
  19.420         75.83	     9.539
  19.440         89.17	    10.344
  19.460         90.83	    10.440
  19.480         90.00	    10.392
  19.500         80.83	     9.849
  19.520         78.33	     9.695
  19.540        104.17	    11.180
  19.560         70.00	     9.165
  19.580         81.67	     9.899
  19.600         75.83	     9.539
  19.620         95.83	    10.724
  19.640         99.17	    10.909
  19.660         79.17	     9.747
  19.680         91.67	    10.488
  19.700        101.67	    11.045
  19.720         85.00	    10.100
  19.740         79.17	     9.747
  19.760         90.83	    10.440
  19.780         95.83	    10.724
  19.800        111.67	    11.576
  19.820        105.83	    11.269
  19.840        108.33	    11.402
  19.860         99.17	    10.909
  19.880         91.67	    10.488
  19.900         98.33	    10.863
  19.920         91.67	    10.488
  19.940         79.17	     9.747
  19.960         85.83	    10.149
  19.980         85.00	    10.100
  20.000         92.50	    10.536
  20.020         76.67	     9.592
  20.040         74.17	     9.434
  20.060         67.50	     9.000
  20.080         83.33	    10.000
  20.100         66.67	     8.944
  20.120         98.33	    10.863
  20.140         72.50	     9.327
  20.160         79.17	     9.747
  20.180         61.67	     8.602
  20.200         80.00	     9.798
  20.220         68.33	     9.055
  20.240         74.17	     9.434
  20.260         82.50	     9.950
  20.280         66.67	     8.944
  20.300         70.00	     9.165
  20.320         64.17	     8.775
  20.340         74.17	     9.434
  20.360         72.50	     9.327
  20.380         70.83	     9.220
  20.400         80.00	     9.798
  20.420         78.33	     9.695
  20.440         55.00	     8.124
  20.460         73.33	     9.381
  20.480         75.00	     9.487
  20.500         78.33	     9.695
  20.520         69.17	     9.110
  20.540         83.33	    10.000
  20.560         74.17	     9.434
  20.580         70.00	     9.165
  20.600         84.17	    10.050
  20.620         80.83	     9.849
  20.640         97.50	    10.817
  20.660         88.33	    10.296
  20.680         88.33	    10.296
  20.700        100.83	    11.000
  20.720        109.17	    11.446
  20.740        118.33	    11.916
  20.760        180.00	    14.697
  20.780        230.00	    16.613
  20.800        360.83	    20.809
  20.820        689.17	    28.758
  20.840        766.67	    30.332
  20.860        633.33	    27.568
  20.880        575.83	    26.287
  20.900        410.83	    22.204
  20.920        304.17	    19.105
  20.940        180.00	    14.697
  20.960        145.83	    13.229
  20.980        140.83	    13.000
  21.000        129.17	    12.450
  21.020        129.17	    12.450
  21.040        112.50	    11.619
  21.060         93.33	    10.583
  21.080         88.33	    10.296
  21.100         95.83	    10.724
  21.120         75.83	     9.539
  21.140         84.17	    10.050
  21.160         88.33	    10.296
  21.180         90.00	    10.392
  21.200         76.67	     9.592
  21.220         74.17	     9.434
  21.240         81.67	     9.899
  21.260         64.17	     8.775
  21.280         66.67	     8.944
  21.300         76.67	     9.592
  21.320         78.33	     9.695
  21.340         83.33	    10.000
  21.360         54.17	     8.062
  21.380         68.33	     9.055
  21.400         58.33	     8.367
  21.420         67.50	     9.000
  21.440         78.33	     9.695
  21.460         55.83	     8.185
  21.480         70.83	     9.220
  21.500         61.67	     8.602
  21.520         64.17	     8.775
  21.540         66.67	     8.944
  21.560         74.17	     9.434
  21.580         71.67	     9.274
  21.600         65.83	     8.888
  21.620         61.67	     8.602
  21.640         74.17	     9.434
  21.660         84.17	    10.050
  21.680         73.33	     9.381
  21.700         71.67	     9.274
  21.720         80.00	     9.798
  21.740         65.00	     8.832
  21.760         63.33	     8.718
  21.780         71.67	     9.274
  21.800         85.00	    10.100
  21.820         71.67	     9.274
  21.840         61.67	     8.602
  21.860         65.83	     8.888
  21.880         65.83	     8.888
  21.900         70.83	     9.220
  21.920         78.33	     9.695
  21.940         90.00	    10.392
  21.960        127.50	    12.369
  21.980        147.50	    13.304
  22.000        180.83	    14.731
  22.020        217.50	    16.155
  22.040        212.50	    15.969
  22.060        198.33	    15.427
  22.080        186.67	    14.967
  22.100        138.33	    12.884
  22.120        132.50	    12.610
  22.140        100.00	    10.954
  22.160         90.83	    10.440
  22.180         62.50	     8.660
  22.200         76.67	     9.592
  22.220         62.50	     8.660
  22.240         59.17	     8.426
  22.260         62.50	     8.660
  22.280         88.33	    10.296
  22.300         78.33	     9.695
  22.320         62.50	     8.660
  22.340         77.50	     9.644
  22.360         81.67	     9.899
  22.380         73.33	     9.381
  22.400        107.50	    11.358
  22.420         93.33	    10.583
  22.440         85.00	    10.100
  22.460        105.83	    11.269
  22.480         86.67	    10.198
  22.500         67.50	     9.000
  22.520         87.50	    10.247
  22.540         78.33	     9.695
  22.560         74.17	     9.434
  22.580         67.50	     9.000
  22.600         76.67	     9.592
  22.620         64.17	     8.775
  22.640         62.50	     8.660
  22.660         59.17	     8.426
  22.680         73.33	     9.381
  22.700         77.50	     9.644
  22.720         86.67	    10.198
  22.740         55.00	     8.124
  22.760         60.83	     8.544
  22.780         75.83	     9.539
  22.800         61.67	     8.602
  22.820         91.67	    10.488
  22.840         80.00	     9.798
  22.860        101.67	    11.045
  22.880         78.33	     9.695
  22.900         91.67	    10.488
  22.920         92.50	    10.536
  22.940        109.17	    11.446
  22.960         88.33	    10.296
  22.980         89.17	    10.344
  23.000         94.17	    10.630
  23.020        120.00	    12.000
  23.040        114.17	    11.705
  23.060        107.50	    11.358
  23.080         90.83	    10.440
  23.100         83.33	    10.000
  23.120         71.67	     9.274
  23.140         66.67	     8.944
  23.160         65.00	     8.832
  23.180         57.50	     8.307
  23.200         76.67	     9.592
  23.220         66.67	     8.944
  23.240         71.67	     9.274
  23.260         60.83	     8.544
  23.280         66.67	     8.944
  23.300         64.17	     8.775
  23.320         69.17	     9.110
  23.340         78.33	     9.695
  23.360         74.17	     9.434
  23.380         67.50	     9.000
  23.400         78.33	     9.695
  23.420         68.33	     9.055
  23.440        100.00	    10.954
  23.460        104.17	    11.180
  23.480        125.00	    12.247
  23.500        182.50	    14.799
  23.520        211.67	    15.937
  23.540        240.00	    16.971
  23.560        185.83	    14.933
  23.580        187.50	    15.000
  23.600        154.17	    13.601
  23.620        145.00	    13.191
  23.640        116.67	    11.832
  23.660        109.17	    11.446
  23.680        111.67	    11.576
  23.700         81.67	     9.899
  23.720         89.17	    10.344
  23.740         89.17	    10.344
  23.760         78.33	     9.695
  23.780         95.83	    10.724
  23.800        100.00	    10.954
  23.820         90.83	    10.440
  23.840         75.83	     9.539
  23.860         80.83	     9.849
  23.880         67.50	     9.000
  23.900         81.67	     9.899
  23.920         97.50	    10.817
  23.940         71.67	     9.274
  23.960         91.67	    10.488
  23.980         70.83	     9.220
  24.000        105.00	    11.225
  24.020        110.00	    11.489
  24.040        100.00	    10.954
  24.060        110.83	    11.533
  24.080        103.33	    11.136
  24.100         84.17	    10.050
  24.120        110.00	    11.489
  24.140        116.67	    11.832
  24.160        111.67	    11.576
  24.180        108.33	    11.402
  24.200        129.17	    12.450
  24.220        106.67	    11.314
  24.240        110.83	    11.533
  24.260        141.67	    13.038
  24.280        140.83	    13.000
  24.300        139.17	    12.923
  24.320        150.83	    13.454
  24.340        114.17	    11.705
  24.360        130.00	    12.490
  24.380        100.83	    11.000
  24.400         97.50	    10.817
  24.420         78.33	     9.695
  24.440        104.17	    11.180
  24.460        117.50	    11.874
  24.480        166.67	    14.142
  24.500        229.17	    16.583
  24.520        323.33	    19.698
  24.540        320.83	    19.621
  24.560        365.00	    20.928
  24.580        435.83	    22.869
  24.600        625.83	    27.404
  24.620        528.33	    25.179
  24.640        397.50	    21.840
  24.660        408.33	    22.136
  24.680        361.67	    20.833
  24.700        235.83	    16.823
  24.720        175.00	    14.491
  24.740        179.17	    14.663
  24.760        143.33	    13.115
  24.780        199.17	    15.460
  24.800        156.67	    13.711
  24.820        165.83	    14.107
  24.840        165.83	    14.107
  24.860        145.00	    13.191
  24.880        117.50	    11.874
  24.900        124.17	    12.207
  24.920        106.67	    11.314
  24.940        136.67	    12.806
  24.960        111.67	    11.576
  24.980        110.00	    11.489
  25.000        136.67	    12.806
  25.020        132.50	    12.610
  25.040        145.00	    13.191
  25.060        205.00	    15.684
  25.080        220.83	    16.279
  25.100        220.83	    16.279
  25.120        258.33	    17.607
  25.140        228.33	    16.553
  25.160        244.17	    17.117
  25.180        204.17	    15.652
  25.200        205.00	    15.684
  25.220        150.00	    13.416
  25.240        149.17	    13.379
  25.260        125.00	    12.247
  25.280        116.67	    11.832
  25.300        100.83	    11.000
  25.320        121.67	    12.083
  25.340        145.00	    13.191
  25.360        110.00	    11.489
  25.380        131.67	    12.570
  25.400        123.33	    12.166
  25.420        140.00	    12.961
  25.440        149.17	    13.379
  25.460        155.00	    13.638
  25.480        187.50	    15.000
  25.500        164.17	    14.036
  25.520        176.67	    14.560
  25.540        179.17	    14.663
  25.560        142.50	    13.077
  25.580        150.00	    13.416
  25.600        120.00	    12.000
  25.620        145.00	    13.191
  25.640        141.67	    13.038
  25.660        117.50	    11.874
  25.680        115.83	    11.790
  25.700         89.17	    10.344
  25.720         94.17	    10.630
  25.740         84.17	    10.050
  25.760         95.83	    10.724
  25.780         84.17	    10.050
  25.800         79.17	     9.747
  25.820         97.50	    10.817
  25.840         80.00	     9.798
  25.860         77.50	     9.644
  25.880         80.83	     9.849
  25.900         74.17	     9.434
  25.920         70.83	     9.220
  25.940         85.00	    10.100
  25.960         84.17	    10.050
  25.980         68.33	     9.055
  26.000         82.50	     9.950
  26.020         76.67	     9.592
  26.040         69.17	     9.110
  26.060         83.33	    10.000
  26.080         80.00	     9.798
  26.100         75.00	     9.487
  26.120         70.83	     9.220
  26.140         91.67	    10.488
  26.160         92.50	    10.536
  26.180         92.50	    10.536
  26.200         91.67	    10.488
  26.220        100.00	    10.954
  26.240        105.83	    11.269
  26.260        105.83	    11.269
  26.280        116.67	    11.832
  26.300        106.67	    11.314
  26.320        129.17	    12.450
  26.340        141.67	    13.038
  26.360        176.67	    14.560
  26.380        179.17	    14.663
  26.400        184.17	    14.866
  26.420        201.67	    15.556
  26.440        217.50	    16.155
  26.460        242.50	    17.059
  26.480        287.50	    18.574
  26.500        325.83	    19.774
  26.520        446.67	    23.152
  26.540        582.50	    26.439
  26.560        935.83	    33.511
  26.580       1645.00	    44.430
  26.600       2475.83	    54.507
  26.620       3171.67	    61.693
  26.640       3504.17	    64.846
  26.660       2824.17	    58.215
  26.680       2191.67	    51.284
  26.700       1825.00	    46.797
  26.720       1496.67	    42.379
  26.740        820.00	    31.369
  26.760        546.67	    25.612
  26.780        510.83	    24.759
  26.800        498.33	    24.454
  26.820        575.00	    26.268
  26.840        640.83	    27.731
  26.860        630.83	    27.514
  26.880        545.00	    25.573
  26.900        492.50	    24.310
  26.920        450.83	    23.259
  26.940        372.50	    21.142
  26.960        296.67	    18.868
  26.980        255.83	    17.521
  27.000        200.00	    15.492
  27.020        184.17	    14.866
  27.040        202.50	    15.588
  27.060        229.17	    16.583
  27.080        209.17	    15.843
  27.100        175.83	    14.526
  27.120        169.17	    14.248
  27.140        152.50	    13.528
  27.160        132.50	    12.610
  27.180        107.50	    11.358
  27.200         96.67	    10.770
  27.220        102.50	    11.091
  27.240         96.67	    10.770
  27.260         88.33	    10.296
  27.280         90.83	    10.440
  27.300        109.17	    11.446
  27.320         98.33	    10.863
  27.340        117.50	    11.874
  27.360        123.33	    12.166
  27.380        150.00	    13.416
  27.400        210.00	    15.875
  27.420        246.67	    17.205
  27.440        260.00	    17.664
  27.460        305.83	    19.157
  27.480        327.50	    19.824
  27.500        298.33	    18.921
  27.520        276.67	    18.221
  27.540        257.50	    17.578
  27.560        191.67	    15.166
  27.580        179.17	    14.663
  27.600        145.00	    13.191
  27.620        139.17	    12.923
  27.640        153.33	    13.565
  27.660        165.00	    14.071
  27.680        177.50	    14.595
  27.700        186.67	    14.967
  27.720        180.00	    14.697
  27.740        201.67	    15.556
  27.760        210.83	    15.906
  27.780        239.17	    16.941
  27.800        251.67	    17.378
  27.820        257.50	    17.578
  27.840        288.33	    18.601
  27.860        343.33	    20.298
  27.880        400.83	    21.932
  27.900        490.00	    24.249
  27.920        638.33	    27.677
  27.940        605.00	    26.944
  27.960        502.50	    24.556
  27.980        425.83	    22.605
  28.000        360.83	    20.809
  28.020        277.50	    18.248
  28.040        205.83	    15.716
  28.060        173.33	    14.422
  28.080        190.00	    15.100
  28.100        215.00	    16.062
  28.120        198.33	    15.427
  28.140        181.67	    14.765
  28.160        180.83	    14.731
  28.180        173.33	    14.422
  28.200        160.83	    13.892
  28.220        138.33	    12.884
  28.240        132.50	    12.610
  28.260        115.00	    11.747
  28.280        119.17	    11.958
  28.300        118.33	    11.916
  28.320        123.33	    12.166
  28.340        103.33	    11.136
  28.360        105.00	    11.225
  28.380         96.67	    10.770
  28.400         95.00	    10.677
  28.420         78.33	     9.695
  28.440         75.00	     9.487
  28.460         90.83	    10.440
  28.480         82.50	     9.950
  28.500         96.67	    10.770
  28.520         99.17	    10.909
  28.540        150.83	    13.454
  28.560        154.17	    13.601
  28.580        172.50	    14.387
  28.600        189.17	    15.067
  28.620        201.67	    15.556
  28.640        220.83	    16.279
  28.660        225.83	    16.462
  28.680        189.17	    15.067
  28.700        166.67	    14.142
  28.720        160.00	    13.856
  28.740        130.00	    12.490
  28.760        108.33	    11.402
  28.780         99.17	    10.909
  28.800         93.33	    10.583
  28.820         80.83	     9.849
  28.840         72.50	     9.327
  28.860         75.00	     9.487
  28.880         80.83	     9.849
  28.900         59.17	     8.426
  28.920         76.67	     9.592
  28.940         73.33	     9.381
  28.960         57.50	     8.307
  28.980         59.17	     8.426
  29.000         53.33	     8.000
  29.020         57.50	     8.307
  29.040         55.83	     8.185
  29.060         45.83	     7.416
  29.080         55.83	     8.185
  29.100         60.00	     8.485
  29.120         45.83	     7.416
  29.140         60.00	     8.485
  29.160         50.00	     7.746
  29.180         57.50	     8.307
  29.200         50.83	     7.810
  29.220         64.17	     8.775
  29.240         60.83	     8.544
  29.260         59.17	     8.426
  29.280         54.17	     8.062
  29.300         55.83	     8.185
  29.320         46.67	     7.483
  29.340         51.67	     7.874
  29.360         53.33	     8.000
  29.380         55.00	     8.124
  29.400         55.00	     8.124
  29.420         63.33	     8.718
  29.440         75.00	     9.487
  29.460         56.67	     8.246
  29.480         59.17	     8.426
  29.500         62.50	     8.660
  29.520         53.33	     8.000
  29.540         53.33	     8.000
  29.560         70.83	     9.220
  29.580         65.00	     8.832
  29.600         67.50	     9.000
  29.620         59.17	     8.426
  29.640         66.67	     8.944
  29.660         76.67	     9.592
  29.680         65.00	     8.832
  29.700         84.17	    10.050
  29.720         88.33	    10.296
  29.740         87.50	    10.247
  29.760         88.33	    10.296
  29.780        128.33	    12.410
  29.800        127.50	    12.369
  29.820        150.83	    13.454
  29.840        152.50	    13.528
  29.860        161.67	    13.928
  29.880        160.00	    13.856
  29.900        167.50	    14.177
  29.920        135.00	    12.728
  29.940        120.00	    12.000
  29.960        115.00	    11.747
  29.980         94.17	    10.630
  30.000        106.67	    11.314
  30.020        123.33	    12.166
  30.040        103.33	    11.136
  30.060        108.33	    11.402
  30.080        106.67	    11.314
  30.100        110.83	    11.533
  30.120        115.00	    11.747
  30.140        107.50	    11.358
  30.160         98.33	    10.863
  30.180         91.67	    10.488
  30.200        101.67	    11.045
  30.220         95.83	    10.724
  30.240         95.00	    10.677
  30.260         95.00	    10.677
  30.280        111.67	    11.576
  30.300        105.00	    11.225
  30.320        115.83	    11.790
  30.340        100.00	    10.954
  30.360         96.67	    10.770
  30.380         85.00	    10.100
  30.400        101.67	    11.045
  30.420        125.83	    12.288
  30.440        150.00	    13.416
  30.460        135.83	    12.767
  30.480        140.00	    12.961
  30.500        118.33	    11.916
  30.520        110.00	    11.489
  30.540        114.17	    11.705
  30.560         93.33	    10.583
  30.580         92.50	    10.536
  30.600         70.00	     9.165
  30.620         66.67	     8.944
  30.640         73.33	     9.381
  30.660         73.33	     9.381
  30.680         83.33	    10.000
  30.700         60.00	     8.485
  30.720         72.50	     9.327
  30.740         71.67	     9.274
  30.760        100.00	    10.954
  30.780         85.00	    10.100
  30.800         94.17	    10.630
  30.820         96.67	    10.770
  30.840        102.50	    11.091
  30.860         97.50	    10.817
  30.880         89.17	    10.344
  30.900         95.83	    10.724
  30.920         90.83	    10.440
  30.940         90.00	    10.392
  30.960         70.00	     9.165
  30.980         65.00	     8.832
  31.000         68.33	     9.055
  31.020         71.67	     9.274
  31.040         73.33	     9.381
  31.060         79.17	     9.747
  31.080         97.50	    10.817
  31.100        100.00	    10.954
  31.120         99.17	    10.909
  31.140        106.67	    11.314
  31.160        124.17	    12.207
  31.180        119.17	    11.958
  31.200        130.00	    12.490
  31.220        132.50	    12.610
  31.240        139.17	    12.923
  31.260        118.33	    11.916
  31.280         88.33	    10.296
  31.300        107.50	    11.358
  31.320         93.33	    10.583
  31.340        100.83	    11.000
  31.360         90.83	    10.440
  31.380         71.67	     9.274
  31.400         68.33	     9.055
  31.420         78.33	     9.695
  31.440         67.50	     9.000
  31.460         76.67	     9.592
  31.480         78.33	     9.695
  31.500         67.50	     9.000
  31.520        102.50	    11.091
  31.540         80.83	     9.849
  31.560         84.17	    10.050
  31.580         74.17	     9.434
  31.600         82.50	     9.950
  31.620         60.83	     8.544
  31.640         65.83	     8.888
  31.660         75.83	     9.539
  31.680         71.67	     9.274
  31.700         56.67	     8.246
  31.720         62.50	     8.660
  31.740         65.00	     8.832
  31.760         73.33	     9.381
  31.780         60.83	     8.544
  31.800         54.17	     8.062
  31.820         56.67	     8.246
  31.840         70.00	     9.165
  31.860         52.50	     7.937
  31.880         60.00	     8.485
  31.900         52.50	     7.937
  31.920         65.00	     8.832
  31.940         65.83	     8.888
  31.960         72.50	     9.327
  31.980         63.33	     8.718
  32.000         87.50	    10.247
  32.020        100.83	    11.000
  32.040         78.33	     9.695
  32.060         93.33	    10.583
  32.080         90.83	    10.440
  32.100         85.83	    10.149
  32.120         85.00	    10.100
  32.140         63.33	     8.718
  32.160         71.67	     9.274
  32.180         68.33	     9.055
  32.200         59.17	     8.426
  32.220         65.00	     8.832
  32.240         50.83	     7.810
  32.260         60.83	     8.544
  32.280         63.33	     8.718
  32.300         68.33	     9.055
  32.320         54.17	     8.062
  32.340         58.33	     8.367
  32.360         53.33	     8.000
  32.380         67.50	     9.000
  32.400         43.33	     7.211
  32.420         48.33	     7.616
  32.440         52.50	     7.937
  32.460         44.17	     7.280
  32.480         40.83	     7.000
  32.500         40.83	     7.000
  32.520         45.00	     7.348
  32.540         45.00	     7.348
  32.560         53.33	     8.000
  32.580         47.50	     7.550
  32.600         59.17	     8.426
  32.620         50.83	     7.810
  32.640         45.83	     7.416
  32.660         57.50	     8.307
  32.680         42.50	     7.141
  32.700         55.83	     8.185
  32.720         76.67	     9.592
  32.740        106.67	    11.314
  32.760        136.67	    12.806
  32.780        105.83	    11.269
  32.800         94.17	    10.630
  32.820         80.00	     9.798
  32.840         94.17	    10.630
  32.860         90.83	    10.440
  32.880         67.50	     9.000
  32.900         60.00	     8.485
  32.920         62.50	     8.660
  32.940         63.33	     8.718
  32.960         95.00	    10.677
  32.980         99.17	    10.909
  33.000         86.67	    10.198
  33.020        112.50	    11.619
  33.040        136.67	    12.806
  33.060        124.17	    12.207
  33.080        115.00	    11.747
  33.100         90.00	    10.392
  33.120         75.00	     9.487
  33.140         75.00	     9.487
  33.160         70.00	     9.165
  33.180         77.50	     9.644
  33.200         64.17	     8.775
  33.220         49.17	     7.681
  33.240         50.00	     7.746
  33.260         56.67	     8.246
  33.280         53.33	     8.000
  33.300         59.17	     8.426
  33.320         56.67	     8.246
  33.340         43.33	     7.211
  33.360         55.83	     8.185
  33.380         54.17	     8.062
  33.400         48.33	     7.616
  33.420         45.83	     7.416
  33.440         60.00	     8.485
  33.460         55.00	     8.124
  33.480         44.17	     7.280
  33.500         54.17	     8.062
  33.520         55.83	     8.185
  33.540         54.17	     8.062
  33.560         46.67	     7.483
  33.580         50.00	     7.746
  33.600         46.67	     7.483
  33.620         45.00	     7.348
  33.640         50.00	     7.746
  33.660         40.83	     7.000
  33.680         40.00	     6.928
  33.700         42.50	     7.141
  33.720         56.67	     8.246
  33.740         59.17	     8.426
  33.760         55.00	     8.124
  33.780         57.50	     8.307
  33.800         63.33	     8.718
  33.820         55.83	     8.185
  33.840         65.00	     8.832
  33.860         55.00	     8.124
  33.880         68.33	     9.055
  33.900         80.83	     9.849
  33.920         70.00	     9.165
  33.940         84.17	    10.050
  33.960         71.67	     9.274
  33.980         67.50	     9.000
  34.000         69.17	     9.110
  34.020         80.83	     9.849
  34.040         71.67	     9.274
  34.060         80.83	     9.849
  34.080         63.33	     8.718
  34.100         76.67	     9.592
  34.120         68.33	     9.055
  34.140         71.67	     9.274
  34.160         76.67	     9.592
  34.180         67.50	     9.000
  34.200         68.33	     9.055
  34.220         60.00	     8.485
  34.240         75.83	     9.539
  34.260         97.50	    10.817
  34.280         80.83	     9.849
  34.300         84.17	    10.050
  34.320         81.67	     9.899
  34.340        105.00	    11.225
  34.360         70.00	     9.165
  34.380         91.67	    10.488
  34.400         93.33	    10.583
  34.420        100.00	    10.954
  34.440         95.83	    10.724
  34.460        107.50	    11.358
  34.480        105.83	    11.269
  34.500        132.50	    12.610
  34.520        146.67	    13.266
  34.540        153.33	    13.565
  34.560        123.33	    12.166
  34.580        146.67	    13.266
  34.600        140.83	    13.000
  34.620        119.17	    11.958
  34.640        105.00	    11.225
  34.660         97.50	    10.817
  34.680        100.83	    11.000
  34.700         95.83	    10.724
  34.720         83.33	    10.000
  34.740         96.67	    10.770
  34.760         88.33	    10.296
  34.780         90.00	    10.392
  34.800         89.17	    10.344
  34.820        100.00	    10.954
  34.840        121.67	    12.083
  34.860        115.83	    11.790
  34.880        125.83	    12.288
  34.900        144.17	    13.153
  34.920        140.83	    13.000
  34.940        188.33	    15.033
  34.960        177.50	    14.595
  34.980        141.67	    13.038
  35.000        130.83	    12.530
  35.020        147.50	    13.304
  35.040        137.50	    12.845
  35.060        125.83	    12.288
  35.080         90.83	    10.440
  35.100        115.00	    11.747
  35.120        123.33	    12.166
  35.140         95.83	    10.724
  35.160         90.83	    10.440
  35.180         99.17	    10.909
  35.200         80.00	     9.798
  35.220         78.33	     9.695
  35.240         80.83	     9.849
  35.260         85.83	    10.149
  35.280         75.83	     9.539
  35.300         99.17	    10.909
  35.320         88.33	    10.296
  35.340         78.33	     9.695
  35.360        103.33	    11.136
  35.380         92.50	    10.536
  35.400        100.00	    10.954
  35.420        100.00	    10.954
  35.440        117.50	    11.874
  35.460        125.00	    12.247
  35.480        134.17	    12.689
  35.500        131.67	    12.570
  35.520        141.67	    13.038
  35.540        151.67	    13.491
  35.560        151.67	    13.491
  35.580        125.83	    12.288
  35.600        133.33	    12.649
  35.620        120.83	    12.042
  35.640        113.33	    11.662
  35.660         90.83	    10.440
  35.680         97.50	    10.817
  35.700        115.00	    11.747
  35.720         90.00	    10.392
  35.740         78.33	     9.695
  35.760         80.83	     9.849
  35.780         73.33	     9.381
  35.800         82.50	     9.950
  35.820         68.33	     9.055
  35.840         75.83	     9.539
  35.860         70.83	     9.220
  35.880         73.33	     9.381
  35.900         87.50	    10.247
  35.920         79.17	     9.747
  35.940         70.00	     9.165
  35.960         82.50	     9.950
  35.980         92.50	    10.536
  36.000         84.17	    10.050
  36.020         97.50	    10.817
  36.040         88.33	    10.296
  36.060         97.50	    10.817
  36.080         88.33	    10.296
  36.100         86.67	    10.198
  36.120         74.17	     9.434
  36.140         64.17	     8.775
  36.160         87.50	    10.247
  36.180         76.67	     9.592
  36.200         70.83	     9.220
  36.220         80.00	     9.798
  36.240         75.00	     9.487
  36.260         50.83	     7.810
  36.280         69.17	     9.110
  36.300         58.33	     8.367
  36.320         60.00	     8.485
  36.340         80.00	     9.798
  36.360         75.83	     9.539
  36.380         61.67	     8.602
  36.400         91.67	    10.488
  36.420         96.67	    10.770
  36.440        115.00	    11.747
  36.460        179.17	    14.663
  36.480        215.00	    16.062
  36.500        286.67	    18.547
  36.520        315.83	    19.468
  36.540        348.33	    20.445
  36.560        354.17	    20.616
  36.580        290.83	    18.682
  36.600        240.83	    17.000
  36.620        204.17	    15.652
  36.640        226.67	    16.492
  36.660        191.67	    15.166
  36.680        163.33	    14.000
  36.700        118.33	    11.916
  36.720        102.50	    11.091
  36.740         99.17	    10.909
  36.760         90.83	    10.440
  36.780         82.50	     9.950
  36.800         85.00	    10.100
  36.820         78.33	     9.695
  36.840         71.67	     9.274
  36.860         66.67	     8.944
  36.880         48.33	     7.616
  36.900         64.17	     8.775
  36.920         71.67	     9.274
  36.940         62.50	     8.660
  36.960         69.17	     9.110
  36.980         71.67	     9.274
  37.000         58.33	     8.367
  37.020         73.33	     9.381
  37.040         58.33	     8.367
  37.060         51.67	     7.874
  37.080         63.33	     8.718
  37.100         56.67	     8.246
  37.120         78.33	     9.695
  37.140         57.50	     8.307
  37.160         53.33	     8.000
  37.180         70.00	     9.165
  37.200         63.33	     8.718
  37.220         65.83	     8.888
  37.240         70.00	     9.165
  37.260         68.33	     9.055
  37.280         60.00	     8.485
  37.300         67.50	     9.000
  37.320         68.33	     9.055
  37.340         63.33	     8.718
  37.360         69.17	     9.110
  37.380         75.83	     9.539
  37.400         71.67	     9.274
  37.420        102.50	    11.091
  37.440         82.50	     9.950
  37.460         90.83	    10.440
  37.480         81.67	     9.899
  37.500         88.33	    10.296
  37.520         88.33	    10.296
  37.540         93.33	    10.583
  37.560        112.50	    11.619
  37.580         96.67	    10.770
  37.600         85.83	    10.149
  37.620        100.83	    11.000
  37.640         96.67	    10.770
  37.660        116.67	    11.832
  37.680        103.33	    11.136
  37.700         83.33	    10.000
  37.720         89.17	    10.344
  37.740         95.83	    10.724
  37.760         65.83	     8.888
  37.780         81.67	     9.899
  37.800         70.83	     9.220
  37.820         48.33	     7.616
  37.840         56.67	     8.246
  37.860         56.67	     8.246
  37.880         59.17	     8.426
  37.900         45.83	     7.416
  37.920         54.17	     8.062
  37.940         45.83	     7.416
  37.960         52.50	     7.937
  37.980         54.17	     8.062
  38.000         40.83	     7.000
  38.020         38.33	     6.782
  38.040         43.33	     7.211
  38.060         57.50	     8.307
  38.080         50.00	     7.746
  38.100         41.67	     7.071
  38.120         50.00	     7.746
  38.140         43.33	     7.211
  38.160         46.67	     7.483
  38.180         50.00	     7.746
  38.200         45.00	     7.348
  38.220         36.67	     6.633
  38.240         45.00	     7.348
  38.260         53.33	     8.000
  38.280         56.67	     8.246
  38.300         47.50	     7.550
  38.320         55.00	     8.124
  38.340         42.50	     7.141
  38.360         48.33	     7.616
  38.380         54.17	     8.062
  38.400         45.83	     7.416
  38.420         57.50	     8.307
  38.440         48.33	     7.616
  38.460         55.00	     8.124
  38.480         46.67	     7.483
  38.500         43.33	     7.211
  38.520         55.83	     8.185
  38.540         62.50	     8.660
  38.560         52.50	     7.937
  38.580         55.00	     8.124
  38.600         58.33	     8.367
  38.620         60.83	     8.544
  38.640         47.50	     7.550
  38.660         56.67	     8.246
  38.680         44.17	     7.280
  38.700         60.83	     8.544
  38.720         49.17	     7.681
  38.740         46.67	     7.483
  38.760         64.17	     8.775
  38.780         55.83	     8.185
  38.800         50.00	     7.746
  38.820         46.67	     7.483
  38.840         50.00	     7.746
  38.860         45.83	     7.416
  38.880         51.67	     7.874
  38.900         59.17	     8.426
  38.920         54.17	     8.062
  38.940         43.33	     7.211
  38.960         60.83	     8.544
  38.980         53.33	     8.000
  39.000         46.67	     7.483
  39.020         55.00	     8.124
  39.040         60.83	     8.544
  39.060         55.83	     8.185
  39.080         54.17	     8.062
  39.100         55.00	     8.124
  39.120         48.33	     7.616
  39.140         45.00	     7.348
  39.160         43.33	     7.211
  39.180         49.17	     7.681
  39.200         59.17	     8.426
  39.220         54.17	     8.062
  39.240         40.00	     6.928
  39.260         53.33	     8.000
  39.280         54.17	     8.062
  39.300         61.67	     8.602
  39.320         66.67	     8.944
  39.340         65.83	     8.888
  39.360         80.83	     9.849
  39.380        133.33	    12.649
  39.400        151.67	    13.491
  39.420        222.50	    16.340
  39.440        285.83	    18.520
  39.460        270.00	    18.000
  39.480        220.83	    16.279
  39.500        164.17	    14.036
  39.520        167.50	    14.177
  39.540        160.00	    13.856
  39.560        176.67	    14.560
  39.580        119.17	    11.958
  39.600         87.50	    10.247
  39.620         80.83	     9.849
  39.640         72.50	     9.327
  39.660         56.67	     8.246
  39.680         65.83	     8.888
  39.700         82.50	     9.950
  39.720         71.67	     9.274
  39.740         63.33	     8.718
  39.760         59.17	     8.426
  39.780         75.83	     9.539
  39.800         55.00	     8.124
  39.820         72.50	     9.327
  39.840         60.83	     8.544
  39.860         57.50	     8.307
  39.880         55.00	     8.124
  39.900         56.67	     8.246
  39.920         47.50	     7.550
  39.940         60.00	     8.485
  39.960         64.17	     8.775
  39.980         56.67	     8.246
  40.000         62.50	     8.660
  40.020         56.67	     8.246
  40.040         60.83	     8.544
  40.060         52.50	     7.937
  40.080         68.33	     9.055
  40.100         64.17	     8.775
  40.120         65.83	     8.888
  40.140         50.83	     7.810
  40.160         58.33	     8.367
  40.180         77.50	     9.644
  40.200         95.83	    10.724
  40.220        137.50	    12.845
  40.240        129.17	    12.450
  40.260        164.17	    14.036
  40.280        169.17	    14.248
  40.300        129.17	    12.450
  40.320        106.67	    11.314
  40.340        106.67	    11.314
  40.360        120.83	    12.042
  40.380        115.83	    11.790
  40.400         91.67	    10.488
  40.420         80.83	     9.849
  40.440         50.00	     7.746
  40.460         65.83	     8.888
  40.480         54.17	     8.062
  40.500         41.67	     7.071
  40.520         51.67	     7.874
  40.540         60.83	     8.544
  40.560         45.83	     7.416
  40.580         45.00	     7.348
  40.600         46.67	     7.483
  40.620         57.50	     8.307
  40.640         39.17	     6.856
  40.660         58.33	     8.367
  40.680         46.67	     7.483
  40.700         40.83	     7.000
  40.720         54.17	     8.062
  40.740         60.00	     8.485
  40.760         45.00	     7.348
  40.780         68.33	     9.055
  40.800         46.67	     7.483
  40.820         65.83	     8.888
  40.840         53.33	     8.000
  40.860         58.33	     8.367
  40.880         59.17	     8.426
  40.900         56.67	     8.246
  40.920         65.00	     8.832
  40.940         47.50	     7.550
  40.960         52.50	     7.937
  40.980         61.67	     8.602
  41.000         50.00	     7.746
  41.020         57.50	     8.307
  41.040         56.67	     8.246
  41.060         56.67	     8.246
  41.080         59.17	     8.426
  41.100         75.00	     9.487
  41.120         80.83	     9.849
  41.140         97.50	    10.817
  41.160         99.17	    10.909
  41.180         58.33	     8.367
  41.200         71.67	     9.274
  41.220         93.33	    10.583
  41.240         98.33	    10.863
  41.260         99.17	    10.909
  41.280         69.17	     9.110
  41.300         73.33	     9.381
  41.320         53.33	     8.000
  41.340         56.67	     8.246
  41.360         70.83	     9.220
  41.380         75.00	     9.487
  41.400         51.67	     7.874
  41.420         56.67	     8.246
  41.440         50.00	     7.746
  41.460         65.83	     8.888
  41.480         50.00	     7.746
  41.500         74.17	     9.434
  41.520         50.00	     7.746
  41.540         55.00	     8.124
  41.560         62.50	     8.660
  41.580         69.17	     9.110
  41.600        101.67	    11.045
  41.620         83.33	    10.000
  41.640        112.50	    11.619
  41.660        124.17	    12.207
  41.680        133.33	    12.649
  41.700        145.83	    13.229
  41.720        146.67	    13.266
  41.740        130.00	    12.490
  41.760        118.33	    11.916
  41.780        114.17	    11.705
  41.800        139.17	    12.923
  41.820        140.83	    13.000
  41.840        140.00	    12.961
  41.860         84.17	    10.050
  41.880         90.00	    10.392
  41.900         83.33	    10.000
  41.920         88.33	    10.296
  41.940         97.50	    10.817
  41.960         82.50	     9.950
  41.980         87.50	    10.247
  42.000         73.33	     9.381
  42.020         75.83	     9.539
  42.040         74.17	     9.434
  42.060         64.17	     8.775
  42.080         68.33	     9.055
  42.100         76.67	     9.592
  42.120         62.50	     8.660
  42.140         55.00	     8.124
  42.160         66.67	     8.944
  42.180         73.33	     9.381
  42.200         64.17	     8.775
  42.220         66.67	     8.944
  42.240         66.67	     8.944
  42.260         70.00	     9.165
  42.280         86.67	    10.198
  42.300         76.67	     9.592
  42.320        119.17	    11.958
  42.340        104.17	    11.180
  42.360        147.50	    13.304
  42.380        204.17	    15.652
  42.400        243.33	    17.088
  42.420        265.83	    17.861
  42.440        216.67	    16.125
  42.460        158.33	    13.784
  42.480        151.67	    13.491
  42.500        156.67	    13.711
  42.520        191.67	    15.166
  42.540        167.50	    14.177
  42.560        141.67	    13.038
  42.580        114.17	    11.705
  42.600        116.67	    11.832
  42.620         80.83	     9.849
  42.640         95.83	    10.724
  42.660         92.50	    10.536
  42.680         87.50	    10.247
  42.700         79.17	     9.747
  42.720         86.67	    10.198
  42.740         81.67	     9.899
  42.760         79.17	     9.747
  42.780         84.17	    10.050
  42.800         83.33	    10.000
  42.820         92.50	    10.536
  42.840         87.50	    10.247
  42.860         80.83	     9.849
  42.880         95.00	    10.677
  42.900         76.67	     9.592
  42.920        100.83	    11.000
  42.940         87.50	    10.247
  42.960         81.67	     9.899
  42.980         80.83	     9.849
  43.000         92.50	    10.536
  43.020         82.50	     9.950
  43.040         85.00	    10.100
  43.060         88.33	    10.296
  43.080         95.00	    10.677
  43.100         90.83	    10.440
  43.120        100.83	    11.000
  43.140        110.83	    11.533
  43.160        107.50	    11.358
  43.180        127.50	    12.369
  43.200        112.50	    11.619
  43.220        132.50	    12.610
  43.240        131.67	    12.570
  43.260        151.67	    13.491
  43.280        148.33	    13.342
  43.300        163.33	    14.000
  43.320        189.17	    15.067
  43.340        185.00	    14.900
  43.360        199.17	    15.460
  43.380        195.83	    15.330
  43.400        191.67	    15.166
  43.420        195.00	    15.297
  43.440        255.00	    17.493
  43.460        231.67	    16.673
  43.480        204.17	    15.652
  43.500        236.67	    16.852
  43.520        230.83	    16.643
  43.540        233.33	    16.733
  43.560        210.83	    15.906
  43.580        215.83	    16.093
  43.600        181.67	    14.765
  43.620        186.67	    14.967
  43.640        174.17	    14.457
  43.660        170.00	    14.283
  43.680        167.50	    14.177
  43.700        159.17	    13.820
  43.720        145.83	    13.229
  43.740        130.00	    12.490
  43.760        126.67	    12.329
  43.780        155.83	    13.675
  43.800        129.17	    12.450
  43.820        118.33	    11.916
  43.840        103.33	    11.136
  43.860        119.17	    11.958
  43.880        104.17	    11.180
  43.900        105.00	    11.225
  43.920         95.83	    10.724
  43.940         86.67	    10.198
  43.960         98.33	    10.863
  43.980         85.00	    10.100
  44.000        100.00	    10.954
  44.020         89.17	    10.344
  44.040         80.83	     9.849
  44.060         77.50	     9.644
  44.080         91.67	    10.488
  44.100         80.83	     9.849
  44.120         68.33	     9.055
  44.140         72.50	     9.327
  44.160         85.00	    10.100
  44.180         61.67	     8.602
  44.200         73.33	     9.381
  44.220         63.33	     8.718
  44.240         54.17	     8.062
  44.260         67.50	     9.000
  44.280         79.17	     9.747
  44.300         80.00	     9.798
  44.320         55.83	     8.185
  44.340         47.50	     7.550
  44.360         55.00	     8.124
  44.380         49.17	     7.681
  44.400         45.00	     7.348
  44.420         53.33	     8.000
  44.440         55.83	     8.185
  44.460         52.50	     7.937
  44.480         50.83	     7.810
  44.500         40.83	     7.000
  44.520         50.83	     7.810
  44.540         47.50	     7.550
  44.560         45.83	     7.416
  44.580         58.33	     8.367
  44.600         46.67	     7.483
  44.620         48.33	     7.616
  44.640         66.67	     8.944
  44.660         66.67	     8.944
  44.680         60.00	     8.485
  44.700         58.33	     8.367
  44.720         52.50	     7.937
  44.740         61.67	     8.602
  44.760         56.67	     8.246
  44.780         56.67	     8.246
  44.800         67.50	     9.000
  44.820         59.17	     8.426
  44.840         75.00	     9.487
  44.860         60.00	     8.485
  44.880         73.33	     9.381
  44.900         92.50	    10.536
  44.920         82.50	     9.950
  44.940         89.17	    10.344
  44.960         91.67	    10.488
  44.980         75.83	     9.539
  45.000         85.00	    10.100
  45.020         81.67	     9.899
  45.040         76.67	     9.592
  45.060         84.17	    10.050
  45.080         80.83	     9.849
  45.100         92.50	    10.536
  45.120         80.00	     9.798
  45.140         68.33	     9.055
  45.160         72.50	     9.327
  45.180         67.50	     9.000
  45.200         74.17	     9.434
  45.220         65.00	     8.832
  45.240         77.50	     9.644
  45.260         60.83	     8.544
  45.280         72.50	     9.327
  45.300         78.33	     9.695
  45.320         80.83	     9.849
  45.340         83.33	    10.000
  45.360         95.83	    10.724
  45.380         94.17	    10.630
  45.400        118.33	    11.916
  45.420        125.83	    12.288
  45.440        137.50	    12.845
  45.460        170.83	    14.318
  45.480        185.00	    14.900
  45.500        175.00	    14.491
  45.520        186.67	    14.967
  45.540        193.33	    15.232
  45.560        184.17	    14.866
  45.580        178.33	    14.629
  45.600        186.67	    14.967
  45.620        181.67	    14.765
  45.640        149.17	    13.379
  45.660        128.33	    12.410
  45.680        124.17	    12.207
  45.700        145.83	    13.229
  45.720        142.50	    13.077
  45.740        139.17	    12.923
  45.760        157.50	    13.748
  45.780        155.83	    13.675
  45.800        126.67	    12.329
  45.820         97.50	    10.817
  45.840         96.67	    10.770
  45.860         93.33	    10.583
  45.880         91.67	    10.488
  45.900        100.00	    10.954
  45.920         81.67	     9.899
  45.940         70.00	     9.165
  45.960         63.33	     8.718
  45.980         61.67	     8.602
  46.000         73.33	     9.381
  46.020         67.50	     9.000
  46.040         51.67	     7.874
  46.060         67.50	     9.000
  46.080         52.50	     7.937
  46.100         53.33	     8.000
  46.120         65.00	     8.832
  46.140         50.83	     7.810
  46.160         43.33	     7.211
  46.180         55.83	     8.185
  46.200         34.17	     6.403
  46.220         46.67	     7.483
  46.240         51.67	     7.874
  46.260         43.33	     7.211
  46.280         39.17	     6.856
  46.300         32.50	     6.245
  46.320         45.00	     7.348
  46.340         41.67	     7.071
  46.360         38.33	     6.782
  46.380         44.17	     7.280
  46.400         33.33	     6.325
  46.420         49.17	     7.681
  46.440         50.83	     7.810
  46.460         47.50	     7.550
  46.480         51.67	     7.874
  46.500         39.17	     6.856
  46.520         40.00	     6.928
  46.540         35.83	     6.557
  46.560         46.67	     7.483
  46.580         43.33	     7.211
  46.600         45.00	     7.348
  46.620         54.17	     8.062
  46.640         45.00	     7.348
  46.660         38.33	     6.782
  46.680         45.00	     7.348
  46.700         39.17	     6.856
  46.720         47.50	     7.550
  46.740         43.33	     7.211
  46.760         30.00	     6.000
  46.780         37.50	     6.708
  46.800         30.83	     6.083
  46.820         46.67	     7.483
  46.840         45.00	     7.348
  46.860         38.33	     6.782
  46.880         51.67	     7.874
  46.900         40.00	     6.928
  46.920         41.67	     7.071
  46.940         50.00	     7.746
  46.960         46.67	     7.483
  46.980         55.83	     8.185
  47.000         52.50	     7.937
  47.020         45.00	     7.348
  47.040         59.17	     8.426
  47.060         72.50	     9.327
  47.080         65.00	     8.832
  47.100         57.50	     8.307
  47.120         61.67	     8.602
  47.140         49.17	     7.681
  47.160         55.00	     8.124
  47.180         48.33	     7.616
  47.200         50.00	     7.746
  47.220         63.33	     8.718
  47.240         47.50	     7.550
  47.260         44.17	     7.280
  47.280         47.50	     7.550
  47.300         41.67	     7.071
  47.320         39.17	     6.856
  47.340         38.33	     6.782
  47.360         27.50	     5.745
  47.380         30.83	     6.083
  47.400         52.50	     7.937
  47.420         45.83	     7.416
  47.440         47.50	     7.550
  47.460         32.50	     6.245
  47.480         28.33	     5.831
  47.500         35.83	     6.557
  47.520         41.67	     7.071
  47.540         40.00	     6.928
  47.560         40.00	     6.928
  47.580         42.50	     7.141
  47.600         33.33	     6.325
  47.620         43.33	     7.211
  47.640         46.67	     7.483
  47.660         41.67	     7.071
  47.680         29.17	     5.916
  47.700         34.17	     6.403
  47.720         38.33	     6.782
  47.740         43.33	     7.211
  47.760         33.33	     6.325
  47.780         38.33	     6.782
  47.800         44.17	     7.280
  47.820         41.67	     7.071
  47.840         50.83	     7.810
  47.860         46.67	     7.483
  47.880         49.17	     7.681
  47.900         58.33	     8.367
  47.920         45.83	     7.416
  47.940         52.50	     7.937
  47.960         61.67	     8.602
  47.980         46.67	     7.483
  48.000         50.83	     7.810
  48.020         60.00	     8.485
  48.040         62.50	     8.660
  48.060         60.83	     8.544
  48.080         66.67	     8.944
  48.100         76.67	     9.592
  48.120         60.00	     8.485
  48.140         69.17	     9.110
  48.160         60.00	     8.485
  48.180         60.83	     8.544
  48.200         60.00	     8.485
  48.220         79.17	     9.747
  48.240         80.83	     9.849
  48.260         85.83	    10.149
  48.280         89.17	    10.344
  48.300         90.00	    10.392
  48.320         89.17	    10.344
  48.340         60.00	     8.485
  48.360         68.33	     9.055
  48.380         92.50	    10.536
  48.400         87.50	    10.247
  48.420         54.17	     8.062
  48.440         56.67	     8.246
  48.460         64.17	     8.775
  48.480         55.00	     8.124
  48.500         59.17	     8.426
  48.520         58.33	     8.367
  48.540         57.50	     8.307
  48.560         55.83	     8.185
  48.580         40.83	     7.000
  48.600         64.17	     8.775
  48.620         60.00	     8.485
  48.640         59.17	     8.426
  48.660         50.83	     7.810
  48.680         50.00	     7.746
  48.700         46.67	     7.483
  48.720         40.00	     6.928
  48.740         42.50	     7.141
  48.760         50.00	     7.746
  48.780         50.00	     7.746
  48.800         49.17	     7.681
  48.820         58.33	     8.367
  48.840         60.83	     8.544
  48.860         53.33	     8.000
  48.880         45.83	     7.416
  48.900         59.17	     8.426
  48.920         46.67	     7.483
  48.940         54.17	     8.062
  48.960         56.67	     8.246
  48.980         46.67	     7.483
  49.000         47.50	     7.550
  49.020         58.33	     8.367
  49.040         55.00	     8.124
  49.060         54.17	     8.062
  49.080         61.67	     8.602
  49.100         69.17	     9.110
  49.120        103.33	    11.136
  49.140        175.83	    14.526
  49.160        190.83	    15.133
  49.180        143.33	    13.115
  49.200        114.17	    11.705
  49.220         90.00	    10.392
  49.240         88.33	    10.296
  49.260         95.00	    10.677
  49.280        114.17	    11.705
  49.300        125.00	    12.247
  49.320        102.50	    11.091
  49.340         71.67	     9.274
  49.360         64.17	     8.775
  49.380         66.67	     8.944
  49.400         53.33	     8.000
  49.420         58.33	     8.367
  49.440         61.67	     8.602
  49.460         54.17	     8.062
  49.480         45.00	     7.348
  49.500         55.83	     8.185
  49.520         56.67	     8.246
  49.540         65.83	     8.888
  49.560         67.50	     9.000
  49.580         67.50	     9.000
  49.600         58.33	     8.367
  49.620         60.83	     8.544
  49.640         65.83	     8.888
  49.660         86.67	    10.198
  49.680         69.17	     9.110
  49.700         66.67	     8.944
  49.720         65.83	     8.888
  49.740         79.17	     9.747
  49.760         82.50	     9.950
  49.780         65.00	     8.832
  49.800         86.67	    10.198
  49.820         88.33	    10.296
  49.840         91.67	    10.488
  49.860         84.17	    10.050
  49.880        106.67	    11.314
  49.900        113.33	    11.662
  49.920         96.67	    10.770
  49.940         93.33	    10.583
  49.960         95.00	    10.677
  49.980        100.83	    11.000
  50.000        118.33	    11.916
  50.020        122.50	    12.124
  50.040        185.00	    14.900
  50.060        257.50	    17.578
  50.080        333.33	    20.000
  50.100        465.00	    23.622
  50.120        457.50	    23.431
  50.140        331.67	    19.950
  50.160        211.67	    15.937
  50.180        171.67	    14.353
  50.200        213.33	    16.000
  50.220        255.00	    17.493
  50.240        270.83	    18.028
  50.260        275.83	    18.193
  50.280        197.50	    15.395
  50.300        125.83	    12.288
  50.320        116.67	    11.832
  50.340        115.83	    11.790
  50.360        100.00	    10.954
  50.380        100.83	    11.000
  50.400        101.67	    11.045
  50.420         84.17	    10.050
  50.440        100.00	    10.954
  50.460        107.50	    11.358
  50.480        112.50	    11.619
  50.500        118.33	    11.916
  50.520        114.17	    11.705
  50.540        130.83	    12.530
  50.560        134.17	    12.689
  50.580        145.83	    13.229
  50.600        110.00	    11.489
  50.620        119.17	    11.958
  50.640         99.17	    10.909
  50.660        115.83	    11.790
  50.680        121.67	    12.083
  50.700        116.67	    11.832
  50.720        108.33	    11.402
  50.740        100.83	    11.000
  50.760        100.83	    11.000
  50.780         86.67	    10.198
  50.800         86.67	    10.198
  50.820         76.67	     9.592
  50.840         79.17	     9.747
  50.860         65.83	     8.888
  50.880         80.83	     9.849
  50.900         60.00	     8.485
  50.920         59.17	     8.426
  50.940         58.33	     8.367
  50.960         47.50	     7.550
  50.980         54.17	     8.062
  51.000         47.50	     7.550
  51.020         48.33	     7.616
  51.040         69.17	     9.110
  51.060         70.83	     9.220
  51.080         80.83	     9.849
  51.100         67.50	     9.000
  51.120         89.17	    10.344
  51.140         89.17	    10.344
  51.160         69.17	     9.110
  51.180         63.33	     8.718
  51.200         65.83	     8.888
  51.220         72.50	     9.327
  51.240         76.67	     9.592
  51.260         57.50	     8.307
  51.280         62.50	     8.660
  51.300         55.83	     8.185
  51.320         63.33	     8.718
  51.340         58.33	     8.367
  51.360         49.17	     7.681
  51.380         51.67	     7.874
  51.400         63.33	     8.718
  51.420         45.83	     7.416
  51.440         36.67	     6.633
  51.460         44.17	     7.280
  51.480         35.83	     6.557
  51.500         40.83	     7.000
  51.520         41.67	     7.071
  51.540         38.33	     6.782
  51.560         41.67	     7.071
  51.580         43.33	     7.211
  51.600         40.00	     6.928
  51.620         35.83	     6.557
  51.640         42.50	     7.141
  51.660         52.50	     7.937
  51.680         26.67	     5.657
  51.700         33.33	     6.325
  51.720         37.50	     6.708
  51.740         55.00	     8.124
  51.760         41.67	     7.071
  51.780         31.67	     6.164
  51.800         40.00	     6.928
  51.820         35.00	     6.481
  51.840         30.83	     6.083
  51.860         43.33	     7.211
  51.880         38.33	     6.782
  51.900         42.50	     7.141
  51.920         46.67	     7.483
  51.940         29.17	     5.916
  51.960         35.83	     6.557
  51.980         42.50	     7.141
  52.000         40.83	     7.000
  52.020         35.00	     6.481
  52.040         53.33	     8.000
  52.060         45.00	     7.348
  52.080         50.00	     7.746
  52.100         55.83	     8.185
  52.120         59.17	     8.426
  52.140         64.17	     8.775
  52.160         55.00	     8.124
  52.180         51.67	     7.874
  52.200         49.17	     7.681
  52.220         40.00	     6.928
  52.240         55.83	     8.185
  52.260         55.00	     8.124
  52.280         49.17	     7.681
  52.300         56.67	     8.246
  52.320         44.17	     7.280
  52.340         50.00	     7.746
  52.360         45.83	     7.416
  52.380         56.67	     8.246
  52.400         49.17	     7.681
  52.420         53.33	     8.000
  52.440         56.67	     8.246
  52.460         53.33	     8.000
  52.480         52.50	     7.937
  52.500         43.33	     7.211
  52.520         62.50	     8.660
  52.540         62.50	     8.660
  52.560         63.33	     8.718
  52.580         50.00	     7.746
  52.600         51.67	     7.874
  52.620         41.67	     7.071
  52.640         45.00	     7.348
  52.660         54.17	     8.062
  52.680         40.83	     7.000
  52.700         40.83	     7.000
  52.720         53.33	     8.000
  52.740         39.17	     6.856
  52.760         44.17	     7.280
  52.780         47.50	     7.550
  52.800         41.67	     7.071
  52.820         37.50	     6.708
  52.840         54.17	     8.062
  52.860         44.17	     7.280
  52.880         49.17	     7.681
  52.900         44.17	     7.280
  52.920         54.17	     8.062
  52.940         50.83	     7.810
  52.960         45.00	     7.348
  52.980         49.17	     7.681
  53.000         44.17	     7.280
  53.020         60.83	     8.544
  53.040         60.00	     8.485
  53.060         60.00	     8.485
  53.080         59.17	     8.426
  53.100         55.83	     8.185
  53.120         59.17	     8.426
  53.140         59.17	     8.426
  53.160         54.17	     8.062
  53.180         62.50	     8.660
  53.200         50.83	     7.810
  53.220         55.83	     8.185
  53.240         51.67	     7.874
  53.260         40.00	     6.928
  53.280         52.50	     7.937
  53.300         69.17	     9.110
  53.320         61.67	     8.602
  53.340         58.33	     8.367
  53.360         44.17	     7.280
  53.380         49.17	     7.681
  53.400         48.33	     7.616
  53.420         39.17	     6.856
  53.440         34.17	     6.403
  53.460         48.33	     7.616
  53.480         34.17	     6.403
  53.500         28.33	     5.831
  53.520         46.67	     7.483
  53.540         35.83	     6.557
  53.560         38.33	     6.782
  53.580         35.00	     6.481
  53.600         34.17	     6.403
  53.620         46.67	     7.483
  53.640         32.50	     6.245
  53.660         39.17	     6.856
  53.680         34.17	     6.403
  53.700         40.00	     6.928
  53.720         43.33	     7.211
  53.740         40.83	     7.000
  53.760         41.67	     7.071
  53.780         45.83	     7.416
  53.800         33.33	     6.325
  53.820         45.83	     7.416
  53.840         39.17	     6.856
  53.860         51.67	     7.874
  53.880         36.67	     6.633
  53.900         38.33	     6.782
  53.920         40.83	     7.000
  53.940         44.17	     7.280
  53.960         42.50	     7.141
  53.980         41.67	     7.071
  54.000         32.50	     6.245
  54.020         31.67	     6.164
  54.040         39.17	     6.856
  54.060         36.67	     6.633
  54.080         44.17	     7.280
  54.100         45.83	     7.416
  54.120         56.67	     8.246
  54.140         49.17	     7.681
  54.160         46.67	     7.483
  54.180         39.17	     6.856
  54.200         44.17	     7.280
  54.220         39.17	     6.856
  54.240         49.17	     7.681
  54.260         56.67	     8.246
  54.280         50.00	     7.746
  54.300         54.17	     8.062
  54.320         52.50	     7.937
  54.340         79.17	     9.747
  54.360         57.50	     8.307
  54.380         52.50	     7.937
  54.400         46.67	     7.483
  54.420         60.83	     8.544
  54.440         48.33	     7.616
  54.460         60.00	     8.485
  54.480         48.33	     7.616
  54.500         56.67	     8.246
  54.520         43.33	     7.211
  54.540         63.33	     8.718
  54.560         57.50	     8.307
  54.580         60.83	     8.544
  54.600         55.83	     8.185
  54.620         63.33	     8.718
  54.640         59.17	     8.426
  54.660         64.17	     8.775
  54.680         56.67	     8.246
  54.700         70.83	     9.220
  54.720         72.50	     9.327
  54.740         60.00	     8.485
  54.760         84.17	    10.050
  54.780        119.17	    11.958
  54.800        125.00	    12.247
  54.820        137.50	    12.845
  54.840        185.83	    14.933
  54.860        163.33	    14.000
  54.880        140.83	    13.000
  54.900         94.17	    10.630
  54.920         91.67	    10.488
  54.940        100.83	    11.000
  54.960        106.67	    11.314
  54.980        105.83	    11.269
  55.000        111.67	    11.576
  55.020        102.50	    11.091
  55.040         69.17	     9.110
  55.060         78.33	     9.695
  55.080         61.67	     8.602
  55.100         59.17	     8.426
  55.120         64.17	     8.775
  55.140         63.33	     8.718
  55.160         68.33	     9.055
  55.180         50.83	     7.810
  55.200         72.50	     9.327
  55.220         73.33	     9.381
  55.240         71.67	     9.274
  55.260         71.67	     9.274
  55.280         91.67	    10.488
  55.300         96.67	    10.770
  55.320         96.67	    10.770
  55.340         73.33	     9.381
  55.360         72.50	     9.327
  55.380         60.83	     8.544
  55.400         55.83	     8.185
  55.420         57.50	     8.307
  55.440         65.00	     8.832
  55.460         63.33	     8.718
  55.480         57.50	     8.307
  55.500         55.00	     8.124
  55.520         52.50	     7.937
  55.540         65.00	     8.832
  55.560         58.33	     8.367
  55.580         53.33	     8.000
  55.600         55.00	     8.124
  55.620         68.33	     9.055
  55.640         61.67	     8.602
  55.660         65.83	     8.888
  55.680         62.50	     8.660
  55.700         55.83	     8.185
  55.720         82.50	     9.950
  55.740         64.17	     8.775
  55.760         65.83	     8.888
  55.780         80.00	     9.798
  55.800         71.67	     9.274
  55.820         80.83	     9.849
  55.840         80.00	     9.798
  55.860         74.17	     9.434
  55.880         57.50	     8.307
  55.900         74.17	     9.434
  55.920         65.83	     8.888
  55.940         50.00	     7.746
  55.960         61.67	     8.602
  55.980         57.50	     8.307
  56.000         64.17	     8.775
  56.020         50.00	     7.746
  56.040         50.83	     7.810
  56.060         42.50	     7.141
  56.080         47.50	     7.550
  56.100         55.00	     8.124
  56.120         70.83	     9.220
  56.140         64.17	     8.775
  56.160         74.17	     9.434
  56.180         63.33	     8.718
  56.200         48.33	     7.616
  56.220         52.50	     7.937
  56.240         43.33	     7.211
  56.260         55.00	     8.124
  56.280         68.33	     9.055
  56.300         52.50	     7.937
  56.320         52.50	     7.937
  56.340         42.50	     7.141
  56.360         60.83	     8.544
  56.380         39.17	     6.856
  56.400         41.67	     7.071
  56.420         50.00	     7.746
  56.440         40.00	     6.928
  56.460         42.50	     7.141
  56.480         34.17	     6.403
  56.500         58.33	     8.367
  56.520         46.67	     7.483
  56.540         38.33	     6.782
  56.560         38.33	     6.782
  56.580         40.00	     6.928
  56.600         45.83	     7.416
  56.620         40.83	     7.000
  56.640         45.83	     7.416
  56.660         42.50	     7.141
  56.680         50.00	     7.746
  56.700         43.33	     7.211
  56.720         40.00	     6.928
  56.740         40.00	     6.928
  56.760         45.83	     7.416
  56.780         40.83	     7.000
  56.800         30.83	     6.083
  56.820         48.33	     7.616
  56.840         41.67	     7.071
  56.860         42.50	     7.141
  56.880         35.83	     6.557
  56.900         43.33	     7.211
  56.920         47.50	     7.550
  56.940         42.50	     7.141
  56.960         50.83	     7.810
  56.980         60.83	     8.544
  57.000         48.33	     7.616
  57.020         54.17	     8.062
  57.040         44.17	     7.280
  57.060         44.17	     7.280
  57.080         40.83	     7.000
  57.100         47.50	     7.550
  57.120         43.33	     7.211
  57.140         51.67	     7.874
  57.160         66.67	     8.944
  57.180         43.33	     7.211
  57.200         50.00	     7.746
  57.220         60.83	     8.544
  57.240         43.33	     7.211
  57.260         49.17	     7.681
  57.280         40.83	     7.000
  57.300         39.17	     6.856
  57.320         45.83	     7.416
  57.340         43.33	     7.211
  57.360         50.83	     7.810
  57.380         53.33	     8.000
  57.400         50.83	     7.810
  57.420         50.83	     7.810
  57.440         39.17	     6.856
  57.460         45.83	     7.416
  57.480         49.17	     7.681
  57.500         38.33	     6.782
  57.520         47.50	     7.550
  57.540         50.83	     7.810
  57.560         45.00	     7.348
  57.580         60.83	     8.544
  57.600         40.83	     7.000
  57.620         45.00	     7.348
  57.640         53.33	     8.000
  57.660         46.67	     7.483
  57.680         44.17	     7.280
  57.700         41.67	     7.071
  57.720         45.00	     7.348
  57.740         56.67	     8.246
  57.760         44.17	     7.280
  57.780         42.50	     7.141
  57.800         42.50	     7.141
  57.820         36.67	     6.633
  57.840         48.33	     7.616
  57.860         39.17	     6.856
  57.880         29.17	     5.916
  57.900         36.67	     6.633
  57.920         43.33	     7.211
  57.940         49.17	     7.681
  57.960         43.33	     7.211
  57.980         50.00	     7.746
  58.000         35.00	     6.481
  58.020         48.33	     7.616
  58.040         35.00	     6.481
  58.060         42.50	     7.141
  58.080         45.83	     7.416
  58.100         48.33	     7.616
  58.120         45.00	     7.348
  58.140         52.50	     7.937
  58.160         50.83	     7.810
  58.180         31.67	     6.164
  58.200         37.50	     6.708
  58.220         40.83	     7.000
  58.240         41.67	     7.071
  58.260         52.50	     7.937
  58.280         45.00	     7.348
  58.300         39.17	     6.856
  58.320         45.83	     7.416
  58.340         39.17	     6.856
  58.360         45.83	     7.416
  58.380         47.50	     7.550
  58.400         45.83	     7.416
  58.420         43.33	     7.211
  58.440         56.67	     8.246
  58.460         50.00	     7.746
  58.480         56.67	     8.246
  58.500         40.83	     7.000
  58.520         42.50	     7.141
  58.540         49.17	     7.681
  58.560         58.33	     8.367
  58.580         45.83	     7.416
  58.600         45.83	     7.416
  58.620         74.17	     9.434
  58.640         43.33	     7.211
  58.660         68.33	     9.055
  58.680         64.17	     8.775
  58.700         65.83	     8.888
  58.720         50.00	     7.746
  58.740         70.00	     9.165
  58.760         60.00	     8.485
  58.780         54.17	     8.062
  58.800         60.00	     8.485
  58.820         59.17	     8.426
  58.840         55.83	     8.185
  58.860         59.17	     8.426
  58.880         59.17	     8.426
  58.900         45.83	     7.416
  58.920         42.50	     7.141
  58.940         52.50	     7.937
  58.960         53.33	     8.000
  58.980         55.83	     8.185
  59.000         49.17	     7.681
  59.020         68.33	     9.055
  59.040         56.67	     8.246
  59.060         65.00	     8.832
  59.080         63.33	     8.718
  59.100         51.67	     7.874
  59.120         65.00	     8.832
  59.140         57.50	     8.307
  59.160         67.50	     9.000
  59.180         67.50	     9.000
  59.200         62.50	     8.660
  59.220         70.83	     9.220
  59.240         56.67	     8.246
  59.260         55.00	     8.124
  59.280         56.67	     8.246
  59.300         58.33	     8.367
  59.320         53.33	     8.000
  59.340         60.83	     8.544
  59.360         50.00	     7.746
  59.380         68.33	     9.055
  59.400         51.67	     7.874
  59.420         50.00	     7.746
  59.440         47.50	     7.550
  59.460         45.00	     7.348
  59.480         41.67	     7.071
  59.500         42.50	     7.141
  59.520         46.67	     7.483
  59.540         50.83	     7.810
  59.560         47.50	     7.550
  59.580         45.00	     7.348
  59.600         50.00	     7.746
  59.620         50.00	     7.746
  59.640         57.50	     8.307
  59.660         40.00	     6.928
  59.680         55.00	     8.124
  59.700         60.83	     8.544
  59.720         49.17	     7.681
  59.740         60.00	     8.485
  59.760         72.50	     9.327
  59.780         65.83	     8.888
  59.800         90.00	    10.392
  59.820        112.50	    11.619
  59.840        145.00	    13.191
  59.860        189.17	    15.067
  59.880        315.00	    19.442
  59.900        435.83	    22.869
  59.920        465.00	    23.622
  59.940        342.50	    20.273
  59.960        275.83	    18.193
  59.980        197.50	    15.395
  60.000        144.17	    13.153
  60.020        145.00	    13.191
  60.040        205.00	    15.684
  60.060        205.83	    15.716
  60.080        256.67	    17.550
  60.100        238.33	    16.912
  60.120        184.17	    14.866
  60.140        126.67	    12.329
  60.160        107.50	    11.358
  60.180        104.17	    11.180
  60.200         75.83	     9.539
  60.220         76.67	     9.592
  60.240         66.67	     8.944
  60.260         56.67	     8.246
  60.280         66.67	     8.944
  60.300         51.67	     7.874
  60.320         54.17	     8.062
  60.340         52.50	     7.937
  60.360         63.33	     8.718
  60.380         59.17	     8.426
  60.400         63.33	     8.718
  60.420         55.83	     8.185
  60.440         66.67	     8.944
  60.460         40.83	     7.000
  60.480         45.83	     7.416
  60.500         67.50	     9.000
  60.520         64.17	     8.775
  60.540         45.00	     7.348
  60.560         65.00	     8.832
  60.580         55.00	     8.124
  60.600         45.00	     7.348
  60.620         56.67	     8.246
  60.640         59.17	     8.426
  60.660         59.17	     8.426
  60.680         45.00	     7.348
  60.700         70.83	     9.220
  60.720         73.33	     9.381
  60.740         65.00	     8.832
  60.760         74.17	     9.434
  60.780         68.33	     9.055
  60.800         60.83	     8.544
  60.820         59.17	     8.426
  60.840         57.50	     8.307
  60.860         70.00	     9.165
  60.880         71.67	     9.274
  60.900         75.00	     9.487
  60.920         65.83	     8.888
  60.940         66.67	     8.944
  60.960         58.33	     8.367
  60.980         47.50	     7.550
  61.000         55.83	     8.185
  61.020         58.33	     8.367
  61.040         67.50	     9.000
  61.060         58.33	     8.367
  61.080         50.00	     7.746
  61.100         55.83	     8.185
  61.120         59.17	     8.426
  61.140         50.83	     7.810
  61.160         53.33	     8.000
  61.180         50.83	     7.810
  61.200         64.17	     8.775
  61.220         50.83	     7.810
  61.240         60.00	     8.485
  61.260         54.17	     8.062
  61.280         55.00	     8.124
  61.300         57.50	     8.307
  61.320         57.50	     8.307
  61.340         53.33	     8.000
  61.360         62.50	     8.660
  61.380         58.33	     8.367
  61.400         76.67	     9.592
  61.420         71.67	     9.274
  61.440         86.67	    10.198
  61.460         72.50	     9.327
  61.480         65.00	     8.832
  61.500         73.33	     9.381
  61.520         65.00	     8.832
  61.540         71.67	     9.274
  61.560         68.33	     9.055
  61.580         88.33	    10.296
  61.600         80.83	     9.849
  61.620         77.50	     9.644
  61.640         82.50	     9.950
  61.660         65.83	     8.888
  61.680         90.83	    10.440
  61.700         70.83	     9.220
  61.720         82.50	     9.950
  61.740         81.67	     9.899
  61.760         80.83	     9.849
  61.780         76.67	     9.592
  61.800         70.83	     9.220
  61.820         76.67	     9.592
  61.840         60.83	     8.544
  61.860         70.83	     9.220
  61.880         63.33	     8.718
  61.900         57.50	     8.307
  61.920         66.67	     8.944
  61.940         64.17	     8.775
  61.960         61.67	     8.602
  61.980         62.50	     8.660
  62.000         53.33	     8.000
  62.020         50.00	     7.746
  62.040         43.33	     7.211
  62.060         58.33	     8.367
  62.080         49.17	     7.681
  62.100         54.17	     8.062
  62.120         43.33	     7.211
  62.140         40.83	     7.000
  62.160         40.83	     7.000
  62.180         49.17	     7.681
  62.200         53.33	     8.000
  62.220         37.50	     6.708
  62.240         42.50	     7.141
  62.260         35.83	     6.557
  62.280         35.83	     6.557
  62.300         39.17	     6.856
  62.320         42.50	     7.141
  62.340         39.17	     6.856
  62.360         40.83	     7.000
  62.380         45.00	     7.348
  62.400         42.50	     7.141
  62.420         42.50	     7.141
  62.440         42.50	     7.141
  62.460         42.50	     7.141
  62.480         45.83	     7.416
  62.500         47.50	     7.550
  62.520         37.50	     6.708
  62.540         47.50	     7.550
  62.560         36.67	     6.633
  62.580         45.00	     7.348
  62.600         45.00	     7.348
  62.620         44.17	     7.280
  62.640         45.83	     7.416
  62.660         52.50	     7.937
  62.680         46.67	     7.483
  62.700         54.17	     8.062
  62.720         50.83	     7.810
  62.740         50.83	     7.810
  62.760         45.83	     7.416
  62.780         43.33	     7.211
  62.800         46.67	     7.483
  62.820         49.17	     7.681
  62.840         40.83	     7.000
  62.860         40.00	     6.928
  62.880         47.50	     7.550
  62.900         34.17	     6.403
  62.920         37.50	     6.708
  62.940         43.33	     7.211
  62.960         30.00	     6.000
  62.980         36.67	     6.633
  63.000         48.33	     7.616
  63.020         37.50	     6.708
  63.040         39.17	     6.856
  63.060         51.67	     7.874
  63.080         48.33	     7.616
  63.100         42.50	     7.141
  63.120         34.17	     6.403
  63.140         51.67	     7.874
  63.160         48.33	     7.616
  63.180         46.67	     7.483
  63.200         43.33	     7.211
  63.220         50.00	     7.746
  63.240         40.83	     7.000
  63.260         45.00	     7.348
  63.280         42.50	     7.141
  63.300         46.67	     7.483
  63.320         40.00	     6.928
  63.340         43.33	     7.211
  63.360         54.17	     8.062
  63.380         48.33	     7.616
  63.400         47.50	     7.550
  63.420         55.83	     8.185
  63.440         58.33	     8.367
  63.460         45.00	     7.348
  63.480         72.50	     9.327
  63.500         54.17	     8.062
  63.520         50.00	     7.746
  63.540         60.00	     8.485
  63.560         50.83	     7.810
  63.580         47.50	     7.550
  63.600         45.83	     7.416
  63.620         53.33	     8.000
  63.640         47.50	     7.550
  63.660         52.50	     7.937
  63.680         56.67	     8.246
  63.700         50.00	     7.746
  63.720         53.33	     8.000
  63.740         52.50	     7.937
  63.760         55.00	     8.124
  63.780         46.67	     7.483
  63.800         59.17	     8.426
  63.820         58.33	     8.367
  63.840         51.67	     7.874
  63.860         53.33	     8.000
  63.880         50.00	     7.746
  63.900         66.67	     8.944
  63.920         65.83	     8.888
  63.940         76.67	     9.592
  63.960         95.83	    10.724
  63.980         80.83	     9.849
  64.000         87.50	    10.247
  64.020         86.67	    10.198
  64.040         60.83	     8.544
  64.060         64.17	     8.775
  64.080         75.00	     9.487
  64.100         64.17	     8.775
  64.120         72.50	     9.327
  64.140         78.33	     9.695
  64.160         95.00	    10.677
  64.180         87.50	    10.247
  64.200         73.33	     9.381
  64.220         67.50	     9.000
  64.240         56.67	     8.246
  64.260         49.17	     7.681
  64.280         52.50	     7.937
  64.300         55.83	     8.185
  64.320         48.33	     7.616
  64.340         53.33	     8.000
  64.360         50.83	     7.810
  64.380         53.33	     8.000
  64.400         29.17	     5.916
  64.420         53.33	     8.000
  64.440         44.17	     7.280
  64.460         49.17	     7.681
  64.480         34.17	     6.403
  64.500         52.50	     7.937
  64.520         48.33	     7.616
  64.540         35.83	     6.557
  64.560         40.00	     6.928
  64.580         54.17	     8.062
  64.600         36.67	     6.633
  64.620         42.50	     7.141
  64.640         34.17	     6.403
  64.660         51.67	     7.874
  64.680         42.50	     7.141
  64.700         36.67	     6.633
  64.720         41.67	     7.071
  64.740         41.67	     7.071
  64.760         48.33	     7.616
  64.780         54.17	     8.062
  64.800         50.83	     7.810
  64.820         50.83	     7.810
  64.840         63.33	     8.718
  64.860         59.17	     8.426
  64.880         62.50	     8.660
  64.900         45.83	     7.416
  64.920         71.67	     9.274
  64.940         52.50	     7.937
  64.960         47.50	     7.550
  64.980         51.67	     7.874
  65.000         33.33	     6.325
