
Filename:
	C:\Program Files\Thermo Electron\WinXRD\Datafiles\F_HERMAN\GEO\G36_RT.raw

File Created:
	February 20, 2020 - 05:56 PM

Specimen Id:
	G36_RT

Specimen Name:
	

Specimen Description:
	

Comment:
Scan Type: 2Theta Scan
Start Angle: 3 deg.
Stop Angle: 65 deg.
Num Points: 3101
Step Size: 0.02 deg.
Scan Rate: 1.000000
Scan Mode: Continuous
Wavelength: 1.540562
\Kalpha1: 1.540562	\Kalpha2: 1.544390	\Kbeta: 1.392218

Optics:
		Detector:
			 Type: Fixed Slits
		Tube: 
			 Type: Fixed Slits


Datas:
 Pos [deg]       Rate [CPS]      ESD [-]

Range 1 ---> Iteration 1
   3.000        461.67	    23.537
   3.020        436.67	    22.891
   3.040        435.00	    22.847
   3.060        473.33	    23.833
   3.080        423.33	    22.539
   3.100        428.33	    22.672
   3.120        425.00	    22.583
   3.140        425.83	    22.605
   3.160        420.83	    22.472
   3.180        447.50	    23.173
   3.200        416.67	    22.361
   3.220        415.83	    22.338
   3.240        411.67	    22.226
   3.260        400.83	    21.932
   3.280        410.83	    22.204
   3.300        388.33	    21.587
   3.320        372.50	    21.142
   3.340        385.83	    21.517
   3.360        418.33	    22.405
   3.380        351.67	    20.543
   3.400        344.17	    20.322
   3.420        349.17	    20.469
   3.440        393.33	    21.726
   3.460        357.50	    20.712
   3.480        374.17	    21.190
   3.500        359.17	    20.761
   3.520        393.33	    21.726
   3.540        355.00	    20.640
   3.560        352.50	    20.567
   3.580        352.50	    20.567
   3.600        381.67	    21.401
   3.620        330.83	    19.925
   3.640        315.83	    19.468
   3.660        350.00	    20.494
   3.680        362.50	    20.857
   3.700        335.00	    20.050
   3.720        344.17	    20.322
   3.740        325.00	    19.748
   3.760        309.17	    19.261
   3.780        344.17	    20.322
   3.800        322.50	    19.672
   3.820        300.83	    19.000
   3.840        359.17	    20.761
   3.860        292.50	    18.735
   3.880        319.17	    19.570
   3.900        305.83	    19.157
   3.920        324.17	    19.723
   3.940        320.83	    19.621
   3.960        297.50	    18.894
   3.980        325.00	    19.748
   4.000        300.83	    19.000
   4.020        296.67	    18.868
   4.040        296.67	    18.868
   4.060        314.17	    19.416
   4.080        306.67	    19.183
   4.100        318.33	    19.545
   4.120        291.67	    18.708
   4.140        301.67	    19.026
   4.160        300.83	    19.000
   4.180        287.50	    18.574
   4.200        275.83	    18.193
   4.220        287.50	    18.574
   4.240        317.50	    19.519
   4.260        284.17	    18.466
   4.280        295.83	    18.841
   4.300        252.50	    17.407
   4.320        266.67	    17.889
   4.340        269.17	    17.972
   4.360        273.33	    18.111
   4.380        280.00	    18.330
   4.400        273.33	    18.111
   4.420        245.00	    17.146
   4.440        269.17	    17.972
   4.460        287.50	    18.574
   4.480        277.50	    18.248
   4.500        267.50	    17.916
   4.520        283.33	    18.439
   4.540        262.50	    17.748
   4.560        255.83	    17.521
   4.580        235.00	    16.793
   4.600        290.83	    18.682
   4.620        245.83	    17.176
   4.640        235.00	    16.793
   4.660        280.00	    18.330
   4.680        288.33	    18.601
   4.700        250.83	    17.349
   4.720        246.67	    17.205
   4.740        250.83	    17.349
   4.760        259.17	    17.635
   4.780        225.00	    16.432
   4.800        249.17	    17.292
   4.820        242.50	    17.059
   4.840        234.17	    16.763
   4.860        250.00	    17.321
   4.880        250.00	    17.321
   4.900        261.67	    17.720
   4.920        247.50	    17.234
   4.940        255.00	    17.493
   4.960        240.83	    17.000
   4.980        239.17	    16.941
   5.000        271.67	    18.055
   5.020        240.00	    16.971
   5.040        240.83	    17.000
   5.060        238.33	    16.912
   5.080        242.50	    17.059
   5.100        221.67	    16.310
   5.120        237.50	    16.882
   5.140        254.17	    17.464
   5.160        226.67	    16.492
   5.180        228.33	    16.553
   5.200        215.00	    16.062
   5.220        212.50	    15.969
   5.240        221.67	    16.310
   5.260        211.67	    15.937
   5.280        215.83	    16.093
   5.300        224.17	    16.401
   5.320        250.83	    17.349
   5.340        234.17	    16.763
   5.360        205.83	    15.716
   5.380        214.17	    16.031
   5.400        218.33	    16.186
   5.420        233.33	    16.733
   5.440        215.83	    16.093
   5.460        230.83	    16.643
   5.480        197.50	    15.395
   5.500        237.50	    16.882
   5.520        183.33	    14.832
   5.540        205.00	    15.684
   5.560        220.83	    16.279
   5.580        204.17	    15.652
   5.600        234.17	    16.763
   5.620        215.00	    16.062
   5.640        230.00	    16.613
   5.660        203.33	    15.620
   5.680        205.00	    15.684
   5.700        205.83	    15.716
   5.720        211.67	    15.937
   5.740        215.00	    16.062
   5.760        216.67	    16.125
   5.780        212.50	    15.969
   5.800        189.17	    15.067
   5.820        199.17	    15.460
   5.840        202.50	    15.588
   5.860        201.67	    15.556
   5.880        201.67	    15.556
   5.900        194.17	    15.264
   5.920        196.67	    15.362
   5.940        194.17	    15.264
   5.960        187.50	    15.000
   5.980        208.33	    15.811
   6.000        182.50	    14.799
   6.020        205.83	    15.716
   6.040        219.17	    16.217
   6.060        186.67	    14.967
   6.080        233.33	    16.733
   6.100        215.83	    16.093
   6.120        220.83	    16.279
   6.140        220.83	    16.279
   6.160        235.00	    16.793
   6.180        222.50	    16.340
   6.200        210.00	    15.875
   6.220        195.83	    15.330
   6.240        194.17	    15.264
   6.260        193.33	    15.232
   6.280        197.50	    15.395
   6.300        176.67	    14.560
   6.320        147.50	    13.304
   6.340        189.17	    15.067
   6.360        180.83	    14.731
   6.380        200.83	    15.524
   6.400        197.50	    15.395
   6.420        178.33	    14.629
   6.440        193.33	    15.232
   6.460        202.50	    15.588
   6.480        182.50	    14.799
   6.500        172.50	    14.387
   6.520        176.67	    14.560
   6.540        179.17	    14.663
   6.560        156.67	    13.711
   6.580        177.50	    14.595
   6.600        179.17	    14.663
   6.620        181.67	    14.765
   6.640        173.33	    14.422
   6.660        193.33	    15.232
   6.680        175.00	    14.491
   6.700        165.00	    14.071
   6.720        175.83	    14.526
   6.740        175.83	    14.526
   6.760        160.00	    13.856
   6.780        172.50	    14.387
   6.800        184.17	    14.866
   6.820        175.83	    14.526
   6.840        165.00	    14.071
   6.860        161.67	    13.928
   6.880        172.50	    14.387
   6.900        187.50	    15.000
   6.920        170.83	    14.318
   6.940        150.83	    13.454
   6.960        156.67	    13.711
   6.980        185.00	    14.900
   7.000        170.00	    14.283
   7.020        178.33	    14.629
   7.040        155.83	    13.675
   7.060        177.50	    14.595
   7.080        160.83	    13.892
   7.100        158.33	    13.784
   7.120        180.00	    14.697
   7.140        158.33	    13.784
   7.160        161.67	    13.928
   7.180        143.33	    13.115
   7.200        143.33	    13.115
   7.220        170.83	    14.318
   7.240        166.67	    14.142
   7.260        141.67	    13.038
   7.280        153.33	    13.565
   7.300        155.83	    13.675
   7.320        168.33	    14.213
   7.340        160.83	    13.892
   7.360        140.83	    13.000
   7.380        149.17	    13.379
   7.400        160.00	    13.856
   7.420        152.50	    13.528
   7.440        151.67	    13.491
   7.460        144.17	    13.153
   7.480        160.00	    13.856
   7.500        126.67	    12.329
   7.520        143.33	    13.115
   7.540        150.00	    13.416
   7.560        135.00	    12.728
   7.580        137.50	    12.845
   7.600        149.17	    13.379
   7.620        172.50	    14.387
   7.640        143.33	    13.115
   7.660        153.33	    13.565
   7.680        150.00	    13.416
   7.700        148.33	    13.342
   7.720        155.83	    13.675
   7.740        146.67	    13.266
   7.760        124.17	    12.207
   7.780        130.00	    12.490
   7.800        134.17	    12.689
   7.820        149.17	    13.379
   7.840        141.67	    13.038
   7.860        141.67	    13.038
   7.880        129.17	    12.450
   7.900        135.83	    12.767
   7.920        136.67	    12.806
   7.940        128.33	    12.410
   7.960        146.67	    13.266
   7.980        145.00	    13.191
   8.000        137.50	    12.845
   8.020        139.17	    12.923
   8.040        162.50	    13.964
   8.060        138.33	    12.884
   8.080        137.50	    12.845
   8.100        135.00	    12.728
   8.120        132.50	    12.610
   8.140        120.00	    12.000
   8.160        141.67	    13.038
   8.180        145.00	    13.191
   8.200        153.33	    13.565
   8.220        131.67	    12.570
   8.240        150.83	    13.454
   8.260        139.17	    12.923
   8.280        149.17	    13.379
   8.300        140.83	    13.000
   8.320        152.50	    13.528
   8.340        140.83	    13.000
   8.360        145.83	    13.229
   8.380        146.67	    13.266
   8.400        155.83	    13.675
   8.420        158.33	    13.784
   8.440        135.00	    12.728
   8.460        165.00	    14.071
   8.480        147.50	    13.304
   8.500        148.33	    13.342
   8.520        145.83	    13.229
   8.540        148.33	    13.342
   8.560        179.17	    14.663
   8.580        184.17	    14.866
   8.600        168.33	    14.213
   8.620        196.67	    15.362
   8.640        207.50	    15.780
   8.660        230.83	    16.643
   8.680        244.17	    17.117
   8.700        271.67	    18.055
   8.720        289.17	    18.628
   8.740        311.67	    19.339
   8.760        405.00	    22.045
   8.780        552.50	    25.749
   8.800        536.67	    25.377
   8.820        505.83	    24.637
   8.840        321.67	    19.647
   8.860        204.17	    15.652
   8.880        153.33	    13.565
   8.900        155.00	    13.638
   8.920        157.50	    13.748
   8.940        160.83	    13.892
   8.960        151.67	    13.491
   8.980        135.83	    12.767
   9.000        138.33	    12.884
   9.020        140.00	    12.961
   9.040        133.33	    12.649
   9.060        148.33	    13.342
   9.080        150.83	    13.454
   9.100        135.83	    12.767
   9.120        124.17	    12.207
   9.140        129.17	    12.450
   9.160        119.17	    11.958
   9.180        117.50	    11.874
   9.200        110.00	    11.489
   9.220        116.67	    11.832
   9.240        116.67	    11.832
   9.260        122.50	    12.124
   9.280        119.17	    11.958
   9.300        134.17	    12.689
   9.320        143.33	    13.115
   9.340        125.00	    12.247
   9.360        113.33	    11.662
   9.380        123.33	    12.166
   9.400        115.00	    11.747
   9.420        148.33	    13.342
   9.440        118.33	    11.916
   9.460        115.00	    11.747
   9.480        106.67	    11.314
   9.500        100.83	    11.000
   9.520        109.17	    11.446
   9.540        118.33	    11.916
   9.560        104.17	    11.180
   9.580        110.83	    11.533
   9.600        121.67	    12.083
   9.620        115.83	    11.790
   9.640        116.67	    11.832
   9.660        104.17	    11.180
   9.680        136.67	    12.806
   9.700        115.83	    11.790
   9.720        135.00	    12.728
   9.740        100.83	    11.000
   9.760        112.50	    11.619
   9.780        116.67	    11.832
   9.800        121.67	    12.083
   9.820        120.83	    12.042
   9.840        112.50	    11.619
   9.860         95.00	    10.677
   9.880        108.33	    11.402
   9.900        108.33	    11.402
   9.920         84.17	    10.050
   9.940        124.17	    12.207
   9.960         92.50	    10.536
   9.980        105.00	    11.225
  10.000        109.17	    11.446
  10.020        104.17	    11.180
  10.040         94.17	    10.630
  10.060        116.67	    11.832
  10.080         95.83	    10.724
  10.100        115.83	    11.790
  10.120        119.17	    11.958
  10.140        117.50	    11.874
  10.160         98.33	    10.863
  10.180         98.33	    10.863
  10.200         99.17	    10.909
  10.220        110.00	    11.489
  10.240        104.17	    11.180
  10.260        107.50	    11.358
  10.280        115.00	    11.747
  10.300        122.50	    12.124
  10.320         90.83	    10.440
  10.340        117.50	    11.874
  10.360        111.67	    11.576
  10.380        109.17	    11.446
  10.400        144.17	    13.153
  10.420        190.00	    15.100
  10.440        287.50	    18.574
  10.460        190.00	    15.100
  10.480        171.67	    14.353
  10.500        130.83	    12.530
  10.520        112.50	    11.619
  10.540        108.33	    11.402
  10.560        108.33	    11.402
  10.580        115.83	    11.790
  10.600        100.83	    11.000
  10.620        102.50	    11.091
  10.640        110.83	    11.533
  10.660        106.67	    11.314
  10.680         95.00	    10.677
  10.700        102.50	    11.091
  10.720         89.17	    10.344
  10.740        105.00	    11.225
  10.760         89.17	    10.344
  10.780        114.17	    11.705
  10.800         85.83	    10.149
  10.820         91.67	    10.488
  10.840        103.33	    11.136
  10.860        101.67	    11.045
  10.880         94.17	    10.630
  10.900        105.83	    11.269
  10.920        110.83	    11.533
  10.940         86.67	    10.198
  10.960         97.50	    10.817
  10.980        101.67	    11.045
  11.000        103.33	    11.136
  11.020        104.17	    11.180
  11.040         88.33	    10.296
  11.060         87.50	    10.247
  11.080         92.50	    10.536
  11.100         97.50	    10.817
  11.120         96.67	    10.770
  11.140         89.17	    10.344
  11.160         92.50	    10.536
  11.180         94.17	    10.630
  11.200         73.33	     9.381
  11.220         86.67	    10.198
  11.240         92.50	    10.536
  11.260         99.17	    10.909
  11.280         96.67	    10.770
  11.300         90.00	    10.392
  11.320         97.50	    10.817
  11.340         79.17	     9.747
  11.360         80.83	     9.849
  11.380         80.00	     9.798
  11.400         88.33	    10.296
  11.420         87.50	    10.247
  11.440         88.33	    10.296
  11.460         93.33	    10.583
  11.480         87.50	    10.247
  11.500         72.50	     9.327
  11.520         95.83	    10.724
  11.540         90.83	    10.440
  11.560        102.50	    11.091
  11.580        103.33	    11.136
  11.600         95.00	    10.677
  11.620        103.33	    11.136
  11.640         85.83	    10.149
  11.660         96.67	    10.770
  11.680         85.83	    10.149
  11.700         93.33	    10.583
  11.720         95.00	    10.677
  11.740         90.83	    10.440
  11.760         71.67	     9.274
  11.780         71.67	     9.274
  11.800         88.33	    10.296
  11.820         88.33	    10.296
  11.840         95.00	    10.677
  11.860        105.00	    11.225
  11.880         81.67	     9.899
  11.900         90.83	    10.440
  11.920         91.67	    10.488
  11.940        118.33	    11.916
  11.960        101.67	    11.045
  11.980        104.17	    11.180
  12.000        112.50	    11.619
  12.020        112.50	    11.619
  12.040        171.67	    14.353
  12.060        199.17	    15.460
  12.080        233.33	    16.733
  12.100        285.83	    18.520
  12.120        304.17	    19.105
  12.140        255.00	    17.493
  12.160        163.33	    14.000
  12.180        135.00	    12.728
  12.200        145.83	    13.229
  12.220        118.33	    11.916
  12.240        145.83	    13.229
  12.260        176.67	    14.560
  12.280        140.83	    13.000
  12.300        154.17	    13.601
  12.320        150.83	    13.454
  12.340        158.33	    13.784
  12.360        164.17	    14.036
  12.380        186.67	    14.967
  12.400        239.17	    16.941
  12.420        233.33	    16.733
  12.440        180.83	    14.731
  12.460        165.00	    14.071
  12.480         97.50	    10.817
  12.500        109.17	    11.446
  12.520        107.50	    11.358
  12.540        105.00	    11.225
  12.560         97.50	    10.817
  12.580         82.50	     9.950
  12.600         87.50	    10.247
  12.620         78.33	     9.695
  12.640         93.33	    10.583
  12.660         90.83	    10.440
  12.680         80.83	     9.849
  12.700         80.83	     9.849
  12.720         97.50	    10.817
  12.740         82.50	     9.950
  12.760         79.17	     9.747
  12.780         85.83	    10.149
  12.800         80.83	     9.849
  12.820         79.17	     9.747
  12.840         87.50	    10.247
  12.860         83.33	    10.000
  12.880         80.00	     9.798
  12.900         98.33	    10.863
  12.920         85.00	    10.100
  12.940         85.83	    10.149
  12.960         64.17	     8.775
  12.980         78.33	     9.695
  13.000         73.33	     9.381
  13.020         90.83	    10.440
  13.040         75.00	     9.487
  13.060         75.83	     9.539
  13.080         94.17	    10.630
  13.100         70.83	     9.220
  13.120         73.33	     9.381
  13.140         81.67	     9.899
  13.160         78.33	     9.695
  13.180         95.00	    10.677
  13.200         60.83	     8.544
  13.220         80.83	     9.849
  13.240         74.17	     9.434
  13.260         85.00	    10.100
  13.280         92.50	    10.536
  13.300         75.83	     9.539
  13.320         88.33	    10.296
  13.340         76.67	     9.592
  13.360         62.50	     8.660
  13.380         69.17	     9.110
  13.400         80.00	     9.798
  13.420         75.00	     9.487
  13.440         60.83	     8.544
  13.460         82.50	     9.950
  13.480         65.83	     8.888
  13.500         93.33	    10.583
  13.520         82.50	     9.950
  13.540         80.00	     9.798
  13.560         80.83	     9.849
  13.580         97.50	    10.817
  13.600         84.17	    10.050
  13.620         84.17	    10.050
  13.640         71.67	     9.274
  13.660         85.00	    10.100
  13.680         85.83	    10.149
  13.700         84.17	    10.050
  13.720         93.33	    10.583
  13.740         81.67	     9.899
  13.760         95.83	    10.724
  13.780        111.67	    11.576
  13.800         95.00	    10.677
  13.820        105.00	    11.225
  13.840         90.00	    10.392
  13.860         92.50	    10.536
  13.880         93.33	    10.583
  13.900         84.17	    10.050
  13.920         86.67	    10.198
  13.940         73.33	     9.381
  13.960         73.33	     9.381
  13.980         70.83	     9.220
  14.000         73.33	     9.381
  14.020         74.17	     9.434
  14.040         71.67	     9.274
  14.060         65.83	     8.888
  14.080         74.17	     9.434
  14.100         62.50	     8.660
  14.120         61.67	     8.602
  14.140         62.50	     8.660
  14.160         64.17	     8.775
  14.180         65.00	     8.832
  14.200         69.17	     9.110
  14.220         61.67	     8.602
  14.240         64.17	     8.775
  14.260         75.00	     9.487
  14.280         74.17	     9.434
  14.300         60.00	     8.485
  14.320         70.83	     9.220
  14.340         75.00	     9.487
  14.360         66.67	     8.944
  14.380         61.67	     8.602
  14.400         70.00	     9.165
  14.420         69.17	     9.110
  14.440         75.00	     9.487
  14.460         75.00	     9.487
  14.480         66.67	     8.944
  14.500         75.00	     9.487
  14.520         45.00	     7.348
  14.540         65.00	     8.832
  14.560         66.67	     8.944
  14.580         54.17	     8.062
  14.600         55.00	     8.124
  14.620         75.83	     9.539
  14.640         70.00	     9.165
  14.660         73.33	     9.381
  14.680         58.33	     8.367
  14.700         80.00	     9.798
  14.720         75.83	     9.539
  14.740         69.17	     9.110
  14.760         55.83	     8.185
  14.780         76.67	     9.592
  14.800         73.33	     9.381
  14.820         76.67	     9.592
  14.840         70.00	     9.165
  14.860         71.67	     9.274
  14.880         79.17	     9.747
  14.900         61.67	     8.602
  14.920         63.33	     8.718
  14.940         80.00	     9.798
  14.960         65.00	     8.832
  14.980         81.67	     9.899
  15.000         73.33	     9.381
  15.020         83.33	    10.000
  15.040         67.50	     9.000
  15.060         68.33	     9.055
  15.080         68.33	     9.055
  15.100         61.67	     8.602
  15.120         60.83	     8.544
  15.140         70.00	     9.165
  15.160         60.00	     8.485
  15.180         71.67	     9.274
  15.200         68.33	     9.055
  15.220         58.33	     8.367
  15.240         71.67	     9.274
  15.260         62.50	     8.660
  15.280         57.50	     8.307
  15.300         58.33	     8.367
  15.320         71.67	     9.274
  15.340         64.17	     8.775
  15.360         56.67	     8.246
  15.380         65.00	     8.832
  15.400         77.50	     9.644
  15.420         66.67	     8.944
  15.440         59.17	     8.426
  15.460         66.67	     8.944
  15.480         72.50	     9.327
  15.500         51.67	     7.874
  15.520         68.33	     9.055
  15.540         66.67	     8.944
  15.560         56.67	     8.246
  15.580         63.33	     8.718
  15.600         76.67	     9.592
  15.620         62.50	     8.660
  15.640         60.00	     8.485
  15.660         57.50	     8.307
  15.680         56.67	     8.246
  15.700         69.17	     9.110
  15.720         68.33	     9.055
  15.740         62.50	     8.660
  15.760         60.83	     8.544
  15.780         60.83	     8.544
  15.800         60.00	     8.485
  15.820         75.00	     9.487
  15.840         55.83	     8.185
  15.860         70.00	     9.165
  15.880         64.17	     8.775
  15.900         60.00	     8.485
  15.920         67.50	     9.000
  15.940         67.50	     9.000
  15.960         65.83	     8.888
  15.980         73.33	     9.381
  16.000         57.50	     8.307
  16.020         72.50	     9.327
  16.040         64.17	     8.775
  16.060         77.50	     9.644
  16.080         70.83	     9.220
  16.100         60.83	     8.544
  16.120         65.00	     8.832
  16.140         61.67	     8.602
  16.160         59.17	     8.426
  16.180         55.00	     8.124
  16.200         51.67	     7.874
  16.220         47.50	     7.550
  16.240         78.33	     9.695
  16.260         48.33	     7.616
  16.280         51.67	     7.874
  16.300         62.50	     8.660
  16.320         66.67	     8.944
  16.340         60.83	     8.544
  16.360         60.00	     8.485
  16.380         60.00	     8.485
  16.400         63.33	     8.718
  16.420         59.17	     8.426
  16.440         53.33	     8.000
  16.460         70.00	     9.165
  16.480         66.67	     8.944
  16.500         40.00	     6.928
  16.520         57.50	     8.307
  16.540         51.67	     7.874
  16.560         55.00	     8.124
  16.580         65.00	     8.832
  16.600         58.33	     8.367
  16.620         71.67	     9.274
  16.640         72.50	     9.327
  16.660         49.17	     7.681
  16.680         50.00	     7.746
  16.700         64.17	     8.775
  16.720         64.17	     8.775
  16.740         55.83	     8.185
  16.760         61.67	     8.602
  16.780         52.50	     7.937
  16.800         58.33	     8.367
  16.820         67.50	     9.000
  16.840         47.50	     7.550
  16.860         57.50	     8.307
  16.880         60.83	     8.544
  16.900         64.17	     8.775
  16.920         57.50	     8.307
  16.940         57.50	     8.307
  16.960         46.67	     7.483
  16.980         68.33	     9.055
  17.000         68.33	     9.055
  17.020         57.50	     8.307
  17.040         59.17	     8.426
  17.060         50.83	     7.810
  17.080         65.83	     8.888
  17.100         57.50	     8.307
  17.120         51.67	     7.874
  17.140         59.17	     8.426
  17.160         50.00	     7.746
  17.180         62.50	     8.660
  17.200         64.17	     8.775
  17.220         66.67	     8.944
  17.240         55.83	     8.185
  17.260         57.50	     8.307
  17.280         69.17	     9.110
  17.300         59.17	     8.426
  17.320         57.50	     8.307
  17.340         65.00	     8.832
  17.360         61.67	     8.602
  17.380         57.50	     8.307
  17.400         70.83	     9.220
  17.420         64.17	     8.775
  17.440         70.00	     9.165
  17.460         68.33	     9.055
  17.480         69.17	     9.110
  17.500         61.67	     8.602
  17.520         53.33	     8.000
  17.540         65.00	     8.832
  17.560         75.00	     9.487
  17.580         85.83	    10.149
  17.600         75.83	     9.539
  17.620         76.67	     9.592
  17.640         75.83	     9.539
  17.660        100.83	    11.000
  17.680        136.67	    12.806
  17.700        173.33	    14.422
  17.720        217.50	    16.155
  17.740        206.67	    15.748
  17.760        200.00	    15.492
  17.780        171.67	    14.353
  17.800        130.83	    12.530
  17.820         96.67	    10.770
  17.840         92.50	    10.536
  17.860         77.50	     9.644
  17.880         68.33	     9.055
  17.900         55.00	     8.124
  17.920         62.50	     8.660
  17.940         75.00	     9.487
  17.960         55.83	     8.185
  17.980         61.67	     8.602
  18.000         53.33	     8.000
  18.020         65.83	     8.888
  18.040         67.50	     9.000
  18.060         65.83	     8.888
  18.080         74.17	     9.434
  18.100         60.00	     8.485
  18.120         55.83	     8.185
  18.140         55.83	     8.185
  18.160         58.33	     8.367
  18.180         65.00	     8.832
  18.200         67.50	     9.000
  18.220         60.00	     8.485
  18.240         57.50	     8.307
  18.260         61.67	     8.602
  18.280         63.33	     8.718
  18.300         68.33	     9.055
  18.320         55.83	     8.185
  18.340         70.83	     9.220
  18.360         71.67	     9.274
  18.380         76.67	     9.592
  18.400         53.33	     8.000
  18.420         61.67	     8.602
  18.440         66.67	     8.944
  18.460         78.33	     9.695
  18.480         94.17	    10.630
  18.500         63.33	     8.718
  18.520         93.33	    10.583
  18.540        107.50	    11.358
  18.560         75.00	     9.487
  18.580        101.67	    11.045
  18.600         65.83	     8.888
  18.620         75.83	     9.539
  18.640         84.17	    10.050
  18.660        105.83	    11.269
  18.680        116.67	    11.832
  18.700        126.67	    12.329
  18.720        132.50	    12.610
  18.740        102.50	    11.091
  18.760         85.83	    10.149
  18.780         62.50	     8.660
  18.800         76.67	     9.592
  18.820         54.17	     8.062
  18.840         60.83	     8.544
  18.860         64.17	     8.775
  18.880         58.33	     8.367
  18.900         66.67	     8.944
  18.920         66.67	     8.944
  18.940         66.67	     8.944
  18.960         60.00	     8.485
  18.980         64.17	     8.775
  19.000         65.83	     8.888
  19.020         57.50	     8.307
  19.040         57.50	     8.307
  19.060         67.50	     9.000
  19.080         60.83	     8.544
  19.100         67.50	     9.000
  19.120         64.17	     8.775
  19.140         66.67	     8.944
  19.160         68.33	     9.055
  19.180         59.17	     8.426
  19.200         81.67	     9.899
  19.220         63.33	     8.718
  19.240         68.33	     9.055
  19.260         75.83	     9.539
  19.280         73.33	     9.381
  19.300         59.17	     8.426
  19.320         68.33	     9.055
  19.340         62.50	     8.660
  19.360         63.33	     8.718
  19.380         57.50	     8.307
  19.400         70.00	     9.165
  19.420         60.83	     8.544
  19.440         60.83	     8.544
  19.460         59.17	     8.426
  19.480         70.00	     9.165
  19.500         73.33	     9.381
  19.520         74.17	     9.434
  19.540         73.33	     9.381
  19.560         75.00	     9.487
  19.580         55.83	     8.185
  19.600         80.00	     9.798
  19.620         75.00	     9.487
  19.640         72.50	     9.327
  19.660         79.17	     9.747
  19.680         88.33	    10.296
  19.700         94.17	    10.630
  19.720         76.67	     9.592
  19.740         93.33	    10.583
  19.760        100.00	    10.954
  19.780         87.50	    10.247
  19.800        100.00	    10.954
  19.820         78.33	     9.695
  19.840         75.83	     9.539
  19.860         93.33	    10.583
  19.880         75.83	     9.539
  19.900         80.83	     9.849
  19.920         82.50	     9.950
  19.940         65.83	     8.888
  19.960         70.83	     9.220
  19.980         78.33	     9.695
  20.000         55.00	     8.124
  20.020         68.33	     9.055
  20.040         60.83	     8.544
  20.060         52.50	     7.937
  20.080         60.83	     8.544
  20.100         76.67	     9.592
  20.120         54.17	     8.062
  20.140         59.17	     8.426
  20.160         49.17	     7.681
  20.180         58.33	     8.367
  20.200         65.00	     8.832
  20.220         55.00	     8.124
  20.240         65.00	     8.832
  20.260         57.50	     8.307
  20.280         70.83	     9.220
  20.300         46.67	     7.483
  20.320         49.17	     7.681
  20.340         60.00	     8.485
  20.360         52.50	     7.937
  20.380         72.50	     9.327
  20.400         60.00	     8.485
  20.420         48.33	     7.616
  20.440         54.17	     8.062
  20.460         71.67	     9.274
  20.480         47.50	     7.550
  20.500         68.33	     9.055
  20.520         50.83	     7.810
  20.540         72.50	     9.327
  20.560         75.00	     9.487
  20.580         80.00	     9.798
  20.600         80.83	     9.849
  20.620         83.33	    10.000
  20.640         89.17	    10.344
  20.660         79.17	     9.747
  20.680        121.67	    12.083
  20.700        148.33	    13.342
  20.720        220.00	    16.248
  20.740        415.00	    22.316
  20.760        674.17	    28.443
  20.780        727.50	    29.547
  20.800        527.50	    25.159
  20.820        427.50	    22.650
  20.840        340.00	    20.199
  20.860        180.00	    14.697
  20.880        149.17	    13.379
  20.900        123.33	    12.166
  20.920        140.83	    13.000
  20.940        118.33	    11.916
  20.960        101.67	    11.045
  20.980        124.17	    12.207
  21.000        103.33	    11.136
  21.020         88.33	    10.296
  21.040         74.17	     9.434
  21.060         70.83	     9.220
  21.080         68.33	     9.055
  21.100         85.00	    10.100
  21.120         57.50	     8.307
  21.140         55.83	     8.185
  21.160         71.67	     9.274
  21.180         68.33	     9.055
  21.200         53.33	     8.000
  21.220         56.67	     8.246
  21.240         58.33	     8.367
  21.260         53.33	     8.000
  21.280         68.33	     9.055
  21.300         50.00	     7.746
  21.320         61.67	     8.602
  21.340         51.67	     7.874
  21.360         43.33	     7.211
  21.380         48.33	     7.616
  21.400         67.50	     9.000
  21.420         51.67	     7.874
  21.440         55.00	     8.124
  21.460         63.33	     8.718
  21.480         65.83	     8.888
  21.500         66.67	     8.944
  21.520         55.00	     8.124
  21.540         77.50	     9.644
  21.560         65.83	     8.888
  21.580         56.67	     8.246
  21.600         62.50	     8.660
  21.620         40.00	     6.928
  21.640         46.67	     7.483
  21.660         49.17	     7.681
  21.680         50.00	     7.746
  21.700         66.67	     8.944
  21.720         47.50	     7.550
  21.740         55.83	     8.185
  21.760         60.83	     8.544
  21.780         58.33	     8.367
  21.800         74.17	     9.434
  21.820         55.83	     8.185
  21.840         65.00	     8.832
  21.860         68.33	     9.055
  21.880         79.17	     9.747
  21.900        106.67	    11.314
  21.920        143.33	    13.115
  21.940        179.17	    14.663
  21.960        185.83	    14.933
  21.980        165.00	    14.071
  22.000        158.33	    13.784
  22.020        137.50	    12.845
  22.040        104.17	    11.180
  22.060         84.17	    10.050
  22.080         53.33	     8.000
  22.100         61.67	     8.602
  22.120         62.50	     8.660
  22.140         67.50	     9.000
  22.160         63.33	     8.718
  22.180         53.33	     8.000
  22.200         68.33	     9.055
  22.220         70.83	     9.220
  22.240         64.17	     8.775
  22.260         56.67	     8.246
  22.280         68.33	     9.055
  22.300         65.00	     8.832
  22.320         57.50	     8.307
  22.340         55.83	     8.185
  22.360         57.50	     8.307
  22.380         65.83	     8.888
  22.400         64.17	     8.775
  22.420         61.67	     8.602
  22.440         73.33	     9.381
  22.460         65.00	     8.832
  22.480         63.33	     8.718
  22.500         55.00	     8.124
  22.520         55.83	     8.185
  22.540         60.83	     8.544
  22.560         59.17	     8.426
  22.580         54.17	     8.062
  22.600         69.17	     9.110
  22.620         64.17	     8.775
  22.640         56.67	     8.246
  22.660         56.67	     8.246
  22.680         55.83	     8.185
  22.700         66.67	     8.944
  22.720         57.50	     8.307
  22.740         77.50	     9.644
  22.760         67.50	     9.000
  22.780         67.50	     9.000
  22.800         74.17	     9.434
  22.820         81.67	     9.899
  22.840         95.00	    10.677
  22.860         64.17	     8.775
  22.880         82.50	     9.950
  22.900         73.33	     9.381
  22.920         79.17	     9.747
  22.940         82.50	     9.950
  22.960         78.33	     9.695
  22.980         85.83	    10.149
  23.000         80.00	     9.798
  23.020         73.33	     9.381
  23.040         57.50	     8.307
  23.060         49.17	     7.681
  23.080         57.50	     8.307
  23.100         54.17	     8.062
  23.120         50.83	     7.810
  23.140         59.17	     8.426
  23.160         58.33	     8.367
  23.180         52.50	     7.937
  23.200         65.83	     8.888
  23.220         50.83	     7.810
  23.240         64.17	     8.775
  23.260         55.83	     8.185
  23.280         65.00	     8.832
  23.300         62.50	     8.660
  23.320         73.33	     9.381
  23.340         78.33	     9.695
  23.360         80.00	     9.798
  23.380         92.50	    10.536
  23.400        119.17	    11.958
  23.420        145.00	    13.191
  23.440        193.33	    15.232
  23.460        195.00	    15.297
  23.480        240.00	    16.971
  23.500        217.50	    16.155
  23.520        179.17	    14.663
  23.540        163.33	    14.000
  23.560        130.00	    12.490
  23.580         90.83	    10.440
  23.600         90.00	    10.392
  23.620         95.00	    10.677
  23.640        102.50	    11.091
  23.660         80.83	     9.849
  23.680         83.33	    10.000
  23.700         81.67	     9.899
  23.720         86.67	    10.198
  23.740         82.50	     9.950
  23.760         72.50	     9.327
  23.780         81.67	     9.899
  23.800         60.83	     8.544
  23.820         80.83	     9.849
  23.840         79.17	     9.747
  23.860         75.00	     9.487
  23.880         79.17	     9.747
  23.900         85.83	    10.149
  23.920         78.33	     9.695
  23.940         72.50	     9.327
  23.960         83.33	    10.000
  23.980         73.33	     9.381
  24.000         81.67	     9.899
  24.020         97.50	    10.817
  24.040         85.83	    10.149
  24.060         84.17	    10.050
  24.080        103.33	    11.136
  24.100         89.17	    10.344
  24.120         92.50	    10.536
  24.140        118.33	    11.916
  24.160        109.17	    11.446
  24.180        150.83	    13.454
  24.200        188.33	    15.033
  24.220        152.50	    13.528
  24.240        119.17	    11.958
  24.260        129.17	    12.450
  24.280        129.17	    12.450
  24.300        105.00	    11.225
  24.320         86.67	    10.198
  24.340         82.50	     9.950
  24.360         71.67	     9.274
  24.380         93.33	    10.583
  24.400         80.83	     9.849
  24.420        109.17	    11.446
  24.440        119.17	    11.958
  24.460        159.17	    13.820
  24.480        170.00	    14.283
  24.500        191.67	    15.166
  24.520        273.33	    18.111
  24.540        292.50	    18.735
  24.560        257.50	    17.578
  24.580        259.17	    17.635
  24.600        196.67	    15.362
  24.620        190.00	    15.100
  24.640        133.33	    12.649
  24.660        113.33	    11.662
  24.680        100.83	    11.000
  24.700        111.67	    11.576
  24.720         96.67	    10.770
  24.740         92.50	    10.536
  24.760         93.33	    10.583
  24.780         89.17	    10.344
  24.800         80.00	     9.798
  24.820        103.33	    11.136
  24.840        106.67	    11.314
  24.860         86.67	    10.198
  24.880         90.83	    10.440
  24.900         71.67	     9.274
  24.920         95.83	    10.724
  24.940         94.17	    10.630
  24.960         98.33	    10.863
  24.980        123.33	    12.166
  25.000        134.17	    12.689
  25.020        157.50	    13.748
  25.040        178.33	    14.629
  25.060        188.33	    15.033
  25.080        182.50	    14.799
  25.100        147.50	    13.304
  25.120        148.33	    13.342
  25.140        118.33	    11.916
  25.160        110.83	    11.533
  25.180         84.17	    10.050
  25.200         81.67	     9.899
  25.220         83.33	    10.000
  25.240         89.17	    10.344
  25.260        130.00	    12.490
  25.280        112.50	    11.619
  25.300        116.67	    11.832
  25.320        121.67	    12.083
  25.340        114.17	    11.705
  25.360        124.17	    12.207
  25.380        140.83	    13.000
  25.400        146.67	    13.266
  25.420        159.17	    13.820
  25.440        165.00	    14.071
  25.460        147.50	    13.304
  25.480        121.67	    12.083
  25.500        150.00	    13.416
  25.520        179.17	    14.663
  25.540        141.67	    13.038
  25.560        108.33	    11.402
  25.580        120.83	    12.042
  25.600        103.33	    11.136
  25.620         95.83	    10.724
  25.640         93.33	    10.583
  25.660         78.33	     9.695
  25.680         76.67	     9.592
  25.700         80.83	     9.849
  25.720         82.50	     9.950
  25.740         70.83	     9.220
  25.760         68.33	     9.055
  25.780         63.33	     8.718
  25.800         70.00	     9.165
  25.820         75.00	     9.487
  25.840         57.50	     8.307
  25.860         75.00	     9.487
  25.880         56.67	     8.246
  25.900         58.33	     8.367
  25.920         60.83	     8.544
  25.940         67.50	     9.000
  25.960         55.00	     8.124
  25.980         61.67	     8.602
  26.000         64.17	     8.775
  26.020         77.50	     9.644
  26.040         75.83	     9.539
  26.060         69.17	     9.110
  26.080         67.50	     9.000
  26.100         55.00	     8.124
  26.120         83.33	    10.000
  26.140         81.67	     9.899
  26.160         76.67	     9.592
  26.180         84.17	    10.050
  26.200         81.67	     9.899
  26.220         94.17	    10.630
  26.240        115.00	    11.747
  26.260        105.83	    11.269
  26.280        135.00	    12.728
  26.300        150.00	    13.416
  26.320        180.83	    14.731
  26.340        200.00	    15.492
  26.360        230.00	    16.613
  26.380        263.33	    17.776
  26.400        252.50	    17.407
  26.420        287.50	    18.574
  26.440        336.67	    20.100
  26.460        395.00	    21.772
  26.480        566.67	    26.077
  26.500        929.17	    33.392
  26.520       1621.67	    44.113
  26.540       2529.17	    55.091
  26.560       2820.83	    58.181
  26.580       2323.33	    52.802
  26.600       2064.17	    49.769
  26.620       1671.67	    44.788
  26.640       1219.17	    38.249
  26.660        842.50	    31.796
  26.680        454.17	    23.345
  26.700        365.00	    20.928
  26.720        439.17	    22.956
  26.740        467.50	    23.685
  26.760        487.50	    24.187
  26.780        556.67	    25.846
  26.800        534.17	    25.318
  26.820        543.33	    25.534
  26.840        438.33	    22.935
  26.860        299.17	    18.947
  26.880        278.33	    18.276
  26.900        260.00	    17.664
  26.920        159.17	    13.820
  26.940        156.67	    13.711
  26.960        162.50	    13.964
  26.980        165.00	    14.071
  27.000        134.17	    12.689
  27.020        121.67	    12.083
  27.040        121.67	    12.083
  27.060        101.67	    11.045
  27.080        104.17	    11.180
  27.100         97.50	    10.817
  27.120         84.17	    10.050
  27.140         94.17	    10.630
  27.160        102.50	    11.091
  27.180         95.00	    10.677
  27.200         95.00	    10.677
  27.220         88.33	    10.296
  27.240         81.67	     9.899
  27.260         93.33	    10.583
  27.280         82.50	     9.950
  27.300         98.33	    10.863
  27.320        120.00	    12.000
  27.340        148.33	    13.342
  27.360        144.17	    13.153
  27.380        156.67	    13.711
  27.400        157.50	    13.748
  27.420        174.17	    14.457
  27.440        158.33	    13.784
  27.460        144.17	    13.153
  27.480        126.67	    12.329
  27.500        125.83	    12.288
  27.520        113.33	    11.662
  27.540        102.50	    11.091
  27.560        107.50	    11.358
  27.580        146.67	    13.266
  27.600        160.00	    13.856
  27.620        208.33	    15.811
  27.640        215.83	    16.093
  27.660        235.00	    16.793
  27.680        239.17	    16.941
  27.700        233.33	    16.733
  27.720        264.17	    17.804
  27.740        273.33	    18.111
  27.760        285.00	    18.493
  27.780        290.00	    18.655
  27.800        377.50	    21.284
  27.820        368.33	    21.024
  27.840        438.33	    22.935
  27.860        469.17	    23.728
  27.880        492.50	    24.310
  27.900        422.50	    22.517
  27.920        331.67	    19.950
  27.940        279.17	    18.303
  27.960        255.83	    17.521
  27.980        231.67	    16.673
  28.000        170.00	    14.283
  28.020        225.00	    16.432
  28.040        195.00	    15.297
  28.060        129.17	    12.450
  28.080        155.83	    13.675
  28.100        145.00	    13.191
  28.120        121.67	    12.083
  28.140        107.50	    11.358
  28.160        120.00	    12.000
  28.180        108.33	    11.402
  28.200        111.67	    11.576
  28.220        111.67	    11.576
  28.240         90.83	    10.440
  28.260         98.33	    10.863
  28.280         87.50	    10.247
  28.300         70.00	     9.165
  28.320         80.83	     9.849
  28.340         68.33	     9.055
  28.360         75.00	     9.487
  28.380         62.50	     8.660
  28.400         71.67	     9.274
  28.420         70.00	     9.165
  28.440        100.83	    11.000
  28.460         90.00	    10.392
  28.480         88.33	    10.296
  28.500         94.17	    10.630
  28.520         93.33	    10.583
  28.540         89.17	    10.344
  28.560         84.17	    10.050
  28.580         82.50	     9.950
  28.600         86.67	    10.198
  28.620         76.67	     9.592
  28.640        107.50	    11.358
  28.660         90.00	    10.392
  28.680         93.33	    10.583
  28.700         72.50	     9.327
  28.720         83.33	    10.000
  28.740         83.33	    10.000
  28.760         55.83	     8.185
  28.780         59.17	     8.426
  28.800         59.17	     8.426
  28.820         42.50	     7.141
  28.840         54.17	     8.062
  28.860         55.00	     8.124
  28.880         52.50	     7.937
  28.900         54.17	     8.062
  28.920         45.00	     7.348
  28.940         44.17	     7.280
  28.960         58.33	     8.367
  28.980         37.50	     6.708
  29.000         45.83	     7.416
  29.020         48.33	     7.616
  29.040         50.83	     7.810
  29.060         46.67	     7.483
  29.080         55.83	     8.185
  29.100         60.00	     8.485
  29.120         45.83	     7.416
  29.140         49.17	     7.681
  29.160         46.67	     7.483
  29.180         44.17	     7.280
  29.200         38.33	     6.782
  29.220         46.67	     7.483
  29.240         52.50	     7.937
  29.260         54.17	     8.062
  29.280         41.67	     7.071
  29.300         44.17	     7.280
  29.320         54.17	     8.062
  29.340         56.67	     8.246
  29.360         45.83	     7.416
  29.380         53.33	     8.000
  29.400         60.83	     8.544
  29.420         52.50	     7.937
  29.440         49.17	     7.681
  29.460         45.00	     7.348
  29.480         59.17	     8.426
  29.500         50.83	     7.810
  29.520         51.67	     7.874
  29.540         51.67	     7.874
  29.560         47.50	     7.550
  29.580         53.33	     8.000
  29.600         71.67	     9.274
  29.620         75.83	     9.539
  29.640         82.50	     9.950
  29.660         98.33	    10.863
  29.680        160.00	    13.856
  29.700        187.50	    15.000
  29.720        220.83	    16.279
  29.740        260.83	    17.692
  29.760        272.50	    18.083
  29.780        238.33	    16.912
  29.800        223.33	    16.371
  29.820        209.17	    15.843
  29.840        152.50	    13.528
  29.860        129.17	    12.450
  29.880        110.00	    11.489
  29.900        114.17	    11.705
  29.920         94.17	    10.630
  29.940         96.67	    10.770
  29.960         90.00	    10.392
  29.980         69.17	     9.110
  30.000         85.83	    10.149
  30.020        109.17	    11.446
  30.040        106.67	    11.314
  30.060         81.67	     9.899
  30.080         90.83	    10.440
  30.100         88.33	    10.296
  30.120         93.33	    10.583
  30.140        113.33	    11.662
  30.160         79.17	     9.747
  30.180         85.00	    10.100
  30.200         75.00	     9.487
  30.220         73.33	     9.381
  30.240         80.83	     9.849
  30.260         65.83	     8.888
  30.280         88.33	    10.296
  30.300         85.00	    10.100
  30.320         98.33	    10.863
  30.340        109.17	    11.446
  30.360        153.33	    13.565
  30.380        176.67	    14.560
  30.400        206.67	    15.748
  30.420        159.17	    13.820
  30.440        124.17	    12.207
  30.460        116.67	    11.832
  30.480        130.83	    12.530
  30.500        102.50	    11.091
  30.520         73.33	     9.381
  30.540         52.50	     7.937
  30.560         68.33	     9.055
  30.580         59.17	     8.426
  30.600         55.83	     8.185
  30.620         64.17	     8.775
  30.640         70.00	     9.165
  30.660         81.67	     9.899
  30.680         89.17	    10.344
  30.700        104.17	    11.180
  30.720        114.17	    11.705
  30.740        105.00	    11.225
  30.760        110.00	    11.489
  30.780         96.67	    10.770
  30.800         93.33	    10.583
  30.820         89.17	    10.344
  30.840         77.50	     9.644
  30.860         70.83	     9.220
  30.880         60.00	     8.485
  30.900         57.50	     8.307
  30.920         69.17	     9.110
  30.940         63.33	     8.718
  30.960         70.00	     9.165
  30.980         60.00	     8.485
  31.000         63.33	     8.718
  31.020         60.00	     8.485
  31.040         60.83	     8.544
  31.060         81.67	     9.899
  31.080         75.00	     9.487
  31.100        101.67	    11.045
  31.120        107.50	    11.358
  31.140        105.83	    11.269
  31.160        110.83	    11.533
  31.180        131.67	    12.570
  31.200         97.50	    10.817
  31.220         93.33	    10.583
  31.240        100.00	    10.954
  31.260         87.50	    10.247
  31.280         65.00	     8.832
  31.300         59.17	     8.426
  31.320         55.83	     8.185
  31.340         65.83	     8.888
  31.360         55.83	     8.185
  31.380         57.50	     8.307
  31.400         68.33	     9.055
  31.420         65.83	     8.888
  31.440         57.50	     8.307
  31.460         80.00	     9.798
  31.480         80.83	     9.849
  31.500         58.33	     8.367
  31.520         55.83	     8.185
  31.540         56.67	     8.246
  31.560         60.83	     8.544
  31.580         53.33	     8.000
  31.600         48.33	     7.616
  31.620         50.83	     7.810
  31.640         45.83	     7.416
  31.660         50.83	     7.810
  31.680         43.33	     7.211
  31.700         45.83	     7.416
  31.720         40.83	     7.000
  31.740         55.00	     8.124
  31.760         57.50	     8.307
  31.780         50.00	     7.746
  31.800         60.83	     8.544
  31.820         59.17	     8.426
  31.840         65.00	     8.832
  31.860         59.17	     8.426
  31.880         55.00	     8.124
  31.900         61.67	     8.602
  31.920         80.83	     9.849
  31.940         88.33	    10.296
  31.960         95.00	    10.677
  31.980         94.17	    10.630
  32.000         73.33	     9.381
  32.020         80.83	     9.849
  32.040         66.67	     8.944
  32.060         65.00	     8.832
  32.080         65.83	     8.888
  32.100         60.00	     8.485
  32.120         54.17	     8.062
  32.140         72.50	     9.327
  32.160         55.00	     8.124
  32.180         45.83	     7.416
  32.200         57.50	     8.307
  32.220         58.33	     8.367
  32.240         55.83	     8.185
  32.260         58.33	     8.367
  32.280         49.17	     7.681
  32.300         62.50	     8.660
  32.320         47.50	     7.550
  32.340         44.17	     7.280
  32.360         41.67	     7.071
  32.380         50.00	     7.746
  32.400         48.33	     7.616
  32.420         45.83	     7.416
  32.440         37.50	     6.708
  32.460         43.33	     7.211
  32.480         50.00	     7.746
  32.500         45.00	     7.348
  32.520         42.50	     7.141
  32.540         37.50	     6.708
  32.560         42.50	     7.141
  32.580         49.17	     7.681
  32.600         48.33	     7.616
  32.620         40.00	     6.928
  32.640         51.67	     7.874
  32.660         43.33	     7.211
  32.680         36.67	     6.633
  32.700         35.83	     6.557
  32.720         47.50	     7.550
  32.740         53.33	     8.000
  32.760         47.50	     7.550
  32.780         46.67	     7.483
  32.800         42.50	     7.141
  32.820         41.67	     7.071
  32.840         40.00	     6.928
  32.860         40.83	     7.000
  32.880         54.17	     8.062
  32.900         62.50	     8.660
  32.920         65.00	     8.832
  32.940         69.17	     9.110
  32.960         75.00	     9.487
  32.980         76.67	     9.592
  33.000         82.50	     9.950
  33.020         69.17	     9.110
  33.040         90.83	    10.440
  33.060         81.67	     9.899
  33.080         63.33	     8.718
  33.100         51.67	     7.874
  33.120         45.00	     7.348
  33.140         50.00	     7.746
  33.160         50.83	     7.810
  33.180         60.00	     8.485
  33.200         40.00	     6.928
  33.220         45.83	     7.416
  33.240         54.17	     8.062
  33.260         43.33	     7.211
  33.280         38.33	     6.782
  33.300         36.67	     6.633
  33.320         34.17	     6.403
  33.340         49.17	     7.681
  33.360         66.67	     8.944
  33.380         65.83	     8.888
  33.400         69.17	     9.110
  33.420         53.33	     8.000
  33.440         47.50	     7.550
  33.460         45.83	     7.416
  33.480         55.83	     8.185
  33.500         55.00	     8.124
  33.520         50.83	     7.810
  33.540         33.33	     6.325
  33.560         49.17	     7.681
  33.580         45.83	     7.416
  33.600         63.33	     8.718
  33.620         57.50	     8.307
  33.640         50.83	     7.810
  33.660         41.67	     7.071
  33.680         52.50	     7.937
  33.700         57.50	     8.307
  33.720         70.00	     9.165
  33.740         45.83	     7.416
  33.760         53.33	     8.000
  33.780         70.83	     9.220
  33.800         64.17	     8.775
  33.820         72.50	     9.327
  33.840         87.50	    10.247
  33.860         79.17	     9.747
  33.880         70.83	     9.220
  33.900         75.00	     9.487
  33.920         76.67	     9.592
  33.940         81.67	     9.899
  33.960         59.17	     8.426
  33.980         66.67	     8.944
  34.000         69.17	     9.110
  34.020         69.17	     9.110
  34.040         62.50	     8.660
  34.060         70.83	     9.220
  34.080         60.00	     8.485
  34.100         52.50	     7.937
  34.120         63.33	     8.718
  34.140         60.83	     8.544
  34.160         43.33	     7.211
  34.180         65.83	     8.888
  34.200         55.00	     8.124
  34.220         59.17	     8.426
  34.240         62.50	     8.660
  34.260         60.00	     8.485
  34.280         60.00	     8.485
  34.300         66.67	     8.944
  34.320         51.67	     7.874
  34.340         66.67	     8.944
  34.360         79.17	     9.747
  34.380         80.83	     9.849
  34.400         84.17	    10.050
  34.420         84.17	    10.050
  34.440         95.83	    10.724
  34.460         94.17	    10.630
  34.480        107.50	    11.358
  34.500        127.50	    12.369
  34.520        100.00	    10.954
  34.540         86.67	    10.198
  34.560         91.67	    10.488
  34.580         83.33	    10.000
  34.600         85.83	    10.149
  34.620         70.83	     9.220
  34.640         85.83	    10.149
  34.660         75.83	     9.539
  34.680         79.17	     9.747
  34.700         79.17	     9.747
  34.720         85.00	    10.100
  34.740         97.50	    10.817
  34.760         99.17	    10.909
  34.780        110.00	    11.489
  34.800         97.50	    10.817
  34.820        112.50	    11.619
  34.840        146.67	    13.266
  34.860        116.67	    11.832
  34.880        123.33	    12.166
  34.900        120.83	    12.042
  34.920        126.67	    12.329
  34.940        140.83	    13.000
  34.960        125.00	    12.247
  34.980        116.67	    11.832
  35.000        117.50	    11.874
  35.020         94.17	    10.630
  35.040        102.50	    11.091
  35.060         81.67	     9.899
  35.080         71.67	     9.274
  35.100         76.67	     9.592
  35.120         84.17	    10.050
  35.140         70.83	     9.220
  35.160         73.33	     9.381
  35.180         72.50	     9.327
  35.200         66.67	     8.944
  35.220         65.00	     8.832
  35.240         96.67	    10.770
  35.260        101.67	    11.045
  35.280         70.00	     9.165
  35.300         90.00	    10.392
  35.320         98.33	    10.863
  35.340        100.00	    10.954
  35.360        122.50	    12.124
  35.380        142.50	    13.077
  35.400        145.00	    13.191
  35.420        130.00	    12.490
  35.440        140.00	    12.961
  35.460        124.17	    12.207
  35.480        159.17	    13.820
  35.500        136.67	    12.806
  35.520        130.00	    12.490
  35.540        129.17	    12.450
  35.560         95.83	    10.724
  35.580        113.33	    11.662
  35.600         92.50	    10.536
  35.620         90.83	    10.440
  35.640         72.50	     9.327
  35.660         64.17	     8.775
  35.680         65.00	     8.832
  35.700         55.00	     8.124
  35.720         59.17	     8.426
  35.740         82.50	     9.950
  35.760         50.00	     7.746
  35.780         63.33	     8.718
  35.800         52.50	     7.937
  35.820         65.83	     8.888
  35.840         67.50	     9.000
  35.860         65.00	     8.832
  35.880         69.17	     9.110
  35.900         61.67	     8.602
  35.920         60.83	     8.544
  35.940         63.33	     8.718
  35.960         75.00	     9.487
  35.980         76.67	     9.592
  36.000         75.83	     9.539
  36.020         85.00	    10.100
  36.040         61.67	     8.602
  36.060         71.67	     9.274
  36.080         62.50	     8.660
  36.100         66.67	     8.944
  36.120         69.17	     9.110
  36.140         59.17	     8.426
  36.160         59.17	     8.426
  36.180         49.17	     7.681
  36.200         60.00	     8.485
  36.220         51.67	     7.874
  36.240         59.17	     8.426
  36.260         63.33	     8.718
  36.280         64.17	     8.775
  36.300         55.83	     8.185
  36.320         68.33	     9.055
  36.340         95.00	    10.677
  36.360        123.33	    12.166
  36.380        163.33	    14.000
  36.400        162.50	    13.964
  36.420        217.50	    16.155
  36.440        307.50	    19.209
  36.460        315.83	    19.468
  36.480        250.83	    17.349
  36.500        170.83	    14.318
  36.520        170.83	    14.318
  36.540        197.50	    15.395
  36.560        212.50	    15.969
  36.580        137.50	    12.845
  36.600        114.17	    11.705
  36.620        117.50	    11.874
  36.640        110.00	    11.489
  36.660        109.17	    11.446
  36.680         90.83	    10.440
  36.700         60.00	     8.485
  36.720         71.67	     9.274
  36.740         80.00	     9.798
  36.760         63.33	     8.718
  36.780         86.67	    10.198
  36.800         47.50	     7.550
  36.820         53.33	     8.000
  36.840         55.00	     8.124
  36.860         63.33	     8.718
  36.880         82.50	     9.950
  36.900         61.67	     8.602
  36.920         52.50	     7.937
  36.940         51.67	     7.874
  36.960         57.50	     8.307
  36.980         63.33	     8.718
  37.000         65.00	     8.832
  37.020         56.67	     8.246
  37.040         60.83	     8.544
  37.060         54.17	     8.062
  37.080         55.83	     8.185
  37.100         63.33	     8.718
  37.120         62.50	     8.660
  37.140         54.17	     8.062
  37.160         42.50	     7.141
  37.180         57.50	     8.307
  37.200         59.17	     8.426
  37.220         73.33	     9.381
  37.240         66.67	     8.944
  37.260         83.33	    10.000
  37.280         71.67	     9.274
  37.300         77.50	     9.644
  37.320         91.67	    10.488
  37.340         74.17	     9.434
  37.360         96.67	    10.770
  37.380         90.83	    10.440
  37.400         89.17	    10.344
  37.420         87.50	    10.247
  37.440         76.67	     9.592
  37.460         92.50	    10.536
  37.480         66.67	     8.944
  37.500         71.67	     9.274
  37.520         74.17	     9.434
  37.540         87.50	    10.247
  37.560         95.00	    10.677
  37.580         83.33	    10.000
  37.600         83.33	    10.000
  37.620         75.00	     9.487
  37.640         80.00	     9.798
  37.660         66.67	     8.944
  37.680         60.83	     8.544
  37.700         42.50	     7.141
  37.720         60.83	     8.544
  37.740         50.00	     7.746
  37.760         55.00	     8.124
  37.780         46.67	     7.483
  37.800         44.17	     7.280
  37.820         43.33	     7.211
  37.840         39.17	     6.856
  37.860         34.17	     6.403
  37.880         40.00	     6.928
  37.900         37.50	     6.708
  37.920         38.33	     6.782
  37.940         46.67	     7.483
  37.960         45.00	     7.348
  37.980         37.50	     6.708
  38.000         60.00	     8.485
  38.020         44.17	     7.280
  38.040         35.83	     6.557
  38.060         28.33	     5.831
  38.080         50.00	     7.746
  38.100         51.67	     7.874
  38.120         46.67	     7.483
  38.140         40.83	     7.000
  38.160         45.00	     7.348
  38.180         40.00	     6.928
  38.200         35.83	     6.557
  38.220         47.50	     7.550
  38.240         35.83	     6.557
  38.260         40.83	     7.000
  38.280         37.50	     6.708
  38.300         45.83	     7.416
  38.320         41.67	     7.071
  38.340         48.33	     7.616
  38.360         39.17	     6.856
  38.380         46.67	     7.483
  38.400         37.50	     6.708
  38.420         45.83	     7.416
  38.440         45.00	     7.348
  38.460         56.67	     8.246
  38.480         47.50	     7.550
  38.500         56.67	     8.246
  38.520         53.33	     8.000
  38.540         54.17	     8.062
  38.560         50.83	     7.810
  38.580         67.50	     9.000
  38.600         62.50	     8.660
  38.620         70.83	     9.220
  38.640         75.00	     9.487
  38.660         73.33	     9.381
  38.680        121.67	    12.083
  38.700        171.67	    14.353
  38.720        145.00	    13.191
  38.740        106.67	    11.314
  38.760         70.00	     9.165
  38.780        110.00	    11.489
  38.800        127.50	    12.369
  38.820         75.00	     9.487
  38.840         88.33	    10.296
  38.860         96.67	    10.770
  38.880         57.50	     8.307
  38.900         65.83	     8.888
  38.920         56.67	     8.246
  38.940         55.00	     8.124
  38.960         51.67	     7.874
  38.980         53.33	     8.000
  39.000         45.83	     7.416
  39.020         53.33	     8.000
  39.040         36.67	     6.633
  39.060         43.33	     7.211
  39.080         43.33	     7.211
  39.100         46.67	     7.483
  39.120         51.67	     7.874
  39.140         41.67	     7.071
  39.160         50.00	     7.746
  39.180         40.83	     7.000
  39.200         47.50	     7.550
  39.220         60.00	     8.485
  39.240         48.33	     7.616
  39.260         53.33	     8.000
  39.280         58.33	     8.367
  39.300         83.33	    10.000
  39.320         86.67	    10.198
  39.340        145.00	    13.191
  39.360        200.83	    15.524
  39.380        213.33	    16.000
  39.400        173.33	    14.422
  39.420        125.00	    12.247
  39.440        134.17	    12.689
  39.460        128.33	    12.410
  39.480        133.33	    12.649
  39.500        125.00	    12.247
  39.520         91.67	    10.488
  39.540         59.17	     8.426
  39.560         69.17	     9.110
  39.580         73.33	     9.381
  39.600         67.50	     9.000
  39.620         73.33	     9.381
  39.640         57.50	     8.307
  39.660         53.33	     8.000
  39.680         64.17	     8.775
  39.700         55.83	     8.185
  39.720         60.83	     8.544
  39.740         62.50	     8.660
  39.760         50.83	     7.810
  39.780         54.17	     8.062
  39.800         45.00	     7.348
  39.820         50.83	     7.810
  39.840         45.83	     7.416
  39.860         66.67	     8.944
  39.880         48.33	     7.616
  39.900         44.17	     7.280
  39.920         48.33	     7.616
  39.940         41.67	     7.071
  39.960         37.50	     6.708
  39.980         55.00	     8.124
  40.000         58.33	     8.367
  40.020         53.33	     8.000
  40.040         60.00	     8.485
  40.060         58.33	     8.367
  40.080         50.83	     7.810
  40.100         65.83	     8.888
  40.120         56.67	     8.246
  40.140         67.50	     9.000
  40.160         87.50	    10.247
  40.180        147.50	    13.304
  40.200        150.83	    13.454
  40.220        145.00	    13.191
  40.240        108.33	    11.402
  40.260         90.83	    10.440
  40.280         91.67	    10.488
  40.300        100.83	    11.000
  40.320        110.00	    11.489
  40.340         95.00	    10.677
  40.360         60.00	     8.485
  40.380         54.17	     8.062
  40.400         45.83	     7.416
  40.420         48.33	     7.616
  40.440         39.17	     6.856
  40.460         44.17	     7.280
  40.480         51.67	     7.874
  40.500         51.67	     7.874
  40.520         46.67	     7.483
  40.540         33.33	     6.325
  40.560         48.33	     7.616
  40.580         41.67	     7.071
  40.600         54.17	     8.062
  40.620         50.00	     7.746
  40.640         46.67	     7.483
  40.660         46.67	     7.483
  40.680         60.00	     8.485
  40.700         69.17	     9.110
  40.720         71.67	     9.274
  40.740         53.33	     8.000
  40.760         54.17	     8.062
  40.780         54.17	     8.062
  40.800         54.17	     8.062
  40.820         67.50	     9.000
  40.840         52.50	     7.937
  40.860         60.00	     8.485
  40.880         47.50	     7.550
  40.900         52.50	     7.937
  40.920         46.67	     7.483
  40.940         35.00	     6.481
  40.960         43.33	     7.211
  40.980         47.50	     7.550
  41.000         50.83	     7.810
  41.020         41.67	     7.071
  41.040         42.50	     7.141
  41.060         50.00	     7.746
  41.080         57.50	     8.307
  41.100         63.33	     8.718
  41.120         67.50	     9.000
  41.140         82.50	     9.950
  41.160         98.33	    10.863
  41.180         85.83	    10.149
  41.200         76.67	     9.592
  41.220         75.00	     9.487
  41.240         73.33	     9.381
  41.260         72.50	     9.327
  41.280         85.00	    10.100
  41.300         70.00	     9.165
  41.320         64.17	     8.775
  41.340         50.00	     7.746
  41.360         62.50	     8.660
  41.380         46.67	     7.483
  41.400         57.50	     8.307
  41.420         47.50	     7.550
  41.440         55.83	     8.185
  41.460         45.00	     7.348
  41.480         54.17	     8.062
  41.500         47.50	     7.550
  41.520         55.83	     8.185
  41.540         69.17	     9.110
  41.560         67.50	     9.000
  41.580         71.67	     9.274
  41.600         85.00	    10.100
  41.620         61.67	     8.602
  41.640         79.17	     9.747
  41.660         80.83	     9.849
  41.680         80.00	     9.798
  41.700         72.50	     9.327
  41.720         70.00	     9.165
  41.740         60.83	     8.544
  41.760         73.33	     9.381
  41.780         73.33	     9.381
  41.800         69.17	     9.110
  41.820         58.33	     8.367
  41.840         68.33	     9.055
  41.860         73.33	     9.381
  41.880         67.50	     9.000
  41.900         68.33	     9.055
  41.920         56.67	     8.246
  41.940         55.83	     8.185
  41.960         55.00	     8.124
  41.980         60.83	     8.544
  42.000         50.00	     7.746
  42.020         52.50	     7.937
  42.040         40.00	     6.928
  42.060         64.17	     8.775
  42.080         50.00	     7.746
  42.100         63.33	     8.718
  42.120         79.17	     9.747
  42.140         60.83	     8.544
  42.160         59.17	     8.426
  42.180         58.33	     8.367
  42.200         74.17	     9.434
  42.220         65.00	     8.832
  42.240         70.83	     9.220
  42.260         73.33	     9.381
  42.280        100.00	    10.954
  42.300        124.17	    12.207
  42.320        177.50	    14.595
  42.340        244.17	    17.117
  42.360        273.33	    18.111
  42.380        258.33	    17.607
  42.400        220.83	    16.279
  42.420        160.00	    13.856
  42.440        176.67	    14.560
  42.460        163.33	    14.000
  42.480        159.17	    13.820
  42.500        154.17	    13.601
  42.520        118.33	    11.916
  42.540         89.17	    10.344
  42.560         74.17	     9.434
  42.580         85.00	    10.100
  42.600         60.00	     8.485
  42.620         55.00	     8.124
  42.640         71.67	     9.274
  42.660         66.67	     8.944
  42.680         55.00	     8.124
  42.700         63.33	     8.718
  42.720         61.67	     8.602
  42.740         55.00	     8.124
  42.760         61.67	     8.602
  42.780         61.67	     8.602
  42.800         64.17	     8.775
  42.820         61.67	     8.602
  42.840         57.50	     8.307
  42.860         62.50	     8.660
  42.880         50.00	     7.746
  42.900         57.50	     8.307
  42.920         40.83	     7.000
  42.940         50.00	     7.746
  42.960         49.17	     7.681
  42.980         60.83	     8.544
  43.000         51.67	     7.874
  43.020         42.50	     7.141
  43.040         53.33	     8.000
  43.060         51.67	     7.874
  43.080         48.33	     7.616
  43.100         55.83	     8.185
  43.120         44.17	     7.280
  43.140         61.67	     8.602
  43.160         65.83	     8.888
  43.180         65.00	     8.832
  43.200         55.00	     8.124
  43.220         57.50	     8.307
  43.240         65.00	     8.832
  43.260         65.83	     8.888
  43.280         66.67	     8.944
  43.300         73.33	     9.381
  43.320         75.83	     9.539
  43.340         61.67	     8.602
  43.360         63.33	     8.718
  43.380         83.33	    10.000
  43.400         76.67	     9.592
  43.420         78.33	     9.695
  43.440         84.17	    10.050
  43.460         90.00	    10.392
  43.480         89.17	    10.344
  43.500        104.17	    11.180
  43.520         82.50	     9.950
  43.540        103.33	    11.136
  43.560        105.00	    11.225
  43.580         86.67	    10.198
  43.600        112.50	    11.619
  43.620        102.50	    11.091
  43.640         96.67	    10.770
  43.660         93.33	    10.583
  43.680        111.67	    11.576
  43.700         85.83	    10.149
  43.720        100.00	    10.954
  43.740         83.33	    10.000
  43.760         84.17	    10.050
  43.780         76.67	     9.592
  43.800         96.67	    10.770
  43.820         93.33	    10.583
  43.840        100.83	    11.000
  43.860         83.33	    10.000
  43.880        100.83	    11.000
  43.900         90.83	    10.440
  43.920         92.50	    10.536
  43.940         90.83	    10.440
  43.960        103.33	    11.136
  43.980         89.17	    10.344
  44.000        102.50	    11.091
  44.020        105.83	    11.269
  44.040        115.00	    11.747
  44.060        128.33	    12.410
  44.080        105.83	    11.269
  44.100        136.67	    12.806
  44.120        128.33	    12.410
  44.140        130.83	    12.530
  44.160        143.33	    13.115
  44.180        165.83	    14.107
  44.200        160.00	    13.856
  44.220        191.67	    15.166
  44.240        204.17	    15.652
  44.260        233.33	    16.733
  44.280        205.83	    15.716
  44.300        215.83	    16.093
  44.320        250.00	    17.321
  44.340        223.33	    16.371
  44.360        275.00	    18.166
  44.380        235.00	    16.793
  44.400        275.00	    18.166
  44.420        266.67	    17.889
  44.440        276.67	    18.221
  44.460        280.83	    18.358
  44.480        268.33	    17.944
  44.500        253.33	    17.436
  44.520        249.17	    17.292
  44.540        241.67	    17.029
  44.560        231.67	    16.673
  44.580        215.00	    16.062
  44.600        227.50	    16.523
  44.620        201.67	    15.556
  44.640        206.67	    15.748
  44.660        193.33	    15.232
  44.680        170.00	    14.283
  44.700        170.83	    14.318
  44.720        172.50	    14.387
  44.740        155.83	    13.675
  44.760        133.33	    12.649
  44.780        135.00	    12.728
  44.800        147.50	    13.304
  44.820        138.33	    12.884
  44.840        124.17	    12.207
  44.860        145.83	    13.229
  44.880        123.33	    12.166
  44.900        137.50	    12.845
  44.920        125.83	    12.288
  44.940        102.50	    11.091
  44.960         89.17	    10.344
  44.980        106.67	    11.314
  45.000         99.17	    10.909
  45.020         99.17	    10.909
  45.040         81.67	     9.899
  45.060        104.17	    11.180
  45.080         97.50	    10.817
  45.100         80.83	     9.849
  45.120         89.17	    10.344
  45.140         91.67	    10.488
  45.160         94.17	    10.630
  45.180         90.00	    10.392
  45.200         97.50	    10.817
  45.220         91.67	    10.488
  45.240         95.83	    10.724
  45.260        100.83	    11.000
  45.280         90.83	    10.440
  45.300        100.83	    11.000
  45.320         94.17	    10.630
  45.340        102.50	    11.091
  45.360        100.83	    11.000
  45.380        132.50	    12.610
  45.400        143.33	    13.115
  45.420        150.00	    13.416
  45.440        159.17	    13.820
  45.460        162.50	    13.964
  45.480        171.67	    14.353
  45.500        195.00	    15.297
  45.520        201.67	    15.556
  45.540        184.17	    14.866
  45.560        150.83	    13.454
  45.580        167.50	    14.177
  45.600        135.83	    12.767
  45.620        130.00	    12.490
  45.640        145.83	    13.229
  45.660        170.83	    14.318
  45.680        152.50	    13.528
  45.700        169.17	    14.248
  45.720        125.83	    12.288
  45.740        113.33	    11.662
  45.760         88.33	    10.296
  45.780         70.83	     9.220
  45.800        100.00	    10.954
  45.820        104.17	    11.180
  45.840        102.50	    11.091
  45.860         78.33	     9.695
  45.880         71.67	     9.274
  45.900         64.17	     8.775
  45.920         61.67	     8.602
  45.940         65.00	     8.832
  45.960         59.17	     8.426
  45.980         65.83	     8.888
  46.000         51.67	     7.874
  46.020         47.50	     7.550
  46.040         51.67	     7.874
  46.060         50.00	     7.746
  46.080         53.33	     8.000
  46.100         55.83	     8.185
  46.120         50.00	     7.746
  46.140         37.50	     6.708
  46.160         44.17	     7.280
  46.180         36.67	     6.633
  46.200         45.83	     7.416
  46.220         51.67	     7.874
  46.240         52.50	     7.937
  46.260         39.17	     6.856
  46.280         45.83	     7.416
  46.300         43.33	     7.211
  46.320         40.00	     6.928
  46.340         42.50	     7.141
  46.360         45.00	     7.348
  46.380         45.00	     7.348
  46.400         43.33	     7.211
  46.420         50.83	     7.810
  46.440         50.00	     7.746
  46.460         44.17	     7.280
  46.480         45.83	     7.416
  46.500         52.50	     7.937
  46.520         34.17	     6.403
  46.540         32.50	     6.245
  46.560         51.67	     7.874
  46.580         41.67	     7.071
  46.600         37.50	     6.708
  46.620         35.00	     6.481
  46.640         38.33	     6.782
  46.660         28.33	     5.831
  46.680         42.50	     7.141
  46.700         39.17	     6.856
  46.720         42.50	     7.141
  46.740         51.67	     7.874
  46.760         31.67	     6.164
  46.780         42.50	     7.141
  46.800         39.17	     6.856
  46.820         33.33	     6.325
  46.840         35.00	     6.481
  46.860         48.33	     7.616
  46.880         38.33	     6.782
  46.900         39.17	     6.856
  46.920         36.67	     6.633
  46.940         34.17	     6.403
  46.960         44.17	     7.280
  46.980         43.33	     7.211
  47.000         62.50	     8.660
  47.020         53.33	     8.000
  47.040         51.67	     7.874
  47.060         46.67	     7.483
  47.080         50.83	     7.810
  47.100         54.17	     8.062
  47.120         45.83	     7.416
  47.140         58.33	     8.367
  47.160         47.50	     7.550
  47.180         36.67	     6.633
  47.200         36.67	     6.633
  47.220         50.83	     7.810
  47.240         42.50	     7.141
  47.260         45.83	     7.416
  47.280         46.67	     7.483
  47.300         26.67	     5.657
  47.320         34.17	     6.403
  47.340         47.50	     7.550
  47.360         35.83	     6.557
  47.380         35.83	     6.557
  47.400         38.33	     6.782
  47.420         45.83	     7.416
  47.440         35.00	     6.481
  47.460         39.17	     6.856
  47.480         35.00	     6.481
  47.500         29.17	     5.916
  47.520         40.83	     7.000
  47.540         32.50	     6.245
  47.560         30.83	     6.083
  47.580         32.50	     6.245
  47.600         30.00	     6.000
  47.620         28.33	     5.831
  47.640         39.17	     6.856
  47.660         30.00	     6.000
  47.680         27.50	     5.745
  47.700         25.00	     5.477
  47.720         35.00	     6.481
  47.740         38.33	     6.782
  47.760         35.83	     6.557
  47.780         28.33	     5.831
  47.800         38.33	     6.782
  47.820         38.33	     6.782
  47.840         39.17	     6.856
  47.860         61.67	     8.602
  47.880         53.33	     8.000
  47.900         51.67	     7.874
  47.920         49.17	     7.681
  47.940         52.50	     7.937
  47.960         39.17	     6.856
  47.980         65.83	     8.888
  48.000         57.50	     8.307
  48.020         67.50	     9.000
  48.040         65.00	     8.832
  48.060         90.00	    10.392
  48.080        111.67	    11.576
  48.100         82.50	     9.950
  48.120         60.00	     8.485
  48.140         66.67	     8.944
  48.160         70.00	     9.165
  48.180         71.67	     9.274
  48.200         66.67	     8.944
  48.220         55.00	     8.124
  48.240         59.17	     8.426
  48.260         55.83	     8.185
  48.280         63.33	     8.718
  48.300         50.00	     7.746
  48.320         46.67	     7.483
  48.340         55.00	     8.124
  48.360         41.67	     7.071
  48.380         52.50	     7.937
  48.400         54.17	     8.062
  48.420         48.33	     7.616
  48.440         36.67	     6.633
  48.460         53.33	     8.000
  48.480         40.83	     7.000
  48.500         47.50	     7.550
  48.520         45.00	     7.348
  48.540         49.17	     7.681
  48.560         55.83	     8.185
  48.580         56.67	     8.246
  48.600         44.17	     7.280
  48.620         45.00	     7.348
  48.640         37.50	     6.708
  48.660         49.17	     7.681
  48.680         48.33	     7.616
  48.700         43.33	     7.211
  48.720         31.67	     6.164
  48.740         45.83	     7.416
  48.760         33.33	     6.325
  48.780         39.17	     6.856
  48.800         42.50	     7.141
  48.820         35.00	     6.481
  48.840         31.67	     6.164
  48.860         32.50	     6.245
  48.880         40.83	     7.000
  48.900         51.67	     7.874
  48.920         46.67	     7.483
  48.940         36.67	     6.633
  48.960         37.50	     6.708
  48.980         30.83	     6.083
  49.000         30.00	     6.000
  49.020         45.83	     7.416
  49.040         48.33	     7.616
  49.060         46.67	     7.483
  49.080         40.83	     7.000
  49.100         55.83	     8.185
  49.120         60.83	     8.544
  49.140         57.50	     8.307
  49.160         53.33	     8.000
  49.180         55.83	     8.185
  49.200         39.17	     6.856
  49.220         39.17	     6.856
  49.240         52.50	     7.937
  49.260         38.33	     6.782
  49.280         52.50	     7.937
  49.300         62.50	     8.660
  49.320         45.00	     7.348
  49.340         44.17	     7.280
  49.360         37.50	     6.708
  49.380         37.50	     6.708
  49.400         42.50	     7.141
  49.420         47.50	     7.550
  49.440         36.67	     6.633
  49.460         39.17	     6.856
  49.480         60.83	     8.544
  49.500         48.33	     7.616
  49.520         42.50	     7.141
  49.540         40.83	     7.000
  49.560         48.33	     7.616
  49.580         46.67	     7.483
  49.600         53.33	     8.000
  49.620         47.50	     7.550
  49.640         57.50	     8.307
  49.660         62.50	     8.660
  49.680         57.50	     8.307
  49.700         75.83	     9.539
  49.720         60.83	     8.544
  49.740         61.67	     8.602
  49.760         75.00	     9.487
  49.780         79.17	     9.747
  49.800         83.33	    10.000
  49.820         76.67	     9.592
  49.840         80.00	     9.798
  49.860         80.00	     9.798
  49.880         69.17	     9.110
  49.900         91.67	    10.488
  49.920         88.33	    10.296
  49.940         89.17	    10.344
  49.960        108.33	    11.402
  49.980        144.17	    13.153
  50.000        192.50	    15.199
  50.020        278.33	    18.276
  50.040        410.00	    22.181
  50.060        313.33	    19.391
  50.080        232.50	    16.703
  50.100        149.17	    13.379
  50.120        131.67	    12.570
  50.140        167.50	    14.177
  50.160        200.83	    15.524
  50.180        190.00	    15.100
  50.200        186.67	    14.967
  50.220        128.33	    12.410
  50.240         72.50	     9.327
  50.260         67.50	     9.000
  50.280         60.83	     8.544
  50.300         48.33	     7.616
  50.320         63.33	     8.718
  50.340         45.00	     7.348
  50.360         55.00	     8.124
  50.380         55.83	     8.185
  50.400         63.33	     8.718
  50.420         70.00	     9.165
  50.440         70.00	     9.165
  50.460         75.83	     9.539
  50.480         95.00	    10.677
  50.500         95.00	    10.677
  50.520         95.83	    10.724
  50.540         99.17	    10.909
  50.560         79.17	     9.747
  50.580         94.17	    10.630
  50.600         77.50	     9.644
  50.620         75.00	     9.487
  50.640        109.17	    11.446
  50.660         95.83	    10.724
  50.680         70.00	     9.165
  50.700         67.50	     9.000
  50.720         60.83	     8.544
  50.740         50.83	     7.810
  50.760         63.33	     8.718
  50.780         47.50	     7.550
  50.800         47.50	     7.550
  50.820         45.83	     7.416
  50.840         46.67	     7.483
  50.860         37.50	     6.708
  50.880         45.83	     7.416
  50.900         45.83	     7.416
  50.920         51.67	     7.874
  50.940         48.33	     7.616
  50.960         42.50	     7.141
  50.980         59.17	     8.426
  51.000         60.00	     8.485
  51.020         75.83	     9.539
  51.040         90.83	    10.440
  51.060         74.17	     9.434
  51.080         72.50	     9.327
  51.100         69.17	     9.110
  51.120         66.67	     8.944
  51.140         65.00	     8.832
  51.160         64.17	     8.775
  51.180         70.00	     9.165
  51.200         65.83	     8.888
  51.220         61.67	     8.602
  51.240         51.67	     7.874
  51.260         51.67	     7.874
  51.280         50.83	     7.810
  51.300         39.17	     6.856
  51.320         42.50	     7.141
  51.340         33.33	     6.325
  51.360         38.33	     6.782
  51.380         31.67	     6.164
  51.400         48.33	     7.616
  51.420         40.83	     7.000
  51.440         42.50	     7.141
  51.460         40.00	     6.928
  51.480         29.17	     5.916
  51.500         27.50	     5.745
  51.520         35.00	     6.481
  51.540         28.33	     5.831
  51.560         33.33	     6.325
  51.580         38.33	     6.782
  51.600         42.50	     7.141
  51.620         38.33	     6.782
  51.640         35.00	     6.481
  51.660         40.83	     7.000
  51.680         34.17	     6.403
  51.700         39.17	     6.856
  51.720         36.67	     6.633
  51.740         35.83	     6.557
  51.760         38.33	     6.782
  51.780         32.50	     6.245
  51.800         27.50	     5.745
  51.820         36.67	     6.633
  51.840         32.50	     6.245
  51.860         34.17	     6.403
  51.880         30.83	     6.083
  51.900         30.83	     6.083
  51.920         35.83	     6.557
  51.940         33.33	     6.325
  51.960         35.00	     6.481
  51.980         40.83	     7.000
  52.000         56.67	     8.246
  52.020         50.83	     7.810
  52.040         70.83	     9.220
  52.060         66.67	     8.944
  52.080         62.50	     8.660
  52.100         43.33	     7.211
  52.120         46.67	     7.483
  52.140         55.00	     8.124
  52.160         48.33	     7.616
  52.180         66.67	     8.944
  52.200         62.50	     8.660
  52.220         60.83	     8.544
  52.240         80.83	     9.849
  52.260         70.83	     9.220
  52.280         51.67	     7.874
  52.300         61.67	     8.602
  52.320         46.67	     7.483
  52.340         60.00	     8.485
  52.360         53.33	     8.000
  52.380         50.00	     7.746
  52.400         77.50	     9.644
  52.420         71.67	     9.274
  52.440         82.50	     9.950
  52.460         90.83	    10.440
  52.480         82.50	     9.950
  52.500         67.50	     9.000
  52.520         60.83	     8.544
  52.540         56.67	     8.246
  52.560         52.50	     7.937
  52.580         65.83	     8.888
  52.600         62.50	     8.660
  52.620         60.83	     8.544
  52.640         36.67	     6.633
  52.660         41.67	     7.071
  52.680         51.67	     7.874
  52.700         50.83	     7.810
  52.720         36.67	     6.633
  52.740         53.33	     8.000
  52.760         41.67	     7.071
  52.780         50.00	     7.746
  52.800         47.50	     7.550
  52.820         44.17	     7.280
  52.840         41.67	     7.071
  52.860         50.83	     7.810
  52.880         35.00	     6.481
  52.900         44.17	     7.280
  52.920         52.50	     7.937
  52.940         54.17	     8.062
  52.960         51.67	     7.874
  52.980         49.17	     7.681
  53.000         41.67	     7.071
  53.020         45.00	     7.348
  53.040         56.67	     8.246
  53.060         55.83	     8.185
  53.080         60.83	     8.544
  53.100         50.00	     7.746
  53.120         42.50	     7.141
  53.140         41.67	     7.071
  53.160         45.00	     7.348
  53.180         37.50	     6.708
  53.200         45.00	     7.348
  53.220         48.33	     7.616
  53.240         44.17	     7.280
  53.260         51.67	     7.874
  53.280         42.50	     7.141
  53.300         35.83	     6.557
  53.320         40.83	     7.000
  53.340         41.67	     7.071
  53.360         34.17	     6.403
  53.380         34.17	     6.403
  53.400         37.50	     6.708
  53.420         37.50	     6.708
  53.440         46.67	     7.483
  53.460         35.83	     6.557
  53.480         29.17	     5.916
  53.500         32.50	     6.245
  53.520         32.50	     6.245
  53.540         38.33	     6.782
  53.560         31.67	     6.164
  53.580         47.50	     7.550
  53.600         25.83	     5.568
  53.620         45.83	     7.416
  53.640         39.17	     6.856
  53.660         41.67	     7.071
  53.680         42.50	     7.141
  53.700         43.33	     7.211
  53.720         39.17	     6.856
  53.740         30.83	     6.083
  53.760         40.00	     6.928
  53.780         35.00	     6.481
  53.800         43.33	     7.211
  53.820         43.33	     7.211
  53.840         36.67	     6.633
  53.860         47.50	     7.550
  53.880         40.83	     7.000
  53.900         39.17	     6.856
  53.920         48.33	     7.616
  53.940         40.83	     7.000
  53.960         40.83	     7.000
  53.980         35.00	     6.481
  54.000         40.83	     7.000
  54.020         36.67	     6.633
  54.040         42.50	     7.141
  54.060         33.33	     6.325
  54.080         29.17	     5.916
  54.100         39.17	     6.856
  54.120         40.00	     6.928
  54.140         45.00	     7.348
  54.160         28.33	     5.831
  54.180         35.00	     6.481
  54.200         35.83	     6.557
  54.220         42.50	     7.141
  54.240         39.17	     6.856
  54.260         45.83	     7.416
  54.280         45.00	     7.348
  54.300         46.67	     7.483
  54.320         48.33	     7.616
  54.340         55.00	     8.124
  54.360         53.33	     8.000
  54.380         52.50	     7.937
  54.400         54.17	     8.062
  54.420         49.17	     7.681
  54.440         56.67	     8.246
  54.460         48.33	     7.616
  54.480         50.83	     7.810
  54.500         50.83	     7.810
  54.520         55.83	     8.185
  54.540         46.67	     7.483
  54.560         54.17	     8.062
  54.580         49.17	     7.681
  54.600         53.33	     8.000
  54.620         45.83	     7.416
  54.640         61.67	     8.602
  54.660         61.67	     8.602
  54.680         51.67	     7.874
  54.700         79.17	     9.747
  54.720         95.00	    10.677
  54.740        120.00	    12.000
  54.760        138.33	    12.884
  54.780        160.83	    13.892
  54.800        139.17	    12.923
  54.820        100.83	    11.000
  54.840         88.33	    10.296
  54.860         85.83	    10.149
  54.880         80.83	     9.849
  54.900        100.83	    11.000
  54.920         98.33	    10.863
  54.940        112.50	    11.619
  54.960         77.50	     9.644
  54.980         82.50	     9.950
  55.000         57.50	     8.307
  55.020         46.67	     7.483
  55.040         48.33	     7.616
  55.060         50.00	     7.746
  55.080         45.00	     7.348
  55.100         60.83	     8.544
  55.120         63.33	     8.718
  55.140         45.83	     7.416
  55.160         54.17	     8.062
  55.180         73.33	     9.381
  55.200         83.33	    10.000
  55.220        103.33	    11.136
  55.240        120.00	    12.000
  55.260        100.00	    10.954
  55.280         79.17	     9.747
  55.300         66.67	     8.944
  55.320         54.17	     8.062
  55.340         69.17	     9.110
  55.360         83.33	    10.000
  55.380         74.17	     9.434
  55.400         96.67	    10.770
  55.420         56.67	     8.246
  55.440         53.33	     8.000
  55.460         43.33	     7.211
  55.480         56.67	     8.246
  55.500         45.83	     7.416
  55.520         58.33	     8.367
  55.540         55.83	     8.185
  55.560         60.83	     8.544
  55.580         75.00	     9.487
  55.600         57.50	     8.307
  55.620         65.83	     8.888
  55.640         65.83	     8.888
  55.660         64.17	     8.775
  55.680         65.83	     8.888
  55.700         72.50	     9.327
  55.720         87.50	    10.247
  55.740         69.17	     9.110
  55.760         54.17	     8.062
  55.780         79.17	     9.747
  55.800         55.83	     8.185
  55.820         61.67	     8.602
  55.840         55.00	     8.124
  55.860         65.00	     8.832
  55.880         67.50	     9.000
  55.900         51.67	     7.874
  55.920         47.50	     7.550
  55.940         53.33	     8.000
  55.960         50.00	     7.746
  55.980         45.83	     7.416
  56.000         47.50	     7.550
  56.020         46.67	     7.483
  56.040         41.67	     7.071
  56.060         48.33	     7.616
  56.080         38.33	     6.782
  56.100         48.33	     7.616
  56.120         39.17	     6.856
  56.140         43.33	     7.211
  56.160         43.33	     7.211
  56.180         50.00	     7.746
  56.200         45.00	     7.348
  56.220         43.33	     7.211
  56.240         39.17	     6.856
  56.260         40.83	     7.000
  56.280         40.00	     6.928
  56.300         45.83	     7.416
  56.320         58.33	     8.367
  56.340         39.17	     6.856
  56.360         47.50	     7.550
  56.380         40.83	     7.000
  56.400         43.33	     7.211
  56.420         49.17	     7.681
  56.440         58.33	     8.367
  56.460         55.83	     8.185
  56.480         77.50	     9.644
  56.500        106.67	    11.314
  56.520        150.00	    13.416
  56.540        155.83	    13.675
  56.560         86.67	    10.198
  56.580         50.00	     7.746
  56.600         50.83	     7.810
  56.620         61.67	     8.602
  56.640         62.50	     8.660
  56.660        104.17	    11.180
  56.680        105.83	    11.269
  56.700         85.00	    10.100
  56.720         57.50	     8.307
  56.740         55.83	     8.185
  56.760         51.67	     7.874
  56.780         50.00	     7.746
  56.800         44.17	     7.280
  56.820         34.17	     6.403
  56.840         43.33	     7.211
  56.860         27.50	     5.745
  56.880         41.67	     7.071
  56.900         31.67	     6.164
  56.920         49.17	     7.681
  56.940         34.17	     6.403
  56.960         45.00	     7.348
  56.980         35.00	     6.481
  57.000         32.50	     6.245
  57.020         37.50	     6.708
  57.040         42.50	     7.141
  57.060         48.33	     7.616
  57.080         50.00	     7.746
  57.100         53.33	     8.000
  57.120         66.67	     8.944
  57.140         64.17	     8.775
  57.160         51.67	     7.874
  57.180         43.33	     7.211
  57.200         50.83	     7.810
  57.220         38.33	     6.782
  57.240         34.17	     6.403
  57.260         42.50	     7.141
  57.280         47.50	     7.550
  57.300         43.33	     7.211
  57.320         42.50	     7.141
  57.340         42.50	     7.141
  57.360         38.33	     6.782
  57.380         41.67	     7.071
  57.400         46.67	     7.483
  57.420         41.67	     7.071
  57.440         42.50	     7.141
  57.460         26.67	     5.657
  57.480         36.67	     6.633
  57.500         40.83	     7.000
  57.520         37.50	     6.708
  57.540         50.00	     7.746
  57.560         40.00	     6.928
  57.580         40.83	     7.000
  57.600         42.50	     7.141
  57.620         43.33	     7.211
  57.640         36.67	     6.633
  57.660         40.00	     6.928
  57.680         40.83	     7.000
  57.700         34.17	     6.403
  57.720         42.50	     7.141
  57.740         39.17	     6.856
  57.760         38.33	     6.782
  57.780         36.67	     6.633
  57.800         42.50	     7.141
  57.820         35.00	     6.481
  57.840         30.00	     6.000
  57.860         42.50	     7.141
  57.880         35.83	     6.557
  57.900         36.67	     6.633
  57.920         30.83	     6.083
  57.940         51.67	     7.874
  57.960         40.83	     7.000
  57.980         35.83	     6.557
  58.000         40.00	     6.928
  58.020         42.50	     7.141
  58.040         45.83	     7.416
  58.060         39.17	     6.856
  58.080         41.67	     7.071
  58.100         35.83	     6.557
  58.120         46.67	     7.483
  58.140         40.83	     7.000
  58.160         43.33	     7.211
  58.180         30.83	     6.083
  58.200         39.17	     6.856
  58.220         46.67	     7.483
  58.240         35.00	     6.481
  58.260         32.50	     6.245
  58.280         34.17	     6.403
  58.300         40.83	     7.000
  58.320         33.33	     6.325
  58.340         34.17	     6.403
  58.360         38.33	     6.782
  58.380         42.50	     7.141
  58.400         56.67	     8.246
  58.420         44.17	     7.280
  58.440         48.33	     7.616
  58.460         47.50	     7.550
  58.480         55.00	     8.124
  58.500         46.67	     7.483
  58.520         50.00	     7.746
  58.540         58.33	     8.367
  58.560         48.33	     7.616
  58.580         60.00	     8.485
  58.600         49.17	     7.681
  58.620         57.50	     8.307
  58.640         56.67	     8.246
  58.660         60.00	     8.485
  58.680         68.33	     9.055
  58.700         72.50	     9.327
  58.720         50.83	     7.810
  58.740         59.17	     8.426
  58.760         55.00	     8.124
  58.780         47.50	     7.550
  58.800         47.50	     7.550
  58.820         45.83	     7.416
  58.840         52.50	     7.937
  58.860         44.17	     7.280
  58.880         46.67	     7.483
  58.900         40.83	     7.000
  58.920         55.00	     8.124
  58.940         47.50	     7.550
  58.960         63.33	     8.718
  58.980         59.17	     8.426
  59.000         65.00	     8.832
  59.020         59.17	     8.426
  59.040         71.67	     9.274
  59.060         71.67	     9.274
  59.080         50.00	     7.746
  59.100         65.00	     8.832
  59.120         72.50	     9.327
  59.140         56.67	     8.246
  59.160         82.50	     9.950
  59.180         62.50	     8.660
  59.200         59.17	     8.426
  59.220         50.00	     7.746
  59.240         57.50	     8.307
  59.260         53.33	     8.000
  59.280         49.17	     7.681
  59.300         48.33	     7.616
  59.320         56.67	     8.246
  59.340         50.00	     7.746
  59.360         51.67	     7.874
  59.380         50.83	     7.810
  59.400         48.33	     7.616
  59.420         45.00	     7.348
  59.440         49.17	     7.681
  59.460         35.83	     6.557
  59.480         39.17	     6.856
  59.500         49.17	     7.681
  59.520         46.67	     7.483
  59.540         43.33	     7.211
  59.560         48.33	     7.616
  59.580         45.00	     7.348
  59.600         51.67	     7.874
  59.620         58.33	     8.367
  59.640         65.83	     8.888
  59.660         66.67	     8.944
  59.680         75.00	     9.487
  59.700         52.50	     7.937
  59.720         68.33	     9.055
  59.740         73.33	     9.381
  59.760         90.00	    10.392
  59.780        123.33	    12.166
  59.800        172.50	    14.387
  59.820        213.33	    16.000
  59.840        380.83	    21.378
  59.860        415.83	    22.338
  59.880        358.33	    20.736
  59.900        280.83	    18.358
  59.920        203.33	    15.620
  59.940        150.83	    13.454
  59.960        136.67	    12.806
  59.980        152.50	    13.528
  60.000        204.17	    15.652
  60.020        224.17	    16.401
  60.040        214.17	    16.031
  60.060        173.33	    14.422
  60.080        120.83	    12.042
  60.100         89.17	    10.344
  60.120         82.50	     9.950
  60.140         68.33	     9.055
  60.160         63.33	     8.718
  60.180         70.00	     9.165
  60.200         85.00	    10.100
  60.220         62.50	     8.660
  60.240         55.83	     8.185
  60.260         54.17	     8.062
  60.280         51.67	     7.874
  60.300         51.67	     7.874
  60.320         46.67	     7.483
  60.340         45.00	     7.348
  60.360         50.00	     7.746
  60.380         65.83	     8.888
  60.400         48.33	     7.616
  60.420         60.00	     8.485
  60.440         48.33	     7.616
  60.460         60.83	     8.544
  60.480         56.67	     8.246
  60.500         50.00	     7.746
  60.520         53.33	     8.000
  60.540         51.67	     7.874
  60.560         72.50	     9.327
  60.580         65.00	     8.832
  60.600         60.00	     8.485
  60.620         64.17	     8.775
  60.640         54.17	     8.062
  60.660         49.17	     7.681
  60.680         61.67	     8.602
  60.700         64.17	     8.775
  60.720         54.17	     8.062
  60.740         58.33	     8.367
  60.760         62.50	     8.660
  60.780         67.50	     9.000
  60.800         64.17	     8.775
  60.820         54.17	     8.062
  60.840         64.17	     8.775
  60.860         57.50	     8.307
  60.880         60.83	     8.544
  60.900         66.67	     8.944
  60.920         49.17	     7.681
  60.940         64.17	     8.775
  60.960         58.33	     8.367
  60.980         56.67	     8.246
  61.000         56.67	     8.246
  61.020         65.00	     8.832
  61.040         56.67	     8.246
  61.060         46.67	     7.483
  61.080         62.50	     8.660
  61.100         52.50	     7.937
  61.120         47.50	     7.550
  61.140         48.33	     7.616
  61.160         53.33	     8.000
  61.180         46.67	     7.483
  61.200         62.50	     8.660
  61.220         54.17	     8.062
  61.240         52.50	     7.937
  61.260         57.50	     8.307
  61.280         66.67	     8.944
  61.300         55.00	     8.124
  61.320         68.33	     9.055
  61.340         58.33	     8.367
  61.360         69.17	     9.110
  61.380         70.83	     9.220
  61.400         66.67	     8.944
  61.420         83.33	    10.000
  61.440         55.00	     8.124
  61.460         78.33	     9.695
  61.480         71.67	     9.274
  61.500         75.83	     9.539
  61.520         68.33	     9.055
  61.540         65.00	     8.832
  61.560         73.33	     9.381
  61.580         60.00	     8.485
  61.600         59.17	     8.426
  61.620         64.17	     8.775
  61.640         79.17	     9.747
  61.660         63.33	     8.718
  61.680         64.17	     8.775
  61.700         56.67	     8.246
  61.720         75.00	     9.487
  61.740         70.00	     9.165
  61.760         73.33	     9.381
  61.780         95.83	    10.724
  61.800         80.83	     9.849
  61.820         87.50	    10.247
  61.840         71.67	     9.274
  61.860         59.17	     8.426
  61.880         56.67	     8.246
  61.900         65.00	     8.832
  61.920         80.00	     9.798
  61.940         80.00	     9.798
  61.960         65.83	     8.888
  61.980         54.17	     8.062
  62.000         63.33	     8.718
  62.020         52.50	     7.937
  62.040         44.17	     7.280
  62.060         38.33	     6.782
  62.080         45.00	     7.348
  62.100         51.67	     7.874
  62.120         50.83	     7.810
  62.140         35.83	     6.557
  62.160         36.67	     6.633
  62.180         48.33	     7.616
  62.200         42.50	     7.141
  62.220         36.67	     6.633
  62.240         46.67	     7.483
  62.260         41.67	     7.071
  62.280         42.50	     7.141
  62.300         45.83	     7.416
  62.320         47.50	     7.550
  62.340         43.33	     7.211
  62.360         45.83	     7.416
  62.380         45.00	     7.348
  62.400         26.67	     5.657
  62.420         49.17	     7.681
  62.440         40.83	     7.000
  62.460         42.50	     7.141
  62.480         45.83	     7.416
  62.500         40.00	     6.928
  62.520         42.50	     7.141
  62.540         40.00	     6.928
  62.560         38.33	     6.782
  62.580         47.50	     7.550
  62.600         41.67	     7.071
  62.620         55.83	     8.185
  62.640         40.83	     7.000
  62.660         43.33	     7.211
  62.680         37.50	     6.708
  62.700         35.83	     6.557
  62.720         45.00	     7.348
  62.740         41.67	     7.071
  62.760         33.33	     6.325
  62.780         51.67	     7.874
  62.800         31.67	     6.164
  62.820         35.83	     6.557
  62.840         38.33	     6.782
  62.860         38.33	     6.782
  62.880         39.17	     6.856
  62.900         43.33	     7.211
  62.920         33.33	     6.325
  62.940         30.83	     6.083
  62.960         44.17	     7.280
  62.980         36.67	     6.633
  63.000         43.33	     7.211
  63.020         46.67	     7.483
  63.040         43.33	     7.211
  63.060         37.50	     6.708
  63.080         47.50	     7.550
  63.100         38.33	     6.782
  63.120         36.67	     6.633
  63.140         44.17	     7.280
  63.160         37.50	     6.708
  63.180         42.50	     7.141
  63.200         33.33	     6.325
  63.220         43.33	     7.211
  63.240         35.83	     6.557
  63.260         41.67	     7.071
  63.280         46.67	     7.483
  63.300         40.00	     6.928
  63.320         58.33	     8.367
  63.340         55.00	     8.124
  63.360         46.67	     7.483
  63.380         63.33	     8.718
  63.400         45.00	     7.348
  63.420         53.33	     8.000
  63.440         36.67	     6.633
  63.460         44.17	     7.280
  63.480         49.17	     7.681
  63.500         45.83	     7.416
  63.520         54.17	     8.062
  63.540         50.00	     7.746
  63.560         55.83	     8.185
  63.580         61.67	     8.602
  63.600         57.50	     8.307
  63.620         58.33	     8.367
  63.640         55.83	     8.185
  63.660         54.17	     8.062
  63.680         52.50	     7.937
  63.700         33.33	     6.325
  63.720         62.50	     8.660
  63.740         49.17	     7.681
  63.760         60.00	     8.485
  63.780         65.83	     8.888
  63.800         56.67	     8.246
  63.820         60.83	     8.544
  63.840         69.17	     9.110
  63.860         66.67	     8.944
  63.880         55.83	     8.185
  63.900         65.83	     8.888
  63.920         68.33	     9.055
  63.940         96.67	    10.770
  63.960         91.67	    10.488
  63.980         78.33	     9.695
  64.000         56.67	     8.246
  64.020         61.67	     8.602
  64.040         78.33	     9.695
  64.060         61.67	     8.602
  64.080         70.00	     9.165
  64.100         58.33	     8.367
  64.120         65.83	     8.888
  64.140         74.17	     9.434
  64.160         72.50	     9.327
  64.180         53.33	     8.000
  64.200         53.33	     8.000
  64.220         55.00	     8.124
  64.240         45.83	     7.416
  64.260         50.00	     7.746
  64.280         48.33	     7.616
  64.300         55.00	     8.124
  64.320         54.17	     8.062
  64.340         56.67	     8.246
  64.360         48.33	     7.616
  64.380         47.50	     7.550
  64.400         44.17	     7.280
  64.420         55.00	     8.124
  64.440         49.17	     7.681
  64.460         57.50	     8.307
  64.480         50.00	     7.746
  64.500         51.67	     7.874
  64.520         45.00	     7.348
  64.540         60.83	     8.544
  64.560         60.83	     8.544
  64.580         59.17	     8.426
  64.600         47.50	     7.550
  64.620         56.67	     8.246
  64.640         55.00	     8.124
  64.660         59.17	     8.426
  64.680         64.17	     8.775
  64.700         59.17	     8.426
  64.720         59.17	     8.426
  64.740         83.33	    10.000
  64.760         70.00	     9.165
  64.780         63.33	     8.718
  64.800         66.67	     8.944
  64.820         64.17	     8.775
  64.840         63.33	     8.718
  64.860         70.00	     9.165
  64.880         56.67	     8.246
  64.900         51.67	     7.874
  64.920         60.83	     8.544
  64.940         72.50	     9.327
  64.960         75.00	     9.487
  64.980         65.83	     8.888
  65.000         65.00	     8.832
