
Filename:
	C:\Program Files\Thermo Electron\WinXRD\Datafiles\F_HERMAN\GEO\G37_RT.raw

File Created:
	February 18, 2020 - 08:15 PM

Specimen Id:
	G37_RT

Specimen Name:
	

Specimen Description:
	

Comment:
Scan Type: 2Theta Scan
Start Angle: 3 deg.
Stop Angle: 65 deg.
Num Points: 3101
Step Size: 0.02 deg.
Scan Rate: 1.000000
Scan Mode: Continuous
Wavelength: 1.540562
\Kalpha1: 1.540562	\Kalpha2: 1.544390	\Kbeta: 1.392218

Optics:
		Detector:
			 Type: Fixed Slits
		Tube: 
			 Type: Fixed Slits


Datas:
 Pos [deg]       Rate [CPS]      ESD [-]

Range 1 ---> Iteration 1
   3.000        425.83	    22.605
   3.020        394.17	    21.749
   3.040        415.83	    22.338
   3.060        388.33	    21.587
   3.080        418.33	    22.405
   3.100        381.67	    21.401
   3.120        390.83	    21.656
   3.140        410.00	    22.181
   3.160        385.83	    21.517
   3.180        371.67	    21.119
   3.200        380.00	    21.354
   3.220        373.33	    21.166
   3.240        376.67	    21.260
   3.260        385.83	    21.517
   3.280        360.00	    20.785
   3.300        360.83	    20.809
   3.320        360.83	    20.809
   3.340        373.33	    21.166
   3.360        368.33	    21.024
   3.380        345.83	    20.372
   3.400        373.33	    21.166
   3.420        380.00	    21.354
   3.440        347.50	    20.421
   3.460        384.17	    21.471
   3.480        339.17	    20.174
   3.500        335.00	    20.050
   3.520        341.67	    20.248
   3.540        317.50	    19.519
   3.560        340.00	    20.199
   3.580        305.00	    19.131
   3.600        341.67	    20.248
   3.620        344.17	    20.322
   3.640        306.67	    19.183
   3.660        317.50	    19.519
   3.680        306.67	    19.183
   3.700        318.33	    19.545
   3.720        315.00	    19.442
   3.740        302.50	    19.053
   3.760        295.83	    18.841
   3.780        304.17	    19.105
   3.800        292.50	    18.735
   3.820        288.33	    18.601
   3.840        311.67	    19.339
   3.860        281.67	    18.385
   3.880        310.83	    19.313
   3.900        328.33	    19.849
   3.920        304.17	    19.105
   3.940        281.67	    18.385
   3.960        276.67	    18.221
   3.980        317.50	    19.519
   4.000        278.33	    18.276
   4.020        276.67	    18.221
   4.040        290.00	    18.655
   4.060        285.83	    18.520
   4.080        278.33	    18.276
   4.100        260.83	    17.692
   4.120        280.00	    18.330
   4.140        268.33	    17.944
   4.160        282.50	    18.412
   4.180        277.50	    18.248
   4.200        295.00	    18.815
   4.220        288.33	    18.601
   4.240        257.50	    17.578
   4.260        260.83	    17.692
   4.280        288.33	    18.601
   4.300        302.50	    19.053
   4.320        240.00	    16.971
   4.340        264.17	    17.804
   4.360        232.50	    16.703
   4.380        245.00	    17.146
   4.400        283.33	    18.439
   4.420        264.17	    17.804
   4.440        250.83	    17.349
   4.460        260.83	    17.692
   4.480        254.17	    17.464
   4.500        230.83	    16.643
   4.520        239.17	    16.941
   4.540        274.17	    18.138
   4.560        277.50	    18.248
   4.580        245.00	    17.146
   4.600        235.00	    16.793
   4.620        235.83	    16.823
   4.640        228.33	    16.553
   4.660        210.00	    15.875
   4.680        245.00	    17.146
   4.700        239.17	    16.941
   4.720        253.33	    17.436
   4.740        212.50	    15.969
   4.760        230.83	    16.643
   4.780        236.67	    16.852
   4.800        231.67	    16.673
   4.820        241.67	    17.029
   4.840        230.00	    16.613
   4.860        230.00	    16.613
   4.880        206.67	    15.748
   4.900        242.50	    17.059
   4.920        201.67	    15.556
   4.940        225.00	    16.432
   4.960        220.83	    16.279
   4.980        225.83	    16.462
   5.000        228.33	    16.553
   5.020        223.33	    16.371
   5.040        244.17	    17.117
   5.060        225.83	    16.462
   5.080        219.17	    16.217
   5.100        216.67	    16.125
   5.120        227.50	    16.523
   5.140        224.17	    16.401
   5.160        226.67	    16.492
   5.180        196.67	    15.362
   5.200        195.00	    15.297
   5.220        214.17	    16.031
   5.240        205.00	    15.684
   5.260        212.50	    15.969
   5.280        191.67	    15.166
   5.300        195.00	    15.297
   5.320        195.00	    15.297
   5.340        207.50	    15.780
   5.360        215.00	    16.062
   5.380        200.83	    15.524
   5.400        202.50	    15.588
   5.420        220.83	    16.279
   5.440        213.33	    16.000
   5.460        213.33	    16.000
   5.480        223.33	    16.371
   5.500        195.83	    15.330
   5.520        207.50	    15.780
   5.540        189.17	    15.067
   5.560        203.33	    15.620
   5.580        190.00	    15.100
   5.600        195.00	    15.297
   5.620        201.67	    15.556
   5.640        202.50	    15.588
   5.660        187.50	    15.000
   5.680        167.50	    14.177
   5.700        200.83	    15.524
   5.720        192.50	    15.199
   5.740        193.33	    15.232
   5.760        200.83	    15.524
   5.780        189.17	    15.067
   5.800        178.33	    14.629
   5.820        190.83	    15.133
   5.840        185.00	    14.900
   5.860        180.00	    14.697
   5.880        200.83	    15.524
   5.900        195.00	    15.297
   5.920        170.83	    14.318
   5.940        184.17	    14.866
   5.960        200.00	    15.492
   5.980        196.67	    15.362
   6.000        165.83	    14.107
   6.020        157.50	    13.748
   6.040        180.00	    14.697
   6.060        193.33	    15.232
   6.080        172.50	    14.387
   6.100        180.83	    14.731
   6.120        179.17	    14.663
   6.140        193.33	    15.232
   6.160        175.00	    14.491
   6.180        204.17	    15.652
   6.200        199.17	    15.460
   6.220        194.17	    15.264
   6.240        190.00	    15.100
   6.260        197.50	    15.395
   6.280        184.17	    14.866
   6.300        176.67	    14.560
   6.320        172.50	    14.387
   6.340        160.00	    13.856
   6.360        170.83	    14.318
   6.380        188.33	    15.033
   6.400        180.83	    14.731
   6.420        169.17	    14.248
   6.440        176.67	    14.560
   6.460        173.33	    14.422
   6.480        167.50	    14.177
   6.500        171.67	    14.353
   6.520        165.83	    14.107
   6.540        160.83	    13.892
   6.560        150.83	    13.454
   6.580        152.50	    13.528
   6.600        155.00	    13.638
   6.620        158.33	    13.784
   6.640        160.00	    13.856
   6.660        157.50	    13.748
   6.680        159.17	    13.820
   6.700        153.33	    13.565
   6.720        170.00	    14.283
   6.740        154.17	    13.601
   6.760        164.17	    14.036
   6.780        160.83	    13.892
   6.800        145.83	    13.229
   6.820        149.17	    13.379
   6.840        153.33	    13.565
   6.860        176.67	    14.560
   6.880        156.67	    13.711
   6.900        156.67	    13.711
   6.920        164.17	    14.036
   6.940        172.50	    14.387
   6.960        145.83	    13.229
   6.980        177.50	    14.595
   7.000        171.67	    14.353
   7.020        164.17	    14.036
   7.040        145.83	    13.229
   7.060        168.33	    14.213
   7.080        155.83	    13.675
   7.100        150.00	    13.416
   7.120        176.67	    14.560
   7.140        130.00	    12.490
   7.160        152.50	    13.528
   7.180        129.17	    12.450
   7.200        160.00	    13.856
   7.220        127.50	    12.369
   7.240        153.33	    13.565
   7.260        135.83	    12.767
   7.280        142.50	    13.077
   7.300        151.67	    13.491
   7.320        134.17	    12.689
   7.340        140.83	    13.000
   7.360        127.50	    12.369
   7.380        162.50	    13.964
   7.400        137.50	    12.845
   7.420        131.67	    12.570
   7.440        162.50	    13.964
   7.460        136.67	    12.806
   7.480        129.17	    12.450
   7.500        138.33	    12.884
   7.520        139.17	    12.923
   7.540        140.00	    12.961
   7.560        150.00	    13.416
   7.580        122.50	    12.124
   7.600        125.83	    12.288
   7.620        158.33	    13.784
   7.640        144.17	    13.153
   7.660        155.83	    13.675
   7.680        131.67	    12.570
   7.700        150.83	    13.454
   7.720        117.50	    11.874
   7.740        149.17	    13.379
   7.760        135.83	    12.767
   7.780        133.33	    12.649
   7.800        132.50	    12.610
   7.820        124.17	    12.207
   7.840        126.67	    12.329
   7.860        131.67	    12.570
   7.880        140.00	    12.961
   7.900        136.67	    12.806
   7.920        130.00	    12.490
   7.940        121.67	    12.083
   7.960        116.67	    11.832
   7.980        124.17	    12.207
   8.000        129.17	    12.450
   8.020        125.00	    12.247
   8.040        158.33	    13.784
   8.060        134.17	    12.689
   8.080        115.00	    11.747
   8.100        131.67	    12.570
   8.120        140.00	    12.961
   8.140        117.50	    11.874
   8.160        132.50	    12.610
   8.180        108.33	    11.402
   8.200        137.50	    12.845
   8.220        121.67	    12.083
   8.240        124.17	    12.207
   8.260        136.67	    12.806
   8.280        134.17	    12.689
   8.300        140.00	    12.961
   8.320        126.67	    12.329
   8.340        117.50	    11.874
   8.360        116.67	    11.832
   8.380        125.00	    12.247
   8.400        135.83	    12.767
   8.420        140.83	    13.000
   8.440        128.33	    12.410
   8.460        151.67	    13.491
   8.480        120.00	    12.000
   8.500        136.67	    12.806
   8.520        123.33	    12.166
   8.540        138.33	    12.884
   8.560        136.67	    12.806
   8.580        125.83	    12.288
   8.600        137.50	    12.845
   8.620        159.17	    13.820
   8.640        124.17	    12.207
   8.660        155.83	    13.675
   8.680        151.67	    13.491
   8.700        163.33	    14.000
   8.720        189.17	    15.067
   8.740        195.83	    15.330
   8.760        182.50	    14.799
   8.780        211.67	    15.937
   8.800        245.00	    17.146
   8.820        266.67	    17.889
   8.840        343.33	    20.298
   8.860        345.83	    20.372
   8.880        301.67	    19.026
   8.900        223.33	    16.371
   8.920        201.67	    15.556
   8.940        122.50	    12.124
   8.960        127.50	    12.369
   8.980        121.67	    12.083
   9.000        130.00	    12.490
   9.020        117.50	    11.874
   9.040        115.00	    11.747
   9.060        110.00	    11.489
   9.080        105.83	    11.269
   9.100        117.50	    11.874
   9.120        125.83	    12.288
   9.140        114.17	    11.705
   9.160        119.17	    11.958
   9.180        118.33	    11.916
   9.200         96.67	    10.770
   9.220        107.50	    11.358
   9.240        104.17	    11.180
   9.260        100.83	    11.000
   9.280        125.00	    12.247
   9.300        103.33	    11.136
   9.320        120.00	    12.000
   9.340        125.83	    12.288
   9.360         95.83	    10.724
   9.380        115.83	    11.790
   9.400        114.17	    11.705
   9.420        112.50	    11.619
   9.440        117.50	    11.874
   9.460        103.33	    11.136
   9.480        124.17	    12.207
   9.500         90.00	    10.392
   9.520        105.83	    11.269
   9.540        105.83	    11.269
   9.560        111.67	    11.576
   9.580        100.83	    11.000
   9.600        104.17	    11.180
   9.620         97.50	    10.817
   9.640         96.67	    10.770
   9.660        110.83	    11.533
   9.680         93.33	    10.583
   9.700        101.67	    11.045
   9.720         89.17	    10.344
   9.740        104.17	    11.180
   9.760         84.17	    10.050
   9.780        101.67	    11.045
   9.800        106.67	    11.314
   9.820        111.67	    11.576
   9.840         90.00	    10.392
   9.860         99.17	    10.909
   9.880        112.50	    11.619
   9.900        104.17	    11.180
   9.920         96.67	    10.770
   9.940         99.17	    10.909
   9.960         80.83	     9.849
   9.980         97.50	    10.817
  10.000         87.50	    10.247
  10.020        104.17	    11.180
  10.040        101.67	    11.045
  10.060         82.50	     9.950
  10.080         95.83	    10.724
  10.100         96.67	    10.770
  10.120         95.83	    10.724
  10.140         75.00	     9.487
  10.160         85.83	    10.149
  10.180         94.17	    10.630
  10.200        105.00	    11.225
  10.220         99.17	    10.909
  10.240         94.17	    10.630
  10.260         85.83	    10.149
  10.280        105.00	    11.225
  10.300         89.17	    10.344
  10.320         98.33	    10.863
  10.340         93.33	    10.583
  10.360         90.00	    10.392
  10.380        116.67	    11.832
  10.400        100.00	    10.954
  10.420        100.00	    10.954
  10.440        102.50	    11.091
  10.460        114.17	    11.705
  10.480        112.50	    11.619
  10.500        106.67	    11.314
  10.520        109.17	    11.446
  10.540         98.33	    10.863
  10.560        103.33	    11.136
  10.580         89.17	    10.344
  10.600         89.17	    10.344
  10.620         97.50	    10.817
  10.640         85.00	    10.100
  10.660         85.83	    10.149
  10.680         87.50	    10.247
  10.700         80.83	     9.849
  10.720         86.67	    10.198
  10.740         95.00	    10.677
  10.760         90.83	    10.440
  10.780         76.67	     9.592
  10.800        108.33	    11.402
  10.820        146.67	    13.266
  10.840        143.33	    13.115
  10.860        107.50	    11.358
  10.880        109.17	    11.446
  10.900         89.17	    10.344
  10.920         88.33	    10.296
  10.940         89.17	    10.344
  10.960         82.50	     9.950
  10.980         94.17	    10.630
  11.000         92.50	    10.536
  11.020         87.50	    10.247
  11.040         78.33	     9.695
  11.060         89.17	    10.344
  11.080         81.67	     9.899
  11.100         79.17	     9.747
  11.120         80.00	     9.798
  11.140         80.83	     9.849
  11.160         83.33	    10.000
  11.180         77.50	     9.644
  11.200         78.33	     9.695
  11.220         74.17	     9.434
  11.240        101.67	    11.045
  11.260         83.33	    10.000
  11.280         91.67	    10.488
  11.300         80.83	     9.849
  11.320         91.67	    10.488
  11.340         74.17	     9.434
  11.360        100.00	    10.954
  11.380         88.33	    10.296
  11.400         89.17	    10.344
  11.420         90.83	    10.440
  11.440         79.17	     9.747
  11.460         82.50	     9.950
  11.480         87.50	    10.247
  11.500         81.67	     9.899
  11.520         80.83	     9.849
  11.540         77.50	     9.644
  11.560         69.17	     9.110
  11.580         78.33	     9.695
  11.600         85.00	    10.100
  11.620         82.50	     9.950
  11.640         68.33	     9.055
  11.660         72.50	     9.327
  11.680         90.00	    10.392
  11.700         89.17	    10.344
  11.720         87.50	    10.247
  11.740         91.67	    10.488
  11.760         83.33	    10.000
  11.780         95.83	    10.724
  11.800         84.17	    10.050
  11.820         70.00	     9.165
  11.840         94.17	    10.630
  11.860         84.17	    10.050
  11.880         88.33	    10.296
  11.900         88.33	    10.296
  11.920         95.00	    10.677
  11.940         90.83	    10.440
  11.960         76.67	     9.592
  11.980         91.67	    10.488
  12.000         85.00	    10.100
  12.020         90.83	    10.440
  12.040        104.17	    11.180
  12.060        100.83	    11.000
  12.080        116.67	    11.832
  12.100        155.83	    13.675
  12.120        180.83	    14.731
  12.140        231.67	    16.673
  12.160        245.83	    17.176
  12.180        198.33	    15.427
  12.200        153.33	    13.565
  12.220        124.17	    12.207
  12.240        103.33	    11.136
  12.260        102.50	    11.091
  12.280        119.17	    11.958
  12.300        118.33	    11.916
  12.320         97.50	    10.817
  12.340        102.50	    11.091
  12.360        120.00	    12.000
  12.380        126.67	    12.329
  12.400        134.17	    12.689
  12.420        129.17	    12.450
  12.440        169.17	    14.248
  12.460        155.00	    13.638
  12.480        165.83	    14.107
  12.500        135.00	    12.728
  12.520        128.33	    12.410
  12.540        123.33	    12.166
  12.560         80.83	     9.849
  12.580         96.67	    10.770
  12.600         75.83	     9.539
  12.620         83.33	    10.000
  12.640         65.83	     8.888
  12.660        100.83	    11.000
  12.680         72.50	     9.327
  12.700         79.17	     9.747
  12.720         79.17	     9.747
  12.740         85.00	    10.100
  12.760         78.33	     9.695
  12.780         80.00	     9.798
  12.800         76.67	     9.592
  12.820         61.67	     8.602
  12.840         89.17	    10.344
  12.860         75.00	     9.487
  12.880         61.67	     8.602
  12.900         66.67	     8.944
  12.920         64.17	     8.775
  12.940         50.00	     7.746
  12.960         57.50	     8.307
  12.980         70.00	     9.165
  13.000         66.67	     8.944
  13.020         65.00	     8.832
  13.040         67.50	     9.000
  13.060         75.83	     9.539
  13.080         65.00	     8.832
  13.100         77.50	     9.644
  13.120         83.33	    10.000
  13.140         69.17	     9.110
  13.160         70.00	     9.165
  13.180         59.17	     8.426
  13.200         58.33	     8.367
  13.220         79.17	     9.747
  13.240         65.83	     8.888
  13.260         86.67	    10.198
  13.280         74.17	     9.434
  13.300         61.67	     8.602
  13.320         80.83	     9.849
  13.340         65.83	     8.888
  13.360         71.67	     9.274
  13.380         74.17	     9.434
  13.400         56.67	     8.246
  13.420         65.83	     8.888
  13.440         68.33	     9.055
  13.460         57.50	     8.307
  13.480         67.50	     9.000
  13.500         65.83	     8.888
  13.520         85.00	    10.100
  13.540         84.17	    10.050
  13.560         73.33	     9.381
  13.580         70.00	     9.165
  13.600         67.50	     9.000
  13.620         86.67	    10.198
  13.640         59.17	     8.426
  13.660         70.83	     9.220
  13.680         78.33	     9.695
  13.700         71.67	     9.274
  13.720         84.17	    10.050
  13.740         63.33	     8.718
  13.760         75.00	     9.487
  13.780         69.17	     9.110
  13.800         85.83	    10.149
  13.820         94.17	    10.630
  13.840         94.17	    10.630
  13.860         99.17	    10.909
  13.880         73.33	     9.381
  13.900         82.50	     9.950
  13.920         80.83	     9.849
  13.940         65.83	     8.888
  13.960         74.17	     9.434
  13.980         69.17	     9.110
  14.000         64.17	     8.775
  14.020         63.33	     8.718
  14.040         67.50	     9.000
  14.060         72.50	     9.327
  14.080         66.67	     8.944
  14.100         59.17	     8.426
  14.120         70.83	     9.220
  14.140         60.83	     8.544
  14.160         70.00	     9.165
  14.180         55.83	     8.185
  14.200         77.50	     9.644
  14.220         57.50	     8.307
  14.240         67.50	     9.000
  14.260         60.00	     8.485
  14.280         75.00	     9.487
  14.300         65.00	     8.832
  14.320         51.67	     7.874
  14.340         60.00	     8.485
  14.360         60.83	     8.544
  14.380         67.50	     9.000
  14.400         55.00	     8.124
  14.420         65.83	     8.888
  14.440         70.00	     9.165
  14.460         70.00	     9.165
  14.480         60.83	     8.544
  14.500         59.17	     8.426
  14.520         75.83	     9.539
  14.540         58.33	     8.367
  14.560         61.67	     8.602
  14.580         63.33	     8.718
  14.600         70.83	     9.220
  14.620         69.17	     9.110
  14.640         74.17	     9.434
  14.660         64.17	     8.775
  14.680         58.33	     8.367
  14.700         69.17	     9.110
  14.720         49.17	     7.681
  14.740         70.00	     9.165
  14.760         60.83	     8.544
  14.780         69.17	     9.110
  14.800         63.33	     8.718
  14.820         62.50	     8.660
  14.840         52.50	     7.937
  14.860         65.00	     8.832
  14.880         75.83	     9.539
  14.900         60.83	     8.544
  14.920         74.17	     9.434
  14.940         72.50	     9.327
  14.960         70.00	     9.165
  14.980         80.00	     9.798
  15.000         74.17	     9.434
  15.020         80.00	     9.798
  15.040         65.00	     8.832
  15.060         62.50	     8.660
  15.080         71.67	     9.274
  15.100         75.00	     9.487
  15.120         59.17	     8.426
  15.140         71.67	     9.274
  15.160         72.50	     9.327
  15.180         52.50	     7.937
  15.200         61.67	     8.602
  15.220         59.17	     8.426
  15.240         40.00	     6.928
  15.260         47.50	     7.550
  15.280         56.67	     8.246
  15.300         67.50	     9.000
  15.320         61.67	     8.602
  15.340         65.00	     8.832
  15.360         56.67	     8.246
  15.380         65.83	     8.888
  15.400         69.17	     9.110
  15.420         60.83	     8.544
  15.440         66.67	     8.944
  15.460         65.00	     8.832
  15.480         63.33	     8.718
  15.500         60.00	     8.485
  15.520         61.67	     8.602
  15.540         53.33	     8.000
  15.560         60.00	     8.485
  15.580         47.50	     7.550
  15.600         64.17	     8.775
  15.620         45.00	     7.348
  15.640         64.17	     8.775
  15.660         50.00	     7.746
  15.680         57.50	     8.307
  15.700         59.17	     8.426
  15.720         54.17	     8.062
  15.740         62.50	     8.660
  15.760         66.67	     8.944
  15.780         55.00	     8.124
  15.800         73.33	     9.381
  15.820         65.83	     8.888
  15.840         71.67	     9.274
  15.860         57.50	     8.307
  15.880         60.83	     8.544
  15.900         72.50	     9.327
  15.920         65.83	     8.888
  15.940         60.83	     8.544
  15.960         54.17	     8.062
  15.980         58.33	     8.367
  16.000         60.00	     8.485
  16.020         70.00	     9.165
  16.040         50.00	     7.746
  16.060         53.33	     8.000
  16.080         56.67	     8.246
  16.100         45.83	     7.416
  16.120         65.83	     8.888
  16.140         52.50	     7.937
  16.160         57.50	     8.307
  16.180         59.17	     8.426
  16.200         45.00	     7.348
  16.220         49.17	     7.681
  16.240         50.00	     7.746
  16.260         50.83	     7.810
  16.280         43.33	     7.211
  16.300         51.67	     7.874
  16.320         50.00	     7.746
  16.340         51.67	     7.874
  16.360         49.17	     7.681
  16.380         40.83	     7.000
  16.400         49.17	     7.681
  16.420         56.67	     8.246
  16.440         52.50	     7.937
  16.460         64.17	     8.775
  16.480         47.50	     7.550
  16.500         64.17	     8.775
  16.520         58.33	     8.367
  16.540         50.00	     7.746
  16.560         52.50	     7.937
  16.580         60.83	     8.544
  16.600         49.17	     7.681
  16.620         59.17	     8.426
  16.640         60.00	     8.485
  16.660         55.83	     8.185
  16.680         53.33	     8.000
  16.700         51.67	     7.874
  16.720         53.33	     8.000
  16.740         46.67	     7.483
  16.760         54.17	     8.062
  16.780         59.17	     8.426
  16.800         52.50	     7.937
  16.820         45.83	     7.416
  16.840         60.00	     8.485
  16.860         45.00	     7.348
  16.880         55.00	     8.124
  16.900         55.00	     8.124
  16.920         57.50	     8.307
  16.940         63.33	     8.718
  16.960         58.33	     8.367
  16.980         46.67	     7.483
  17.000         55.83	     8.185
  17.020         45.00	     7.348
  17.040         53.33	     8.000
  17.060         60.83	     8.544
  17.080         41.67	     7.071
  17.100         58.33	     8.367
  17.120         61.67	     8.602
  17.140         66.67	     8.944
  17.160         65.00	     8.832
  17.180         45.83	     7.416
  17.200         50.00	     7.746
  17.220         44.17	     7.280
  17.240         51.67	     7.874
  17.260         57.50	     8.307
  17.280         43.33	     7.211
  17.300         53.33	     8.000
  17.320         62.50	     8.660
  17.340         56.67	     8.246
  17.360         70.00	     9.165
  17.380         46.67	     7.483
  17.400         50.00	     7.746
  17.420         54.17	     8.062
  17.440         60.83	     8.544
  17.460         55.83	     8.185
  17.480         62.50	     8.660
  17.500         45.00	     7.348
  17.520         55.00	     8.124
  17.540         68.33	     9.055
  17.560         58.33	     8.367
  17.580         55.00	     8.124
  17.600         59.17	     8.426
  17.620         48.33	     7.616
  17.640         65.00	     8.832
  17.660         60.00	     8.485
  17.680         83.33	    10.000
  17.700         94.17	    10.630
  17.720         86.67	    10.198
  17.740        105.83	    11.269
  17.760        110.00	    11.489
  17.780        144.17	    13.153
  17.800        130.00	    12.490
  17.820        130.00	    12.490
  17.840        124.17	    12.207
  17.860         92.50	    10.536
  17.880         81.67	     9.899
  17.900         73.33	     9.381
  17.920         73.33	     9.381
  17.940         59.17	     8.426
  17.960         59.17	     8.426
  17.980         68.33	     9.055
  18.000         50.00	     7.746
  18.020         53.33	     8.000
  18.040         55.00	     8.124
  18.060         61.67	     8.602
  18.080         59.17	     8.426
  18.100         63.33	     8.718
  18.120         50.83	     7.810
  18.140         56.67	     8.246
  18.160         52.50	     7.937
  18.180         50.83	     7.810
  18.200         50.83	     7.810
  18.220         54.17	     8.062
  18.240         55.00	     8.124
  18.260         45.83	     7.416
  18.280         54.17	     8.062
  18.300         47.50	     7.550
  18.320         61.67	     8.602
  18.340         52.50	     7.937
  18.360         50.83	     7.810
  18.380         49.17	     7.681
  18.400         53.33	     8.000
  18.420         51.67	     7.874
  18.440         47.50	     7.550
  18.460         60.83	     8.544
  18.480         60.83	     8.544
  18.500         54.17	     8.062
  18.520         59.17	     8.426
  18.540         55.83	     8.185
  18.560         55.83	     8.185
  18.580         75.83	     9.539
  18.600         45.00	     7.348
  18.620         64.17	     8.775
  18.640         64.17	     8.775
  18.660         51.67	     7.874
  18.680         53.33	     8.000
  18.700         73.33	     9.381
  18.720         77.50	     9.644
  18.740         90.83	    10.440
  18.760         75.83	     9.539
  18.780         89.17	    10.344
  18.800         74.17	     9.434
  18.820         68.33	     9.055
  18.840         57.50	     8.307
  18.860         64.17	     8.775
  18.880         58.33	     8.367
  18.900         58.33	     8.367
  18.920         63.33	     8.718
  18.940         62.50	     8.660
  18.960         49.17	     7.681
  18.980         59.17	     8.426
  19.000         50.00	     7.746
  19.020         46.67	     7.483
  19.040         55.83	     8.185
  19.060         61.67	     8.602
  19.080         47.50	     7.550
  19.100         66.67	     8.944
  19.120         51.67	     7.874
  19.140         51.67	     7.874
  19.160         64.17	     8.775
  19.180         59.17	     8.426
  19.200         77.50	     9.644
  19.220         60.83	     8.544
  19.240         67.50	     9.000
  19.260         50.83	     7.810
  19.280         64.17	     8.775
  19.300         52.50	     7.937
  19.320         61.67	     8.602
  19.340         53.33	     8.000
  19.360         45.83	     7.416
  19.380         45.83	     7.416
  19.400         59.17	     8.426
  19.420         60.83	     8.544
  19.440         50.00	     7.746
  19.460         50.00	     7.746
  19.480         53.33	     8.000
  19.500         51.67	     7.874
  19.520         58.33	     8.367
  19.540         59.17	     8.426
  19.560         70.00	     9.165
  19.580         65.00	     8.832
  19.600         44.17	     7.280
  19.620         67.50	     9.000
  19.640         60.00	     8.485
  19.660         65.83	     8.888
  19.680         70.83	     9.220
  19.700         68.33	     9.055
  19.720         78.33	     9.695
  19.740         70.00	     9.165
  19.760         65.00	     8.832
  19.780         71.67	     9.274
  19.800         90.00	    10.392
  19.820         79.17	     9.747
  19.840         68.33	     9.055
  19.860         56.67	     8.246
  19.880         72.50	     9.327
  19.900         68.33	     9.055
  19.920         57.50	     8.307
  19.940         67.50	     9.000
  19.960         60.83	     8.544
  19.980         56.67	     8.246
  20.000         61.67	     8.602
  20.020         60.83	     8.544
  20.040         62.50	     8.660
  20.060         62.50	     8.660
  20.080         55.00	     8.124
  20.100         65.00	     8.832
  20.120         65.00	     8.832
  20.140         55.00	     8.124
  20.160         60.00	     8.485
  20.180         59.17	     8.426
  20.200         37.50	     6.708
  20.220         63.33	     8.718
  20.240         61.67	     8.602
  20.260         41.67	     7.071
  20.280         45.00	     7.348
  20.300         50.83	     7.810
  20.320         55.83	     8.185
  20.340         65.00	     8.832
  20.360         55.00	     8.124
  20.380         48.33	     7.616
  20.400         52.50	     7.937
  20.420         51.67	     7.874
  20.440         43.33	     7.211
  20.460         54.17	     8.062
  20.480         58.33	     8.367
  20.500         40.83	     7.000
  20.520         68.33	     9.055
  20.540         52.50	     7.937
  20.560         67.50	     9.000
  20.580         59.17	     8.426
  20.600         60.00	     8.485
  20.620         62.50	     8.660
  20.640         69.17	     9.110
  20.660         62.50	     8.660
  20.680         79.17	     9.747
  20.700         69.17	     9.110
  20.720         95.83	    10.724
  20.740        115.83	    11.790
  20.760        165.00	    14.071
  20.780        280.00	    18.330
  20.800        287.50	    18.574
  20.820        315.83	    19.468
  20.840        433.33	    22.804
  20.860        366.67	    20.976
  20.880        290.83	    18.682
  20.900        223.33	    16.371
  20.920        175.83	    14.526
  20.940        135.00	    12.728
  20.960         82.50	     9.950
  20.980         81.67	     9.899
  21.000         87.50	    10.247
  21.020         73.33	     9.381
  21.040         52.50	     7.937
  21.060         72.50	     9.327
  21.080         68.33	     9.055
  21.100         49.17	     7.681
  21.120         60.00	     8.485
  21.140         55.00	     8.124
  21.160         73.33	     9.381
  21.180         51.67	     7.874
  21.200         40.00	     6.928
  21.220         49.17	     7.681
  21.240         56.67	     8.246
  21.260         50.00	     7.746
  21.280         49.17	     7.681
  21.300         42.50	     7.141
  21.320         45.00	     7.348
  21.340         56.67	     8.246
  21.360         47.50	     7.550
  21.380         41.67	     7.071
  21.400         50.00	     7.746
  21.420         50.83	     7.810
  21.440         51.67	     7.874
  21.460         39.17	     6.856
  21.480         51.67	     7.874
  21.500         44.17	     7.280
  21.520         55.00	     8.124
  21.540         47.50	     7.550
  21.560         50.00	     7.746
  21.580         55.83	     8.185
  21.600         49.17	     7.681
  21.620         60.83	     8.544
  21.640         55.83	     8.185
  21.660         56.67	     8.246
  21.680         50.00	     7.746
  21.700         58.33	     8.367
  21.720         50.83	     7.810
  21.740         35.83	     6.557
  21.760         40.00	     6.928
  21.780         55.83	     8.185
  21.800         42.50	     7.141
  21.820         52.50	     7.937
  21.840         46.67	     7.483
  21.860         60.00	     8.485
  21.880         60.00	     8.485
  21.900         65.83	     8.888
  21.920         97.50	    10.817
  21.940        115.00	    11.747
  21.960        150.83	    13.454
  21.980        155.83	    13.675
  22.000        178.33	    14.629
  22.020        207.50	    15.780
  22.040        190.00	    15.100
  22.060        150.83	    13.454
  22.080        129.17	    12.450
  22.100        120.00	    12.000
  22.120        111.67	    11.576
  22.140         79.17	     9.747
  22.160         67.50	     9.000
  22.180         79.17	     9.747
  22.200         60.00	     8.485
  22.220         49.17	     7.681
  22.240         70.83	     9.220
  22.260         47.50	     7.550
  22.280         54.17	     8.062
  22.300         63.33	     8.718
  22.320         59.17	     8.426
  22.340         45.83	     7.416
  22.360         63.33	     8.718
  22.380         54.17	     8.062
  22.400         61.67	     8.602
  22.420         65.00	     8.832
  22.440         68.33	     9.055
  22.460         60.83	     8.544
  22.480         56.67	     8.246
  22.500         60.83	     8.544
  22.520         54.17	     8.062
  22.540         47.50	     7.550
  22.560         43.33	     7.211
  22.580         47.50	     7.550
  22.600         40.83	     7.000
  22.620         48.33	     7.616
  22.640         40.83	     7.000
  22.660         51.67	     7.874
  22.680         50.83	     7.810
  22.700         51.67	     7.874
  22.720         58.33	     8.367
  22.740         55.00	     8.124
  22.760         55.00	     8.124
  22.780         62.50	     8.660
  22.800        104.17	    11.180
  22.820        145.83	    13.229
  22.840        105.83	    11.269
  22.860        109.17	    11.446
  22.880        109.17	    11.446
  22.900         96.67	    10.770
  22.920         87.50	    10.247
  22.940         84.17	    10.050
  22.960         75.00	     9.487
  22.980         72.50	     9.327
  23.000         75.00	     9.487
  23.020         71.67	     9.274
  23.040         76.67	     9.592
  23.060         81.67	     9.899
  23.080         75.00	     9.487
  23.100         61.67	     8.602
  23.120         58.33	     8.367
  23.140         56.67	     8.246
  23.160         55.83	     8.185
  23.180         44.17	     7.280
  23.200         45.83	     7.416
  23.220         46.67	     7.483
  23.240         46.67	     7.483
  23.260         54.17	     8.062
  23.280         52.50	     7.937
  23.300         60.00	     8.485
  23.320         60.00	     8.485
  23.340         65.83	     8.888
  23.360         53.33	     8.000
  23.380         70.83	     9.220
  23.400         68.33	     9.055
  23.420         62.50	     8.660
  23.440         85.83	    10.149
  23.460        140.00	    12.961
  23.480        180.00	    14.697
  23.500        228.33	    16.553
  23.520        195.00	    15.297
  23.540        184.17	    14.866
  23.560        171.67	    14.353
  23.580        137.50	    12.845
  23.600         98.33	    10.863
  23.620         84.17	    10.050
  23.640         74.17	     9.434
  23.660         55.83	     8.185
  23.680         70.00	     9.165
  23.700         66.67	     8.944
  23.720         66.67	     8.944
  23.740         79.17	     9.747
  23.760         90.83	    10.440
  23.780         82.50	     9.950
  23.800        101.67	    11.045
  23.820         82.50	     9.950
  23.840         68.33	     9.055
  23.860         57.50	     8.307
  23.880         77.50	     9.644
  23.900         59.17	     8.426
  23.920         61.67	     8.602
  23.940         64.17	     8.775
  23.960         79.17	     9.747
  23.980         84.17	    10.050
  24.000         75.00	     9.487
  24.020         87.50	    10.247
  24.040         78.33	     9.695
  24.060         78.33	     9.695
  24.080         82.50	     9.950
  24.100         85.00	    10.100
  24.120        102.50	    11.091
  24.140        115.00	    11.747
  24.160        125.83	    12.288
  24.180        119.17	    11.958
  24.200        175.83	    14.526
  24.220        157.50	    13.748
  24.240        130.83	    12.530
  24.260        135.00	    12.728
  24.280        149.17	    13.379
  24.300        108.33	    11.402
  24.320         83.33	    10.000
  24.340         90.00	    10.392
  24.360         73.33	     9.381
  24.380         63.33	     8.718
  24.400         55.83	     8.185
  24.420         50.83	     7.810
  24.440         50.00	     7.746
  24.460         75.83	     9.539
  24.480         80.00	     9.798
  24.500         90.00	    10.392
  24.520         85.00	    10.100
  24.540        118.33	    11.916
  24.560         98.33	    10.863
  24.580        112.50	    11.619
  24.600        109.17	    11.446
  24.620        101.67	    11.045
  24.640         88.33	    10.296
  24.660         88.33	    10.296
  24.680         92.50	    10.536
  24.700         73.33	     9.381
  24.720         75.00	     9.487
  24.740         72.50	     9.327
  24.760         70.00	     9.165
  24.780         61.67	     8.602
  24.800         54.17	     8.062
  24.820         55.00	     8.124
  24.840         65.00	     8.832
  24.860         59.17	     8.426
  24.880         87.50	    10.247
  24.900         51.67	     7.874
  24.920         54.17	     8.062
  24.940         69.17	     9.110
  24.960         59.17	     8.426
  24.980         70.83	     9.220
  25.000         62.50	     8.660
  25.020         73.33	     9.381
  25.040         80.83	     9.849
  25.060         85.83	    10.149
  25.080        109.17	    11.446
  25.100        119.17	    11.958
  25.120        133.33	    12.649
  25.140        124.17	    12.207
  25.160        106.67	    11.314
  25.180         99.17	    10.909
  25.200        108.33	    11.402
  25.220         71.67	     9.274
  25.240         76.67	     9.592
  25.260         51.67	     7.874
  25.280         68.33	     9.055
  25.300         74.17	     9.434
  25.320         73.33	     9.381
  25.340        115.00	    11.747
  25.360         84.17	    10.050
  25.380        111.67	    11.576
  25.400        121.67	    12.083
  25.420        128.33	    12.410
  25.440        135.83	    12.767
  25.460        121.67	    12.083
  25.480        130.83	    12.530
  25.500        118.33	    11.916
  25.520        114.17	    11.705
  25.540         81.67	     9.899
  25.560        118.33	    11.916
  25.580        125.83	    12.288
  25.600        142.50	    13.077
  25.620        116.67	    11.832
  25.640        117.50	    11.874
  25.660         94.17	    10.630
  25.680         72.50	     9.327
  25.700         75.00	     9.487
  25.720         78.33	     9.695
  25.740         66.67	     8.944
  25.760         51.67	     7.874
  25.780         57.50	     8.307
  25.800         59.17	     8.426
  25.820         65.00	     8.832
  25.840         47.50	     7.550
  25.860         50.83	     7.810
  25.880         53.33	     8.000
  25.900         55.00	     8.124
  25.920         59.17	     8.426
  25.940         52.50	     7.937
  25.960         51.67	     7.874
  25.980         44.17	     7.280
  26.000         57.50	     8.307
  26.020         60.00	     8.485
  26.040         54.17	     8.062
  26.060         50.83	     7.810
  26.080         63.33	     8.718
  26.100         55.00	     8.124
  26.120         49.17	     7.681
  26.140         55.00	     8.124
  26.160         67.50	     9.000
  26.180         62.50	     8.660
  26.200         60.83	     8.544
  26.220         63.33	     8.718
  26.240         72.50	     9.327
  26.260         83.33	    10.000
  26.280        104.17	    11.180
  26.300        110.00	    11.489
  26.320        114.17	    11.705
  26.340        128.33	    12.410
  26.360        149.17	    13.379
  26.380        165.00	    14.071
  26.400        170.83	    14.318
  26.420        159.17	    13.820
  26.440        191.67	    15.166
  26.460        263.33	    17.776
  26.480        284.17	    18.466
  26.500        463.33	    23.580
  26.520        600.83	    26.851
  26.540        833.33	    31.623
  26.560       1398.33	    40.963
  26.580       1932.50	    48.156
  26.600       2465.83	    54.397
  26.620       2382.50	    53.470
  26.640       1800.00	    46.476
  26.660       1463.33	    41.905
  26.680       1240.00	    38.575
  26.700        830.83	    31.575
  26.720        480.00	    24.000
  26.740        321.67	    19.647
  26.760        286.67	    18.547
  26.780        325.83	    19.774
  26.800        335.00	    20.050
  26.820        408.33	    22.136
  26.840        425.00	    22.583
  26.860        343.33	    20.298
  26.880        409.17	    22.159
  26.900        363.33	    20.881
  26.920        299.17	    18.947
  26.940        248.33	    17.263
  26.960        212.50	    15.969
  26.980        195.00	    15.297
  27.000        163.33	    14.000
  27.020        132.50	    12.610
  27.040        125.00	    12.247
  27.060        100.00	    10.954
  27.080         87.50	    10.247
  27.100         85.00	    10.100
  27.120         80.00	     9.798
  27.140         96.67	    10.770
  27.160         75.00	     9.487
  27.180         75.83	     9.539
  27.200         67.50	     9.000
  27.220         79.17	     9.747
  27.240         66.67	     8.944
  27.260         75.00	     9.487
  27.280         70.83	     9.220
  27.300         67.50	     9.000
  27.320         75.83	     9.539
  27.340         59.17	     8.426
  27.360         89.17	    10.344
  27.380         95.83	    10.724
  27.400        114.17	    11.705
  27.420        121.67	    12.083
  27.440        137.50	    12.845
  27.460        130.83	    12.530
  27.480        138.33	    12.884
  27.500        125.83	    12.288
  27.520        108.33	    11.402
  27.540        100.83	    11.000
  27.560         90.83	    10.440
  27.580         91.67	    10.488
  27.600        107.50	    11.358
  27.620         94.17	    10.630
  27.640        125.83	    12.288
  27.660        152.50	    13.528
  27.680        160.83	    13.892
  27.700        156.67	    13.711
  27.720        174.17	    14.457
  27.740        178.33	    14.629
  27.760        182.50	    14.799
  27.780        186.67	    14.967
  27.800        189.17	    15.067
  27.820        202.50	    15.588
  27.840        230.83	    16.643
  27.860        290.00	    18.655
  27.880        355.00	    20.640
  27.900        310.00	    19.287
  27.920        318.33	    19.545
  27.940        295.00	    18.815
  27.960        259.17	    17.635
  27.980        180.00	    14.697
  28.000        157.50	    13.748
  28.020        130.83	    12.530
  28.040        106.67	    11.314
  28.060        111.67	    11.576
  28.080        144.17	    13.153
  28.100        130.83	    12.530
  28.120        109.17	    11.446
  28.140        130.83	    12.530
  28.160        120.83	    12.042
  28.180        113.33	    11.662
  28.200        103.33	    11.136
  28.220        109.17	    11.446
  28.240        132.50	    12.610
  28.260        142.50	    13.077
  28.280        144.17	    13.153
  28.300        107.50	    11.358
  28.320         96.67	    10.770
  28.340         83.33	    10.000
  28.360         91.67	    10.488
  28.380         64.17	     8.775
  28.400         61.67	     8.602
  28.420         62.50	     8.660
  28.440         70.83	     9.220
  28.460         60.83	     8.544
  28.480         62.50	     8.660
  28.500         62.50	     8.660
  28.520         85.83	    10.149
  28.540         57.50	     8.307
  28.560         77.50	     9.644
  28.580         74.17	     9.434
  28.600         68.33	     9.055
  28.620         73.33	     9.381
  28.640         63.33	     8.718
  28.660         57.50	     8.307
  28.680         68.33	     9.055
  28.700         57.50	     8.307
  28.720         55.00	     8.124
  28.740         50.00	     7.746
  28.760         45.00	     7.348
  28.780         41.67	     7.071
  28.800         41.67	     7.071
  28.820         47.50	     7.550
  28.840         55.83	     8.185
  28.860         44.17	     7.280
  28.880         35.00	     6.481
  28.900         45.83	     7.416
  28.920         42.50	     7.141
  28.940         45.00	     7.348
  28.960         49.17	     7.681
  28.980         42.50	     7.141
  29.000         42.50	     7.141
  29.020         51.67	     7.874
  29.040         45.00	     7.348
  29.060         42.50	     7.141
  29.080         45.83	     7.416
  29.100         40.00	     6.928
  29.120         50.83	     7.810
  29.140         43.33	     7.211
  29.160         36.67	     6.633
  29.180         43.33	     7.211
  29.200         39.17	     6.856
  29.220         46.67	     7.483
  29.240         40.83	     7.000
  29.260         45.00	     7.348
  29.280         37.50	     6.708
  29.300         51.67	     7.874
  29.320         38.33	     6.782
  29.340         50.00	     7.746
  29.360         45.00	     7.348
  29.380         32.50	     6.245
  29.400         39.17	     6.856
  29.420         57.50	     8.307
  29.440         50.83	     7.810
  29.460         35.83	     6.557
  29.480         39.17	     6.856
  29.500         40.83	     7.000
  29.520         45.83	     7.416
  29.540         43.33	     7.211
  29.560         32.50	     6.245
  29.580         55.00	     8.124
  29.600         50.00	     7.746
  29.620         40.00	     6.928
  29.640         57.50	     8.307
  29.660         50.00	     7.746
  29.680         54.17	     8.062
  29.700         71.67	     9.274
  29.720         58.33	     8.367
  29.740         75.83	     9.539
  29.760         77.50	     9.644
  29.780         85.83	    10.149
  29.800         86.67	    10.198
  29.820         95.00	    10.677
  29.840         92.50	    10.536
  29.860        110.83	    11.533
  29.880         91.67	    10.488
  29.900        100.83	    11.000
  29.920         91.67	    10.488
  29.940         75.83	     9.539
  29.960         67.50	     9.000
  29.980         75.00	     9.487
  30.000         58.33	     8.367
  30.020         82.50	     9.950
  30.040         87.50	    10.247
  30.060         79.17	     9.747
  30.080         93.33	    10.583
  30.100         88.33	    10.296
  30.120         75.00	     9.487
  30.140         79.17	     9.747
  30.160         84.17	    10.050
  30.180         90.00	    10.392
  30.200         82.50	     9.950
  30.220         74.17	     9.434
  30.240         55.00	     8.124
  30.260         65.00	     8.832
  30.280         74.17	     9.434
  30.300         74.17	     9.434
  30.320         76.67	     9.592
  30.340         75.00	     9.487
  30.360         70.00	     9.165
  30.380         75.83	     9.539
  30.400         80.83	     9.849
  30.420         94.17	    10.630
  30.440        103.33	    11.136
  30.460        100.00	    10.954
  30.480        103.33	    11.136
  30.500         80.00	     9.798
  30.520         78.33	     9.695
  30.540         77.50	     9.644
  30.560         65.00	     8.832
  30.580         48.33	     7.616
  30.600         56.67	     8.246
  30.620         50.83	     7.810
  30.640         51.67	     7.874
  30.660         44.17	     7.280
  30.680         49.17	     7.681
  30.700         55.00	     8.124
  30.720         71.67	     9.274
  30.740         75.00	     9.487
  30.760         80.00	     9.798
  30.780         90.00	    10.392
  30.800         78.33	     9.695
  30.820         88.33	    10.296
  30.840         90.00	    10.392
  30.860         53.33	     8.000
  30.880         53.33	     8.000
  30.900         59.17	     8.426
  30.920         60.83	     8.544
  30.940         75.00	     9.487
  30.960         41.67	     7.071
  30.980         46.67	     7.483
  31.000         48.33	     7.616
  31.020         54.17	     8.062
  31.040         53.33	     8.000
  31.060         64.17	     8.775
  31.080         68.33	     9.055
  31.100         66.67	     8.944
  31.120         80.83	     9.849
  31.140         95.83	    10.724
  31.160         90.83	    10.440
  31.180         75.00	     9.487
  31.200         98.33	    10.863
  31.220         99.17	    10.909
  31.240        105.00	    11.225
  31.260         90.83	    10.440
  31.280         74.17	     9.434
  31.300         61.67	     8.602
  31.320         72.50	     9.327
  31.340         52.50	     7.937
  31.360         51.67	     7.874
  31.380         55.00	     8.124
  31.400         45.00	     7.348
  31.420         46.67	     7.483
  31.440         46.67	     7.483
  31.460         47.50	     7.550
  31.480         57.50	     8.307
  31.500         59.17	     8.426
  31.520         45.00	     7.348
  31.540         51.67	     7.874
  31.560         50.00	     7.746
  31.580         43.33	     7.211
  31.600         51.67	     7.874
  31.620         48.33	     7.616
  31.640         50.83	     7.810
  31.660         45.83	     7.416
  31.680         44.17	     7.280
  31.700         43.33	     7.211
  31.720         39.17	     6.856
  31.740         42.50	     7.141
  31.760         34.17	     6.403
  31.780         42.50	     7.141
  31.800         46.67	     7.483
  31.820         54.17	     8.062
  31.840         34.17	     6.403
  31.860         45.83	     7.416
  31.880         37.50	     6.708
  31.900         52.50	     7.937
  31.920         50.00	     7.746
  31.940         45.00	     7.348
  31.960         62.50	     8.660
  31.980         52.50	     7.937
  32.000         51.67	     7.874
  32.020         62.50	     8.660
  32.040         62.50	     8.660
  32.060         56.67	     8.246
  32.080         55.00	     8.124
  32.100         55.83	     8.185
  32.120         56.67	     8.246
  32.140         60.83	     8.544
  32.160         69.17	     9.110
  32.180         57.50	     8.307
  32.200         69.17	     9.110
  32.220        103.33	    11.136
  32.240        288.33	    18.601
  32.260        275.00	    18.166
  32.280        142.50	    13.077
  32.300         76.67	     9.592
  32.320        140.00	    12.961
  32.340        153.33	    13.565
  32.360         98.33	    10.863
  32.380         60.83	     8.544
  32.400         39.17	     6.856
  32.420         34.17	     6.403
  32.440         44.17	     7.280
  32.460         27.50	     5.745
  32.480         34.17	     6.403
  32.500         32.50	     6.245
  32.520         40.00	     6.928
  32.540         39.17	     6.856
  32.560         33.33	     6.325
  32.580         38.33	     6.782
  32.600         32.50	     6.245
  32.620         44.17	     7.280
  32.640         37.50	     6.708
  32.660         37.50	     6.708
  32.680         39.17	     6.856
  32.700         38.33	     6.782
  32.720         32.50	     6.245
  32.740         39.17	     6.856
  32.760         32.50	     6.245
  32.780         30.83	     6.083
  32.800         35.83	     6.557
  32.820         41.67	     7.071
  32.840         50.83	     7.810
  32.860         37.50	     6.708
  32.880         42.50	     7.141
  32.900         54.17	     8.062
  32.920         39.17	     6.856
  32.940         40.00	     6.928
  32.960         42.50	     7.141
  32.980         64.17	     8.775
  33.000         63.33	     8.718
  33.020         87.50	    10.247
  33.040         56.67	     8.246
  33.060         73.33	     9.381
  33.080         79.17	     9.747
  33.100         67.50	     9.000
  33.120         60.00	     8.485
  33.140         41.67	     7.071
  33.160         57.50	     8.307
  33.180         46.67	     7.483
  33.200         39.17	     6.856
  33.220         41.67	     7.071
  33.240         45.00	     7.348
  33.260         65.00	     8.832
  33.280         88.33	    10.296
  33.300         82.50	     9.950
  33.320         76.67	     9.592
  33.340         65.83	     8.888
  33.360         77.50	     9.644
  33.380         64.17	     8.775
  33.400         65.00	     8.832
  33.420         63.33	     8.718
  33.440         86.67	    10.198
  33.460         92.50	    10.536
  33.480         68.33	     9.055
  33.500         50.83	     7.810
  33.520         55.00	     8.124
  33.540         63.33	     8.718
  33.560         50.00	     7.746
  33.580         39.17	     6.856
  33.600         41.67	     7.071
  33.620         45.83	     7.416
  33.640         41.67	     7.071
  33.660         33.33	     6.325
  33.680         38.33	     6.782
  33.700         40.83	     7.000
  33.720         35.00	     6.481
  33.740         33.33	     6.325
  33.760         40.83	     7.000
  33.780         44.17	     7.280
  33.800         53.33	     8.000
  33.820         45.83	     7.416
  33.840         45.83	     7.416
  33.860         41.67	     7.071
  33.880         67.50	     9.000
  33.900         69.17	     9.110
  33.920         59.17	     8.426
  33.940         72.50	     9.327
  33.960         51.67	     7.874
  33.980         65.00	     8.832
  34.000         62.50	     8.660
  34.020         63.33	     8.718
  34.040         57.50	     8.307
  34.060         53.33	     8.000
  34.080         52.50	     7.937
  34.100         52.50	     7.937
  34.120         54.17	     8.062
  34.140         61.67	     8.602
  34.160         71.67	     9.274
  34.180         60.00	     8.485
  34.200         65.83	     8.888
  34.220         68.33	     9.055
  34.240         70.00	     9.165
  34.260         89.17	    10.344
  34.280         80.83	     9.849
  34.300        100.00	    10.954
  34.320        106.67	    11.314
  34.340         85.83	    10.149
  34.360         90.00	    10.392
  34.380        104.17	    11.180
  34.400         98.33	    10.863
  34.420         79.17	     9.747
  34.440         80.83	     9.849
  34.460         71.67	     9.274
  34.480         93.33	    10.583
  34.500        108.33	    11.402
  34.520         67.50	     9.000
  34.540         92.50	    10.536
  34.560         82.50	     9.950
  34.580         83.33	    10.000
  34.600         90.83	    10.440
  34.620         85.00	    10.100
  34.640         71.67	     9.274
  34.660         81.67	     9.899
  34.680         76.67	     9.592
  34.700         85.83	    10.149
  34.720        112.50	    11.619
  34.740        114.17	    11.705
  34.760        135.83	    12.767
  34.780        155.00	    13.638
  34.800        134.17	    12.689
  34.820        127.50	    12.369
  34.840        156.67	    13.711
  34.860        184.17	    14.866
  34.880        195.00	    15.297
  34.900        244.17	    17.117
  34.920        227.50	    16.523
  34.940        230.00	    16.613
  34.960        216.67	    16.125
  34.980        197.50	    15.395
  35.000        201.67	    15.556
  35.020        162.50	    13.964
  35.040        140.00	    12.961
  35.060        124.17	    12.207
  35.080         92.50	    10.536
  35.100         86.67	    10.198
  35.120         81.67	     9.899
  35.140         89.17	    10.344
  35.160         74.17	     9.434
  35.180         74.17	     9.434
  35.200         88.33	    10.296
  35.220         66.67	     8.944
  35.240         81.67	     9.899
  35.260         88.33	    10.296
  35.280         85.00	    10.100
  35.300         90.83	    10.440
  35.320         67.50	     9.000
  35.340         87.50	    10.247
  35.360         88.33	    10.296
  35.380         86.67	    10.198
  35.400         92.50	    10.536
  35.420         93.33	    10.583
  35.440        102.50	    11.091
  35.460        100.00	    10.954
  35.480        105.83	    11.269
  35.500        109.17	    11.446
  35.520        102.50	    11.091
  35.540        108.33	    11.402
  35.560        105.83	    11.269
  35.580        105.83	    11.269
  35.600        118.33	    11.916
  35.620        113.33	    11.662
  35.640        102.50	    11.091
  35.660         70.00	     9.165
  35.680         71.67	     9.274
  35.700         72.50	     9.327
  35.720         68.33	     9.055
  35.740         67.50	     9.000
  35.760         56.67	     8.246
  35.780         50.83	     7.810
  35.800         60.00	     8.485
  35.820         47.50	     7.550
  35.840         51.67	     7.874
  35.860         59.17	     8.426
  35.880         49.17	     7.681
  35.900         53.33	     8.000
  35.920         43.33	     7.211
  35.940         55.00	     8.124
  35.960         61.67	     8.602
  35.980         44.17	     7.280
  36.000         64.17	     8.775
  36.020         65.00	     8.832
  36.040         61.67	     8.602
  36.060         60.00	     8.485
  36.080         61.67	     8.602
  36.100         54.17	     8.062
  36.120         76.67	     9.592
  36.140         65.83	     8.888
  36.160         56.67	     8.246
  36.180         40.83	     7.000
  36.200         59.17	     8.426
  36.220         43.33	     7.211
  36.240         55.00	     8.124
  36.260         46.67	     7.483
  36.280         43.33	     7.211
  36.300         50.00	     7.746
  36.320         51.67	     7.874
  36.340         63.33	     8.718
  36.360         55.00	     8.124
  36.380         69.17	     9.110
  36.400         70.00	     9.165
  36.420         85.00	    10.100
  36.440        106.67	    11.314
  36.460        132.50	    12.610
  36.480        205.00	    15.684
  36.500        242.50	    17.059
  36.520        289.17	    18.628
  36.540        235.83	    16.823
  36.560        178.33	    14.629
  36.580        150.00	    13.416
  36.600        167.50	    14.177
  36.620        166.67	    14.142
  36.640        134.17	    12.689
  36.660        106.67	    11.314
  36.680         95.83	    10.724
  36.700        156.67	    13.711
  36.720        209.17	    15.843
  36.740        215.00	    16.062
  36.760        120.83	    12.042
  36.780         87.50	    10.247
  36.800        108.33	    11.402
  36.820        151.67	    13.491
  36.840        120.83	    12.042
  36.860         83.33	    10.000
  36.880         55.00	     8.124
  36.900         61.67	     8.602
  36.920         49.17	     7.681
  36.940         62.50	     8.660
  36.960         49.17	     7.681
  36.980         49.17	     7.681
  37.000         46.67	     7.483
  37.020         43.33	     7.211
  37.040         53.33	     8.000
  37.060         48.33	     7.616
  37.080         52.50	     7.937
  37.100         55.00	     8.124
  37.120         44.17	     7.280
  37.140         47.50	     7.550
  37.160         45.00	     7.348
  37.180         38.33	     6.782
  37.200         51.67	     7.874
  37.220         57.50	     8.307
  37.240         48.33	     7.616
  37.260         55.00	     8.124
  37.280         53.33	     8.000
  37.300         48.33	     7.616
  37.320         62.50	     8.660
  37.340         45.83	     7.416
  37.360         72.50	     9.327
  37.380         65.83	     8.888
  37.400         70.00	     9.165
  37.420         77.50	     9.644
  37.440         50.00	     7.746
  37.460         61.67	     8.602
  37.480         51.67	     7.874
  37.500         71.67	     9.274
  37.520         63.33	     8.718
  37.540         90.83	    10.440
  37.560         77.50	     9.644
  37.580         73.33	     9.381
  37.600         85.00	    10.100
  37.620         80.83	     9.849
  37.640         75.00	     9.487
  37.660         88.33	    10.296
  37.680         75.00	     9.487
  37.700         78.33	     9.695
  37.720         72.50	     9.327
  37.740         75.83	     9.539
  37.760         61.67	     8.602
  37.780         56.67	     8.246
  37.800         55.00	     8.124
  37.820         62.50	     8.660
  37.840         66.67	     8.944
  37.860         47.50	     7.550
  37.880         35.83	     6.557
  37.900         41.67	     7.071
  37.920         47.50	     7.550
  37.940         35.00	     6.481
  37.960         48.33	     7.616
  37.980         38.33	     6.782
  38.000         34.17	     6.403
  38.020         39.17	     6.856
  38.040         30.83	     6.083
  38.060         35.00	     6.481
  38.080         25.83	     5.568
  38.100         31.67	     6.164
  38.120         34.17	     6.403
  38.140         29.17	     5.916
  38.160         35.83	     6.557
  38.180         29.17	     5.916
  38.200         35.00	     6.481
  38.220         36.67	     6.633
  38.240         32.50	     6.245
  38.260         30.83	     6.083
  38.280         35.00	     6.481
  38.300         34.17	     6.403
  38.320         35.83	     6.557
  38.340         26.67	     5.657
  38.360         18.33	     4.690
  38.380         48.33	     7.616
  38.400         41.67	     7.071
  38.420         31.67	     6.164
  38.440         35.83	     6.557
  38.460         40.83	     7.000
  38.480         38.33	     6.782
  38.500         40.83	     7.000
  38.520         40.00	     6.928
  38.540         35.83	     6.557
  38.560         46.67	     7.483
  38.580         40.83	     7.000
  38.600         36.67	     6.633
  38.620         38.33	     6.782
  38.640         45.83	     7.416
  38.660         36.67	     6.633
  38.680         35.83	     6.557
  38.700         37.50	     6.708
  38.720         47.50	     7.550
  38.740         48.33	     7.616
  38.760         45.00	     7.348
  38.780         50.83	     7.810
  38.800         55.83	     8.185
  38.820         39.17	     6.856
  38.840         39.17	     6.856
  38.860         51.67	     7.874
  38.880         44.17	     7.280
  38.900         50.00	     7.746
  38.920         40.83	     7.000
  38.940         44.17	     7.280
  38.960         45.83	     7.416
  38.980         42.50	     7.141
  39.000         47.50	     7.550
  39.020         61.67	     8.602
  39.040         69.17	     9.110
  39.060         57.50	     8.307
  39.080         41.67	     7.071
  39.100         45.83	     7.416
  39.120         45.83	     7.416
  39.140         50.83	     7.810
  39.160         54.17	     8.062
  39.180         44.17	     7.280
  39.200         37.50	     6.708
  39.220         47.50	     7.550
  39.240         42.50	     7.141
  39.260         45.83	     7.416
  39.280         46.67	     7.483
  39.300         64.17	     8.775
  39.320         63.33	     8.718
  39.340         64.17	     8.775
  39.360         87.50	    10.247
  39.380         93.33	    10.583
  39.400        143.33	    13.115
  39.420        159.17	    13.820
  39.440        132.50	    12.610
  39.460        127.50	    12.369
  39.480        105.00	    11.225
  39.500        110.83	    11.533
  39.520        107.50	    11.358
  39.540        105.83	    11.269
  39.560         82.50	     9.950
  39.580         64.17	     8.775
  39.600         50.00	     7.746
  39.620         68.33	     9.055
  39.640         69.17	     9.110
  39.660         70.00	     9.165
  39.680         50.00	     7.746
  39.700         64.17	     8.775
  39.720         38.33	     6.782
  39.740         64.17	     8.775
  39.760         51.67	     7.874
  39.780         60.00	     8.485
  39.800         55.00	     8.124
  39.820         56.67	     8.246
  39.840         45.83	     7.416
  39.860         45.00	     7.348
  39.880         53.33	     8.000
  39.900         40.00	     6.928
  39.920         52.50	     7.937
  39.940         51.67	     7.874
  39.960         45.83	     7.416
  39.980         37.50	     6.708
  40.000         56.67	     8.246
  40.020         49.17	     7.681
  40.040         53.33	     8.000
  40.060         46.67	     7.483
  40.080         40.83	     7.000
  40.100         35.83	     6.557
  40.120         40.83	     7.000
  40.140         44.17	     7.280
  40.160         50.00	     7.746
  40.180         53.33	     8.000
  40.200         82.50	     9.950
  40.220         99.17	    10.909
  40.240        148.33	    13.342
  40.260        135.83	    12.767
  40.280         96.67	    10.770
  40.300         85.00	    10.100
  40.320         87.50	    10.247
  40.340         94.17	    10.630
  40.360         79.17	     9.747
  40.380         81.67	     9.899
  40.400         60.00	     8.485
  40.420         45.83	     7.416
  40.440         50.83	     7.810
  40.460         40.00	     6.928
  40.480         41.67	     7.071
  40.500         40.83	     7.000
  40.520         35.83	     6.557
  40.540         42.50	     7.141
  40.560         30.83	     6.083
  40.580         42.50	     7.141
  40.600         45.00	     7.348
  40.620         46.67	     7.483
  40.640         55.00	     8.124
  40.660         38.33	     6.782
  40.680         48.33	     7.616
  40.700         45.00	     7.348
  40.720         48.33	     7.616
  40.740         44.17	     7.280
  40.760         43.33	     7.211
  40.780         37.50	     6.708
  40.800         42.50	     7.141
  40.820         50.83	     7.810
  40.840         50.83	     7.810
  40.860         34.17	     6.403
  40.880         49.17	     7.681
  40.900         39.17	     6.856
  40.920         48.33	     7.616
  40.940         46.67	     7.483
  40.960         45.83	     7.416
  40.980         50.00	     7.746
  41.000         45.00	     7.348
  41.020         52.50	     7.937
  41.040         45.83	     7.416
  41.060         40.00	     6.928
  41.080         45.00	     7.348
  41.100         38.33	     6.782
  41.120         46.67	     7.483
  41.140         56.67	     8.246
  41.160         75.00	     9.487
  41.180        150.00	    13.416
  41.200        329.17	    19.875
  41.220        446.67	    23.152
  41.240        230.83	    16.643
  41.260        100.00	    10.954
  41.280        109.17	    11.446
  41.300        164.17	    14.036
  41.320        264.17	    17.804
  41.340        207.50	    15.780
  41.360         89.17	    10.344
  41.380         56.67	     8.246
  41.400         45.83	     7.416
  41.420         40.83	     7.000
  41.440         49.17	     7.681
  41.460         40.00	     6.928
  41.480         49.17	     7.681
  41.500         59.17	     8.426
  41.520         46.67	     7.483
  41.540         51.67	     7.874
  41.560         54.17	     8.062
  41.580         50.83	     7.810
  41.600         60.00	     8.485
  41.620         69.17	     9.110
  41.640         77.50	     9.644
  41.660         62.50	     8.660
  41.680         71.67	     9.274
  41.700         74.17	     9.434
  41.720         90.00	    10.392
  41.740         63.33	     8.718
  41.760         65.83	     8.888
  41.780         65.00	     8.832
  41.800         58.33	     8.367
  41.820         65.00	     8.832
  41.840         59.17	     8.426
  41.860         51.67	     7.874
  41.880         40.83	     7.000
  41.900         56.67	     8.246
  41.920         58.33	     8.367
  41.940         51.67	     7.874
  41.960         61.67	     8.602
  41.980         50.00	     7.746
  42.000         59.17	     8.426
  42.020         54.17	     8.062
  42.040         49.17	     7.681
  42.060         47.50	     7.550
  42.080         50.00	     7.746
  42.100         46.67	     7.483
  42.120         38.33	     6.782
  42.140         40.83	     7.000
  42.160         51.67	     7.874
  42.180         62.50	     8.660
  42.200         59.17	     8.426
  42.220         61.67	     8.602
  42.240         56.67	     8.246
  42.260         70.83	     9.220
  42.280         55.83	     8.185
  42.300         75.83	     9.539
  42.320         95.83	    10.724
  42.340        107.50	    11.358
  42.360        138.33	    12.884
  42.380        159.17	    13.820
  42.400        166.67	    14.142
  42.420        201.67	    15.556
  42.440        194.17	    15.264
  42.460        210.83	    15.906
  42.480        124.17	    12.207
  42.500        121.67	    12.083
  42.520        118.33	    11.916
  42.540        120.00	    12.000
  42.560        115.83	    11.790
  42.580         82.50	     9.950
  42.600         63.33	     8.718
  42.620         50.00	     7.746
  42.640         56.67	     8.246
  42.660         51.67	     7.874
  42.680         59.17	     8.426
  42.700         50.00	     7.746
  42.720         40.00	     6.928
  42.740         47.50	     7.550
  42.760         55.83	     8.185
  42.780         50.00	     7.746
  42.800         46.67	     7.483
  42.820         46.67	     7.483
  42.840         51.67	     7.874
  42.860         36.67	     6.633
  42.880         35.83	     6.557
  42.900         44.17	     7.280
  42.920         46.67	     7.483
  42.940         49.17	     7.681
  42.960         51.67	     7.874
  42.980         56.67	     8.246
  43.000         40.83	     7.000
  43.020         45.00	     7.348
  43.040         38.33	     6.782
  43.060         38.33	     6.782
  43.080         47.50	     7.550
  43.100         41.67	     7.071
  43.120         48.33	     7.616
  43.140         40.83	     7.000
  43.160         46.67	     7.483
  43.180         31.67	     6.164
  43.200         38.33	     6.782
  43.220         52.50	     7.937
  43.240         48.33	     7.616
  43.260         41.67	     7.071
  43.280         35.00	     6.481
  43.300         55.00	     8.124
  43.320         53.33	     8.000
  43.340         38.33	     6.782
  43.360         48.33	     7.616
  43.380         49.17	     7.681
  43.400         58.33	     8.367
  43.420         50.83	     7.810
  43.440         49.17	     7.681
  43.460         50.00	     7.746
  43.480         73.33	     9.381
  43.500         75.00	     9.487
  43.520         85.00	    10.100
  43.540         75.00	     9.487
  43.560        100.83	    11.000
  43.580         99.17	    10.909
  43.600         82.50	     9.950
  43.620         93.33	    10.583
  43.640         93.33	    10.583
  43.660         82.50	     9.950
  43.680         78.33	     9.695
  43.700         90.00	    10.392
  43.720         85.83	    10.149
  43.740         89.17	    10.344
  43.760         88.33	    10.296
  43.780         79.17	     9.747
  43.800         80.83	     9.849
  43.820         76.67	     9.592
  43.840         84.17	    10.050
  43.860         77.50	     9.644
  43.880         88.33	    10.296
  43.900         89.17	    10.344
  43.920         85.83	    10.149
  43.940         50.00	     7.746
  43.960         83.33	    10.000
  43.980         81.67	     9.899
  44.000         75.83	     9.539
  44.020         81.67	     9.899
  44.040         76.67	     9.592
  44.060         75.00	     9.487
  44.080         80.00	     9.798
  44.100         71.67	     9.274
  44.120         70.83	     9.220
  44.140         73.33	     9.381
  44.160         90.00	    10.392
  44.180         89.17	    10.344
  44.200         98.33	    10.863
  44.220        106.67	    11.314
  44.240         92.50	    10.536
  44.260        134.17	    12.689
  44.280        134.17	    12.689
  44.300        119.17	    11.958
  44.320        132.50	    12.610
  44.340        150.83	    13.454
  44.360        173.33	    14.422
  44.380        177.50	    14.595
  44.400        168.33	    14.213
  44.420        189.17	    15.067
  44.440        171.67	    14.353
  44.460        197.50	    15.395
  44.480        204.17	    15.652
  44.500        211.67	    15.937
  44.520        225.83	    16.462
  44.540        207.50	    15.780
  44.560        185.83	    14.933
  44.580        181.67	    14.765
  44.600        214.17	    16.031
  44.620        184.17	    14.866
  44.640        182.50	    14.799
  44.660        183.33	    14.832
  44.680        184.17	    14.866
  44.700        175.00	    14.491
  44.720        155.00	    13.638
  44.740        160.83	    13.892
  44.760        126.67	    12.329
  44.780        134.17	    12.689
  44.800        127.50	    12.369
  44.820        122.50	    12.124
  44.840        125.83	    12.288
  44.860        123.33	    12.166
  44.880         96.67	    10.770
  44.900        127.50	    12.369
  44.920        117.50	    11.874
  44.940        108.33	    11.402
  44.960        106.67	    11.314
  44.980         93.33	    10.583
  45.000         91.67	    10.488
  45.020         88.33	    10.296
  45.040         79.17	     9.747
  45.060         85.00	    10.100
  45.080         75.83	     9.539
  45.100         86.67	    10.198
  45.120         97.50	    10.817
  45.140         76.67	     9.592
  45.160         93.33	    10.583
  45.180         70.83	     9.220
  45.200         72.50	     9.327
  45.220         66.67	     8.944
  45.240         79.17	     9.747
  45.260         65.83	     8.888
  45.280         76.67	     9.592
  45.300         68.33	     9.055
  45.320         85.00	    10.100
  45.340         70.00	     9.165
  45.360         75.00	     9.487
  45.380         74.17	     9.434
  45.400         83.33	    10.000
  45.420         95.00	    10.677
  45.440         90.83	    10.440
  45.460         96.67	    10.770
  45.480         94.17	    10.630
  45.500        106.67	    11.314
  45.520        102.50	    11.091
  45.540        110.83	    11.533
  45.560        105.83	    11.269
  45.580        110.00	    11.489
  45.600        116.67	    11.832
  45.620        101.67	    11.045
  45.640        106.67	    11.314
  45.660         97.50	    10.817
  45.680        116.67	    11.832
  45.700        109.17	    11.446
  45.720        110.83	    11.533
  45.740        112.50	    11.619
  45.760        132.50	    12.610
  45.780        120.83	    12.042
  45.800        107.50	    11.358
  45.820         83.33	    10.000
  45.840         76.67	     9.592
  45.860         76.67	     9.592
  45.880         69.17	     9.110
  45.900         76.67	     9.592
  45.920         75.83	     9.539
  45.940         63.33	     8.718
  45.960         55.00	     8.124
  45.980         55.83	     8.185
  46.000         52.50	     7.937
  46.020         47.50	     7.550
  46.040         51.67	     7.874
  46.060         54.17	     8.062
  46.080         42.50	     7.141
  46.100         47.50	     7.550
  46.120         39.17	     6.856
  46.140         45.00	     7.348
  46.160         41.67	     7.071
  46.180         38.33	     6.782
  46.200         32.50	     6.245
  46.220         35.00	     6.481
  46.240         32.50	     6.245
  46.260         29.17	     5.916
  46.280         23.33	     5.292
  46.300         48.33	     7.616
  46.320         30.00	     6.000
  46.340         35.00	     6.481
  46.360         25.00	     5.477
  46.380         29.17	     5.916
  46.400         41.67	     7.071
  46.420         36.67	     6.633
  46.440         31.67	     6.164
  46.460         34.17	     6.403
  46.480         43.33	     7.211
  46.500         26.67	     5.657
  46.520         45.00	     7.348
  46.540         28.33	     5.831
  46.560         44.17	     7.280
  46.580         44.17	     7.280
  46.600         32.50	     6.245
  46.620         32.50	     6.245
  46.640         31.67	     6.164
  46.660         32.50	     6.245
  46.680         32.50	     6.245
  46.700         33.33	     6.325
  46.720         36.67	     6.633
  46.740         32.50	     6.245
  46.760         33.33	     6.325
  46.780         40.83	     7.000
  46.800         30.83	     6.083
  46.820         37.50	     6.708
  46.840         30.00	     6.000
  46.860         35.83	     6.557
  46.880         31.67	     6.164
  46.900         37.50	     6.708
  46.920         28.33	     5.831
  46.940         24.17	     5.385
  46.960         50.00	     7.746
  46.980         33.33	     6.325
  47.000         44.17	     7.280
  47.020         33.33	     6.325
  47.040         42.50	     7.141
  47.060         45.83	     7.416
  47.080         45.00	     7.348
  47.100         36.67	     6.633
  47.120         40.83	     7.000
  47.140         33.33	     6.325
  47.160         45.00	     7.348
  47.180         38.33	     6.782
  47.200         30.00	     6.000
  47.220         32.50	     6.245
  47.240         28.33	     5.831
  47.260         28.33	     5.831
  47.280         33.33	     6.325
  47.300         27.50	     5.745
  47.320         35.00	     6.481
  47.340         26.67	     5.657
  47.360         33.33	     6.325
  47.380         34.17	     6.403
  47.400         38.33	     6.782
  47.420         31.67	     6.164
  47.440         35.83	     6.557
  47.460         27.50	     5.745
  47.480         35.00	     6.481
  47.500         30.83	     6.083
  47.520         39.17	     6.856
  47.540         37.50	     6.708
  47.560         39.17	     6.856
  47.580         35.00	     6.481
  47.600         32.50	     6.245
  47.620         40.00	     6.928
  47.640         38.33	     6.782
  47.660         24.17	     5.385
  47.680         28.33	     5.831
  47.700         31.67	     6.164
  47.720         25.00	     5.477
  47.740         29.17	     5.916
  47.760         23.33	     5.292
  47.780         36.67	     6.633
  47.800         30.83	     6.083
  47.820         29.17	     5.916
  47.840         42.50	     7.141
  47.860         45.83	     7.416
  47.880         49.17	     7.681
  47.900         50.83	     7.810
  47.920         43.33	     7.211
  47.940         38.33	     6.782
  47.960         48.33	     7.616
  47.980         33.33	     6.325
  48.000         35.83	     6.557
  48.020         45.00	     7.348
  48.040         51.67	     7.874
  48.060         52.50	     7.937
  48.080         63.33	     8.718
  48.100         46.67	     7.483
  48.120         53.33	     8.000
  48.140         48.33	     7.616
  48.160         45.00	     7.348
  48.180         47.50	     7.550
  48.200         49.17	     7.681
  48.220         50.00	     7.746
  48.240         43.33	     7.211
  48.260         46.67	     7.483
  48.280         45.00	     7.348
  48.300         57.50	     8.307
  48.320         46.67	     7.483
  48.340         43.33	     7.211
  48.360         57.50	     8.307
  48.380         46.67	     7.483
  48.400         36.67	     6.633
  48.420         34.17	     6.403
  48.440         40.83	     7.000
  48.460         37.50	     6.708
  48.480         33.33	     6.325
  48.500         32.50	     6.245
  48.520         41.67	     7.071
  48.540         36.67	     6.633
  48.560         42.50	     7.141
  48.580         53.33	     8.000
  48.600         43.33	     7.211
  48.620         46.67	     7.483
  48.640         31.67	     6.164
  48.660         52.50	     7.937
  48.680         50.83	     7.810
  48.700         44.17	     7.280
  48.720         44.17	     7.280
  48.740         51.67	     7.874
  48.760         50.00	     7.746
  48.780         40.83	     7.000
  48.800         42.50	     7.141
  48.820         38.33	     6.782
  48.840         41.67	     7.071
  48.860         42.50	     7.141
  48.880         26.67	     5.657
  48.900         30.83	     6.083
  48.920         29.17	     5.916
  48.940         31.67	     6.164
  48.960         29.17	     5.916
  48.980         21.67	     5.099
  49.000         36.67	     6.633
  49.020         41.67	     7.071
  49.040         28.33	     5.831
  49.060         38.33	     6.782
  49.080         40.00	     6.928
  49.100         40.83	     7.000
  49.120         51.67	     7.874
  49.140         31.67	     6.164
  49.160         52.50	     7.937
  49.180         32.50	     6.245
  49.200         42.50	     7.141
  49.220         39.17	     6.856
  49.240         45.00	     7.348
  49.260         43.33	     7.211
  49.280         55.00	     8.124
  49.300         45.00	     7.348
  49.320         41.67	     7.071
  49.340         49.17	     7.681
  49.360         32.50	     6.245
  49.380         34.17	     6.403
  49.400         41.67	     7.071
  49.420         39.17	     6.856
  49.440         46.67	     7.483
  49.460         44.17	     7.280
  49.480         37.50	     6.708
  49.500         40.00	     6.928
  49.520         44.17	     7.280
  49.540         47.50	     7.550
  49.560         45.83	     7.416
  49.580         43.33	     7.211
  49.600         35.83	     6.557
  49.620         31.67	     6.164
  49.640         40.00	     6.928
  49.660         45.00	     7.348
  49.680         54.17	     8.062
  49.700         52.50	     7.937
  49.720         63.33	     8.718
  49.740         48.33	     7.616
  49.760         47.50	     7.550
  49.780         68.33	     9.055
  49.800         56.67	     8.246
  49.820         45.83	     7.416
  49.840         60.83	     8.544
  49.860         60.83	     8.544
  49.880         65.00	     8.832
  49.900         84.17	    10.050
  49.920         95.00	    10.677
  49.940         85.00	    10.100
  49.960         82.50	     9.950
  49.980         90.83	    10.440
  50.000        133.33	    12.649
  50.020        146.67	    13.266
  50.040        188.33	    15.033
  50.060        245.83	    17.176
  50.080        360.83	    20.809
  50.100        415.00	    22.316
  50.120        331.67	    19.950
  50.140        267.50	    17.916
  50.160        161.67	    13.928
  50.180        157.50	    13.748
  50.200        173.33	    14.422
  50.220        186.67	    14.967
  50.240        204.17	    15.652
  50.260        175.83	    14.526
  50.280        107.50	    11.358
  50.300         86.67	    10.198
  50.320         52.50	     7.937
  50.340         56.67	     8.246
  50.360         51.67	     7.874
  50.380         57.50	     8.307
  50.400         45.00	     7.348
  50.420         63.33	     8.718
  50.440         50.00	     7.746
  50.460         57.50	     8.307
  50.480         67.50	     9.000
  50.500         81.67	     9.899
  50.520         92.50	    10.536
  50.540         93.33	    10.583
  50.560        105.83	    11.269
  50.580        104.17	    11.180
  50.600         99.17	    10.909
  50.620         74.17	     9.434
  50.640         81.67	     9.899
  50.660         85.83	    10.149
  50.680         79.17	     9.747
  50.700         91.67	    10.488
  50.720         75.83	     9.539
  50.740         68.33	     9.055
  50.760         52.50	     7.937
  50.780         55.00	     8.124
  50.800         58.33	     8.367
  50.820         47.50	     7.550
  50.840         44.17	     7.280
  50.860         44.17	     7.280
  50.880         45.00	     7.348
  50.900         27.50	     5.745
  50.920         57.50	     8.307
  50.940         32.50	     6.245
  50.960         40.83	     7.000
  50.980         43.33	     7.211
  51.000         51.67	     7.874
  51.020         48.33	     7.616
  51.040         49.17	     7.681
  51.060         56.67	     8.246
  51.080         44.17	     7.280
  51.100         67.50	     9.000
  51.120         53.33	     8.000
  51.140         47.50	     7.550
  51.160         44.17	     7.280
  51.180         46.67	     7.483
  51.200         39.17	     6.856
  51.220         47.50	     7.550
  51.240         47.50	     7.550
  51.260         40.83	     7.000
  51.280         54.17	     8.062
  51.300         48.33	     7.616
  51.320         38.33	     6.782
  51.340         43.33	     7.211
  51.360         51.67	     7.874
  51.380         26.67	     5.657
  51.400         36.67	     6.633
  51.420         35.83	     6.557
  51.440         25.00	     5.477
  51.460         30.00	     6.000
  51.480         25.83	     5.568
  51.500         29.17	     5.916
  51.520         36.67	     6.633
  51.540         35.83	     6.557
  51.560         34.17	     6.403
  51.580         40.00	     6.928
  51.600         25.00	     5.477
  51.620         26.67	     5.657
  51.640         28.33	     5.831
  51.660         29.17	     5.916
  51.680         41.67	     7.071
  51.700         35.83	     6.557
  51.720         22.50	     5.196
  51.740         35.00	     6.481
  51.760         25.83	     5.568
  51.780         30.83	     6.083
  51.800         35.00	     6.481
  51.820         34.17	     6.403
  51.840         22.50	     5.196
  51.860         19.17	     4.796
  51.880         33.33	     6.325
  51.900         21.67	     5.099
  51.920         32.50	     6.245
  51.940         26.67	     5.657
  51.960         35.00	     6.481
  51.980         28.33	     5.831
  52.000         33.33	     6.325
  52.020         40.00	     6.928
  52.040         33.33	     6.325
  52.060         43.33	     7.211
  52.080         45.00	     7.348
  52.100         49.17	     7.681
  52.120         42.50	     7.141
  52.140         31.67	     6.164
  52.160         36.67	     6.633
  52.180         36.67	     6.633
  52.200         48.33	     7.616
  52.220         35.00	     6.481
  52.240         45.83	     7.416
  52.260         42.50	     7.141
  52.280         39.17	     6.856
  52.300         50.00	     7.746
  52.320         45.00	     7.348
  52.340         56.67	     8.246
  52.360         50.00	     7.746
  52.380         36.67	     6.633
  52.400         36.67	     6.633
  52.420         45.83	     7.416
  52.440         42.50	     7.141
  52.460         39.17	     6.856
  52.480         50.00	     7.746
  52.500         40.00	     6.928
  52.520         42.50	     7.141
  52.540         41.67	     7.071
  52.560         28.33	     5.831
  52.580         42.50	     7.141
  52.600         36.67	     6.633
  52.620         37.50	     6.708
  52.640         38.33	     6.782
  52.660         39.17	     6.856
  52.680         34.17	     6.403
  52.700         50.00	     7.746
  52.720         38.33	     6.782
  52.740         33.33	     6.325
  52.760         47.50	     7.550
  52.780         29.17	     5.916
  52.800         37.50	     6.708
  52.820         45.83	     7.416
  52.840         25.83	     5.568
  52.860         39.17	     6.856
  52.880         37.50	     6.708
  52.900         40.83	     7.000
  52.920         60.00	     8.485
  52.940         45.00	     7.348
  52.960         38.33	     6.782
  52.980         45.83	     7.416
  53.000         33.33	     6.325
  53.020         41.67	     7.071
  53.040         56.67	     8.246
  53.060         48.33	     7.616
  53.080         52.50	     7.937
  53.100         46.67	     7.483
  53.120         50.00	     7.746
  53.140         45.00	     7.348
  53.160         61.67	     8.602
  53.180         76.67	     9.592
  53.200         55.83	     8.185
  53.220         42.50	     7.141
  53.240         50.00	     7.746
  53.260         43.33	     7.211
  53.280         50.00	     7.746
  53.300         51.67	     7.874
  53.320         51.67	     7.874
  53.340         47.50	     7.550
  53.360         38.33	     6.782
  53.380         29.17	     5.916
  53.400         33.33	     6.325
  53.420         36.67	     6.633
  53.440         38.33	     6.782
  53.460         25.00	     5.477
  53.480         27.50	     5.745
  53.500         35.00	     6.481
  53.520         40.83	     7.000
  53.540         32.50	     6.245
  53.560         30.00	     6.000
  53.580         34.17	     6.403
  53.600         31.67	     6.164
  53.620         38.33	     6.782
  53.640         32.50	     6.245
  53.660         37.50	     6.708
  53.680         25.83	     5.568
  53.700         38.33	     6.782
  53.720         30.00	     6.000
  53.740         32.50	     6.245
  53.760         34.17	     6.403
  53.780         40.83	     7.000
  53.800         40.00	     6.928
  53.820         32.50	     6.245
  53.840         34.17	     6.403
  53.860         53.33	     8.000
  53.880         37.50	     6.708
  53.900         40.83	     7.000
  53.920         33.33	     6.325
  53.940         37.50	     6.708
  53.960         43.33	     7.211
  53.980         40.83	     7.000
  54.000         34.17	     6.403
  54.020         33.33	     6.325
  54.040         28.33	     5.831
  54.060         31.67	     6.164
  54.080         31.67	     6.164
  54.100         30.00	     6.000
  54.120         40.00	     6.928
  54.140         29.17	     5.916
  54.160         38.33	     6.782
  54.180         40.83	     7.000
  54.200         39.17	     6.856
  54.220         41.67	     7.071
  54.240         42.50	     7.141
  54.260         43.33	     7.211
  54.280         42.50	     7.141
  54.300         43.33	     7.211
  54.320         32.50	     6.245
  54.340         32.50	     6.245
  54.360         42.50	     7.141
  54.380         31.67	     6.164
  54.400         45.83	     7.416
  54.420         37.50	     6.708
  54.440         45.00	     7.348
  54.460         43.33	     7.211
  54.480         43.33	     7.211
  54.500         45.83	     7.416
  54.520         43.33	     7.211
  54.540         46.67	     7.483
  54.560         40.00	     6.928
  54.580         45.00	     7.348
  54.600         49.17	     7.681
  54.620         50.83	     7.810
  54.640         49.17	     7.681
  54.660         46.67	     7.483
  54.680         46.67	     7.483
  54.700         43.33	     7.211
  54.720         53.33	     8.000
  54.740         55.83	     8.185
  54.760         64.17	     8.775
  54.780         99.17	    10.909
  54.800        114.17	    11.705
  54.820        110.83	    11.533
  54.840        117.50	    11.874
  54.860        112.50	    11.619
  54.880         78.33	     9.695
  54.900         73.33	     9.381
  54.920         70.83	     9.220
  54.940         80.00	     9.798
  54.960         93.33	    10.583
  54.980         99.17	    10.909
  55.000         76.67	     9.592
  55.020         80.00	     9.798
  55.040         54.17	     8.062
  55.060         45.83	     7.416
  55.080         51.67	     7.874
  55.100         43.33	     7.211
  55.120         42.50	     7.141
  55.140         39.17	     6.856
  55.160         56.67	     8.246
  55.180         41.67	     7.071
  55.200         44.17	     7.280
  55.220         53.33	     8.000
  55.240         60.00	     8.485
  55.260         55.00	     8.124
  55.280         83.33	    10.000
  55.300         95.00	    10.677
  55.320         90.83	    10.440
  55.340         70.00	     9.165
  55.360         60.83	     8.544
  55.380         59.17	     8.426
  55.400         55.83	     8.185
  55.420         60.83	     8.544
  55.440         67.50	     9.000
  55.460         65.00	     8.832
  55.480         58.33	     8.367
  55.500         49.17	     7.681
  55.520         42.50	     7.141
  55.540         45.00	     7.348
  55.560         55.00	     8.124
  55.580         49.17	     7.681
  55.600         47.50	     7.550
  55.620         50.00	     7.746
  55.640         62.50	     8.660
  55.660         79.17	     9.747
  55.680        115.83	    11.790
  55.700        119.17	    11.958
  55.720         66.67	     8.944
  55.740         65.00	     8.832
  55.760         64.17	     8.775
  55.780         60.83	     8.544
  55.800         68.33	     9.055
  55.820         95.00	    10.677
  55.840         86.67	    10.198
  55.860         80.00	     9.798
  55.880         65.00	     8.832
  55.900         58.33	     8.367
  55.920         42.50	     7.141
  55.940         53.33	     8.000
  55.960         46.67	     7.483
  55.980         47.50	     7.550
  56.000         36.67	     6.633
  56.020         42.50	     7.141
  56.040         42.50	     7.141
  56.060         42.50	     7.141
  56.080         43.33	     7.211
  56.100         50.00	     7.746
  56.120         38.33	     6.782
  56.140         30.00	     6.000
  56.160         40.83	     7.000
  56.180         36.67	     6.633
  56.200         42.50	     7.141
  56.220         45.00	     7.348
  56.240         44.17	     7.280
  56.260         21.67	     5.099
  56.280         41.67	     7.071
  56.300         30.83	     6.083
  56.320         44.17	     7.280
  56.340         43.33	     7.211
  56.360         34.17	     6.403
  56.380         44.17	     7.280
  56.400         40.00	     6.928
  56.420         32.50	     6.245
  56.440         31.67	     6.164
  56.460         49.17	     7.681
  56.480         30.83	     6.083
  56.500         39.17	     6.856
  56.520         33.33	     6.325
  56.540         39.17	     6.856
  56.560         43.33	     7.211
  56.580         26.67	     5.657
  56.600         34.17	     6.403
  56.620         30.83	     6.083
  56.640         34.17	     6.403
  56.660         31.67	     6.164
  56.680         37.50	     6.708
  56.700         37.50	     6.708
  56.720         37.50	     6.708
  56.740         39.17	     6.856
  56.760         30.00	     6.000
  56.780         37.50	     6.708
  56.800         31.67	     6.164
  56.820         35.83	     6.557
  56.840         43.33	     7.211
  56.860         36.67	     6.633
  56.880         37.50	     6.708
  56.900         42.50	     7.141
  56.920         39.17	     6.856
  56.940         38.33	     6.782
  56.960         43.33	     7.211
  56.980         39.17	     6.856
  57.000         30.83	     6.083
  57.020         25.83	     5.568
  57.040         31.67	     6.164
  57.060         34.17	     6.403
  57.080         30.00	     6.000
  57.100         45.00	     7.348
  57.120         50.83	     7.810
  57.140         35.00	     6.481
  57.160         42.50	     7.141
  57.180         42.50	     7.141
  57.200         46.67	     7.483
  57.220         36.67	     6.633
  57.240         40.00	     6.928
  57.260         40.83	     7.000
  57.280         32.50	     6.245
  57.300         32.50	     6.245
  57.320         37.50	     6.708
  57.340         36.67	     6.633
  57.360         30.00	     6.000
  57.380         35.00	     6.481
  57.400         35.83	     6.557
  57.420         30.83	     6.083
  57.440         29.17	     5.916
  57.460         32.50	     6.245
  57.480         25.83	     5.568
  57.500         27.50	     5.745
  57.520         30.00	     6.000
  57.540         34.17	     6.403
  57.560         36.67	     6.633
  57.580         35.00	     6.481
  57.600         38.33	     6.782
  57.620         37.50	     6.708
  57.640         35.00	     6.481
  57.660         34.17	     6.403
  57.680         19.17	     4.796
  57.700         34.17	     6.403
  57.720         33.33	     6.325
  57.740         28.33	     5.831
  57.760         43.33	     7.211
  57.780         32.50	     6.245
  57.800         30.00	     6.000
  57.820         28.33	     5.831
  57.840         35.83	     6.557
  57.860         31.67	     6.164
  57.880         28.33	     5.831
  57.900         36.67	     6.633
  57.920         32.50	     6.245
  57.940         21.67	     5.099
  57.960         34.17	     6.403
  57.980         37.50	     6.708
  58.000         40.00	     6.928
  58.020         40.83	     7.000
  58.040         44.17	     7.280
  58.060         46.67	     7.483
  58.080         45.00	     7.348
  58.100         47.50	     7.550
  58.120         55.00	     8.124
  58.140         60.00	     8.485
  58.160         80.83	     9.849
  58.180        129.17	    12.450
  58.200        102.50	    11.091
  58.220         95.83	    10.724
  58.240         76.67	     9.592
  58.260         48.33	     7.616
  58.280         52.50	     7.937
  58.300         47.50	     7.550
  58.320         62.50	     8.660
  58.340         83.33	    10.000
  58.360         65.00	     8.832
  58.380         68.33	     9.055
  58.400         46.67	     7.483
  58.420         46.67	     7.483
  58.440         47.50	     7.550
  58.460         42.50	     7.141
  58.480         35.83	     6.557
  58.500         43.33	     7.211
  58.520         55.00	     8.124
  58.540         52.50	     7.937
  58.560         36.67	     6.633
  58.580         30.00	     6.000
  58.600         32.50	     6.245
  58.620         49.17	     7.681
  58.640         46.67	     7.483
  58.660         48.33	     7.616
  58.680         40.00	     6.928
  58.700         49.17	     7.681
  58.720         55.83	     8.185
  58.740         55.83	     8.185
  58.760         38.33	     6.782
  58.780         38.33	     6.782
  58.800         46.67	     7.483
  58.820         40.83	     7.000
  58.840         25.83	     5.568
  58.860         39.17	     6.856
  58.880         45.83	     7.416
  58.900         38.33	     6.782
  58.920         42.50	     7.141
  58.940         52.50	     7.937
  58.960         30.00	     6.000
  58.980         40.00	     6.928
  59.000         48.33	     7.616
  59.020         56.67	     8.246
  59.040         47.50	     7.550
  59.060         43.33	     7.211
  59.080         43.33	     7.211
  59.100         34.17	     6.403
  59.120         64.17	     8.775
  59.140         55.00	     8.124
  59.160         55.83	     8.185
  59.180         60.83	     8.544
  59.200         37.50	     6.708
  59.220         58.33	     8.367
  59.240         51.67	     7.874
  59.260         45.00	     7.348
  59.280         42.50	     7.141
  59.300         40.00	     6.928
  59.320         42.50	     7.141
  59.340         60.83	     8.544
  59.360         57.50	     8.307
  59.380         50.83	     7.810
  59.400         50.83	     7.810
  59.420         25.83	     5.568
  59.440         39.17	     6.856
  59.460         36.67	     6.633
  59.480         41.67	     7.071
  59.500         45.83	     7.416
  59.520         46.67	     7.483
  59.540         43.33	     7.211
  59.560         45.00	     7.348
  59.580         43.33	     7.211
  59.600         32.50	     6.245
  59.620         51.67	     7.874
  59.640         41.67	     7.071
  59.660         60.00	     8.485
  59.680         50.00	     7.746
  59.700         56.67	     8.246
  59.720         60.83	     8.544
  59.740         64.17	     8.775
  59.760         72.50	     9.327
  59.780         92.50	    10.536
  59.800         95.83	    10.724
  59.820        120.00	    12.000
  59.840        140.00	    12.961
  59.860        169.17	    14.248
  59.880        215.00	    16.062
  59.900        256.67	    17.550
  59.920        274.17	    18.138
  59.940        291.67	    18.708
  59.960        193.33	    15.232
  59.980        147.50	    13.304
  60.000        150.00	    13.416
  60.020        170.00	    14.283
  60.040        155.83	    13.675
  60.060        170.83	    14.318
  60.080        171.67	    14.353
  60.100        140.00	    12.961
  60.120        128.33	    12.410
  60.140        111.67	    11.576
  60.160         81.67	     9.899
  60.180         59.17	     8.426
  60.200         67.50	     9.000
  60.220         61.67	     8.602
  60.240         54.17	     8.062
  60.260         54.17	     8.062
  60.280         51.67	     7.874
  60.300         52.50	     7.937
  60.320         42.50	     7.141
  60.340         48.33	     7.616
  60.360         53.33	     8.000
  60.380         40.00	     6.928
  60.400         48.33	     7.616
  60.420         40.00	     6.928
  60.440         43.33	     7.211
  60.460         44.17	     7.280
  60.480         55.00	     8.124
  60.500         36.67	     6.633
  60.520         37.50	     6.708
  60.540         52.50	     7.937
  60.560         45.00	     7.348
  60.580         35.83	     6.557
  60.600         48.33	     7.616
  60.620         47.50	     7.550
  60.640         40.83	     7.000
  60.660         45.83	     7.416
  60.680         32.50	     6.245
  60.700         45.00	     7.348
  60.720         45.83	     7.416
  60.740         48.33	     7.616
  60.760         54.17	     8.062
  60.780         53.33	     8.000
  60.800         55.00	     8.124
  60.820         63.33	     8.718
  60.840         65.83	     8.888
  60.860         55.83	     8.185
  60.880         78.33	     9.695
  60.900         71.67	     9.274
  60.920         59.17	     8.426
  60.940         74.17	     9.434
  60.960         60.83	     8.544
  60.980         44.17	     7.280
  61.000         60.83	     8.544
  61.020         54.17	     8.062
  61.040         46.67	     7.483
  61.060         52.50	     7.937
  61.080         50.83	     7.810
  61.100         49.17	     7.681
  61.120         60.83	     8.544
  61.140         42.50	     7.141
  61.160         45.83	     7.416
  61.180         55.83	     8.185
  61.200         40.83	     7.000
  61.220         50.00	     7.746
  61.240         51.67	     7.874
  61.260         46.67	     7.483
  61.280         40.00	     6.928
  61.300         45.00	     7.348
  61.320         55.00	     8.124
  61.340         43.33	     7.211
  61.360         50.83	     7.810
  61.380         57.50	     8.307
  61.400         56.67	     8.246
  61.420         54.17	     8.062
  61.440         67.50	     9.000
  61.460         64.17	     8.775
  61.480         66.67	     8.944
  61.500         48.33	     7.616
  61.520         67.50	     9.000
  61.540         71.67	     9.274
  61.560         61.67	     8.602
  61.580         65.83	     8.888
  61.600         65.00	     8.832
  61.620         59.17	     8.426
  61.640         65.83	     8.888
  61.660         64.17	     8.775
  61.680         57.50	     8.307
  61.700         67.50	     9.000
  61.720         46.67	     7.483
  61.740         50.83	     7.810
  61.760         44.17	     7.280
  61.780         45.00	     7.348
  61.800         66.67	     8.944
  61.820         59.17	     8.426
  61.840         55.83	     8.185
  61.860         55.00	     8.124
  61.880         55.00	     8.124
  61.900         49.17	     7.681
  61.920         55.00	     8.124
  61.940         49.17	     7.681
  61.960         45.83	     7.416
  61.980         55.00	     8.124
  62.000         45.83	     7.416
  62.020         46.67	     7.483
  62.040         40.83	     7.000
  62.060         42.50	     7.141
  62.080         30.00	     6.000
  62.100         45.83	     7.416
  62.120         45.83	     7.416
  62.140         43.33	     7.211
  62.160         35.83	     6.557
  62.180         37.50	     6.708
  62.200         26.67	     5.657
  62.220         26.67	     5.657
  62.240         35.83	     6.557
  62.260         43.33	     7.211
  62.280         34.17	     6.403
  62.300         33.33	     6.325
  62.320         33.33	     6.325
  62.340         35.00	     6.481
  62.360         23.33	     5.292
  62.380         24.17	     5.385
  62.400         22.50	     5.196
  62.420         37.50	     6.708
  62.440         44.17	     7.280
  62.460         35.83	     6.557
  62.480         42.50	     7.141
  62.500         33.33	     6.325
  62.520         29.17	     5.916
  62.540         35.00	     6.481
  62.560         36.67	     6.633
  62.580         40.00	     6.928
  62.600         28.33	     5.831
  62.620         34.17	     6.403
  62.640         28.33	     5.831
  62.660         31.67	     6.164
  62.680         41.67	     7.071
  62.700         37.50	     6.708
  62.720         29.17	     5.916
  62.740         39.17	     6.856
  62.760         37.50	     6.708
  62.780         45.00	     7.348
  62.800         26.67	     5.657
  62.820         30.00	     6.000
  62.840         36.67	     6.633
  62.860         29.17	     5.916
  62.880         28.33	     5.831
  62.900         29.17	     5.916
  62.920         40.83	     7.000
  62.940         42.50	     7.141
  62.960         29.17	     5.916
  62.980         40.00	     6.928
  63.000         34.17	     6.403
  63.020         35.83	     6.557
  63.040         37.50	     6.708
  63.060         45.83	     7.416
  63.080         30.83	     6.083
  63.100         24.17	     5.385
  63.120         37.50	     6.708
  63.140         30.00	     6.000
  63.160         33.33	     6.325
  63.180         28.33	     5.831
  63.200         37.50	     6.708
  63.220         41.67	     7.071
  63.240         32.50	     6.245
  63.260         31.67	     6.164
  63.280         30.83	     6.083
  63.300         24.17	     5.385
  63.320         40.00	     6.928
  63.340         43.33	     7.211
  63.360         45.00	     7.348
  63.380         46.67	     7.483
  63.400         47.50	     7.550
  63.420         61.67	     8.602
  63.440         59.17	     8.426
  63.460         42.50	     7.141
  63.480         49.17	     7.681
  63.500         40.00	     6.928
  63.520         45.00	     7.348
  63.540         36.67	     6.633
  63.560         50.00	     7.746
  63.580         45.00	     7.348
  63.600         58.33	     8.367
  63.620         47.50	     7.550
  63.640         51.67	     7.874
  63.660         49.17	     7.681
  63.680         52.50	     7.937
  63.700         47.50	     7.550
  63.720         37.50	     6.708
  63.740         52.50	     7.937
  63.760         45.00	     7.348
  63.780         65.83	     8.888
  63.800         77.50	     9.644
  63.820         80.00	     9.798
  63.840         71.67	     9.274
  63.860         58.33	     8.367
  63.880         62.50	     8.660
  63.900         55.83	     8.185
  63.920         74.17	     9.434
  63.940         65.83	     8.888
  63.960         77.50	     9.644
  63.980         98.33	    10.863
  64.000         80.83	     9.849
  64.020         95.00	    10.677
  64.040         68.33	     9.055
  64.060         73.33	     9.381
  64.080         63.33	     8.718
  64.100         63.33	     8.718
  64.120         61.67	     8.602
  64.140         50.83	     7.810
  64.160         61.67	     8.602
  64.180         69.17	     9.110
  64.200         62.50	     8.660
  64.220         45.83	     7.416
  64.240         58.33	     8.367
  64.260         50.00	     7.746
  64.280         51.67	     7.874
  64.300         39.17	     6.856
  64.320         40.83	     7.000
  64.340         43.33	     7.211
  64.360         49.17	     7.681
  64.380         36.67	     6.633
  64.400         50.83	     7.810
  64.420         46.67	     7.483
  64.440         40.00	     6.928
  64.460         40.83	     7.000
  64.480         47.50	     7.550
  64.500         40.83	     7.000
  64.520         47.50	     7.550
  64.540         59.17	     8.426
  64.560         85.00	    10.100
  64.580         70.00	     9.165
  64.600         91.67	    10.488
  64.620         99.17	    10.909
  64.640         95.83	    10.724
  64.660         93.33	    10.583
  64.680         98.33	    10.863
  64.700         88.33	    10.296
  64.720         65.83	     8.888
  64.740         66.67	     8.944
  64.760         79.17	     9.747
  64.780         79.17	     9.747
  64.800         90.00	    10.392
  64.820        100.83	    11.000
  64.840         85.00	    10.100
  64.860         62.50	     8.660
  64.880         60.83	     8.544
  64.900         58.33	     8.367
  64.920         50.83	     7.810
  64.940         52.50	     7.937
  64.960         41.67	     7.071
  64.980         50.83	     7.810
  65.000         45.00	     7.348
