
Filename:
	C:\Program Files\Thermo Electron\WinXRD\Datafiles\F_HERMAN\GEO\G38_RT.raw

File Created:
	February 19, 2020 - 06:44 PM

Specimen Id:
	G38_RT

Specimen Name:
	

Specimen Description:
	

Comment:
Scan Type: 2Theta Scan
Start Angle: 3 deg.
Stop Angle: 65 deg.
Num Points: 3101
Step Size: 0.02 deg.
Scan Rate: 1.000000
Scan Mode: Continuous
Wavelength: 1.540562
\Kalpha1: 1.540562	\Kalpha2: 1.544390	\Kbeta: 1.392218

Optics:
		Detector:
			 Type: Fixed Slits
		Tube: 
			 Type: Fixed Slits


Datas:
 Pos [deg]       Rate [CPS]      ESD [-]

Range 1 ---> Iteration 1
   3.000        435.00	    22.847
   3.020        413.33	    22.271
   3.040        415.00	    22.316
   3.060        424.17	    22.561
   3.080        433.33	    22.804
   3.100        417.50	    22.383
   3.120        412.50	    22.249
   3.140        414.17	    22.293
   3.160        403.33	    22.000
   3.180        409.17	    22.159
   3.200        407.50	    22.113
   3.220        410.00	    22.181
   3.240        376.67	    21.260
   3.260        420.00	    22.450
   3.280        381.67	    21.401
   3.300        370.83	    21.095
   3.320        395.00	    21.772
   3.340        374.17	    21.190
   3.360        360.00	    20.785
   3.380        367.50	    21.000
   3.400        364.17	    20.905
   3.420        391.67	    21.679
   3.440        364.17	    20.905
   3.460        376.67	    21.260
   3.480        376.67	    21.260
   3.500        365.83	    20.952
   3.520        352.50	    20.567
   3.540        357.50	    20.712
   3.560        366.67	    20.976
   3.580        351.67	    20.543
   3.600        379.17	    21.331
   3.620        353.33	    20.591
   3.640        337.50	    20.125
   3.660        321.67	    19.647
   3.680        320.83	    19.621
   3.700        304.17	    19.105
   3.720        353.33	    20.591
   3.740        314.17	    19.416
   3.760        352.50	    20.567
   3.780        325.00	    19.748
   3.800        339.17	    20.174
   3.820        313.33	    19.391
   3.840        323.33	    19.698
   3.860        307.50	    19.209
   3.880        312.50	    19.365
   3.900        335.83	    20.075
   3.920        293.33	    18.762
   3.940        286.67	    18.547
   3.960        295.00	    18.815
   3.980        331.67	    19.950
   4.000        330.00	    19.900
   4.020        291.67	    18.708
   4.040        278.33	    18.276
   4.060        329.17	    19.875
   4.080        303.33	    19.079
   4.100        328.33	    19.849
   4.120        281.67	    18.385
   4.140        273.33	    18.111
   4.160        304.17	    19.105
   4.180        261.67	    17.720
   4.200        280.83	    18.358
   4.220        313.33	    19.391
   4.240        283.33	    18.439
   4.260        315.83	    19.468
   4.280        308.33	    19.235
   4.300        260.83	    17.692
   4.320        277.50	    18.248
   4.340        247.50	    17.234
   4.360        279.17	    18.303
   4.380        290.00	    18.655
   4.400        241.67	    17.029
   4.420        282.50	    18.412
   4.440        247.50	    17.234
   4.460        255.83	    17.521
   4.480        274.17	    18.138
   4.500        295.00	    18.815
   4.520        256.67	    17.550
   4.540        270.00	    18.000
   4.560        262.50	    17.748
   4.580        256.67	    17.550
   4.600        280.83	    18.358
   4.620        233.33	    16.733
   4.640        270.00	    18.000
   4.660        238.33	    16.912
   4.680        265.00	    17.833
   4.700        246.67	    17.205
   4.720        238.33	    16.912
   4.740        287.50	    18.574
   4.760        225.83	    16.462
   4.780        246.67	    17.205
   4.800        218.33	    16.186
   4.820        208.33	    15.811
   4.840        253.33	    17.436
   4.860        260.83	    17.692
   4.880        265.00	    17.833
   4.900        256.67	    17.550
   4.920        219.17	    16.217
   4.940        220.83	    16.279
   4.960        227.50	    16.523
   4.980        228.33	    16.553
   5.000        235.83	    16.823
   5.020        212.50	    15.969
   5.040        228.33	    16.553
   5.060        229.17	    16.583
   5.080        200.83	    15.524
   5.100        236.67	    16.852
   5.120        240.00	    16.971
   5.140        245.83	    17.176
   5.160        217.50	    16.155
   5.180        223.33	    16.371
   5.200        198.33	    15.427
   5.220        230.00	    16.613
   5.240        228.33	    16.553
   5.260        200.83	    15.524
   5.280        214.17	    16.031
   5.300        226.67	    16.492
   5.320        218.33	    16.186
   5.340        226.67	    16.492
   5.360        226.67	    16.492
   5.380        201.67	    15.556
   5.400        213.33	    16.000
   5.420        224.17	    16.401
   5.440        182.50	    14.799
   5.460        183.33	    14.832
   5.480        202.50	    15.588
   5.500        246.67	    17.205
   5.520        219.17	    16.217
   5.540        185.00	    14.900
   5.560        244.17	    17.117
   5.580        209.17	    15.843
   5.600        200.83	    15.524
   5.620        217.50	    16.155
   5.640        215.00	    16.062
   5.660        190.83	    15.133
   5.680        216.67	    16.125
   5.700        213.33	    16.000
   5.720        207.50	    15.780
   5.740        214.17	    16.031
   5.760        181.67	    14.765
   5.780        212.50	    15.969
   5.800        230.00	    16.613
   5.820        193.33	    15.232
   5.840        197.50	    15.395
   5.860        224.17	    16.401
   5.880        190.00	    15.100
   5.900        205.83	    15.716
   5.920        228.33	    16.553
   5.940        230.83	    16.643
   5.960        236.67	    16.852
   5.980        235.83	    16.823
   6.000        248.33	    17.263
   6.020        284.17	    18.466
   6.040        234.17	    16.763
   6.060        248.33	    17.263
   6.080        248.33	    17.263
   6.100        257.50	    17.578
   6.120        275.00	    18.166
   6.140        249.17	    17.292
   6.160        265.83	    17.861
   6.180        292.50	    18.735
   6.200        305.00	    19.131
   6.220        283.33	    18.439
   6.240        314.17	    19.416
   6.260        290.83	    18.682
   6.280        255.00	    17.493
   6.300        221.67	    16.310
   6.320        214.17	    16.031
   6.340        209.17	    15.843
   6.360        212.50	    15.969
   6.380        190.00	    15.100
   6.400        192.50	    15.199
   6.420        190.83	    15.133
   6.440        215.00	    16.062
   6.460        214.17	    16.031
   6.480        170.00	    14.283
   6.500        180.00	    14.697
   6.520        177.50	    14.595
   6.540        210.00	    15.875
   6.560        195.00	    15.297
   6.580        207.50	    15.780
   6.600        190.83	    15.133
   6.620        182.50	    14.799
   6.640        179.17	    14.663
   6.660        181.67	    14.765
   6.680        195.00	    15.297
   6.700        189.17	    15.067
   6.720        187.50	    15.000
   6.740        175.00	    14.491
   6.760        180.00	    14.697
   6.780        159.17	    13.820
   6.800        172.50	    14.387
   6.820        187.50	    15.000
   6.840        165.83	    14.107
   6.860        199.17	    15.460
   6.880        175.83	    14.526
   6.900        171.67	    14.353
   6.920        156.67	    13.711
   6.940        179.17	    14.663
   6.960        175.83	    14.526
   6.980        170.00	    14.283
   7.000        160.00	    13.856
   7.020        169.17	    14.248
   7.040        168.33	    14.213
   7.060        165.83	    14.107
   7.080        160.83	    13.892
   7.100        168.33	    14.213
   7.120        172.50	    14.387
   7.140        158.33	    13.784
   7.160        186.67	    14.967
   7.180        146.67	    13.266
   7.200        165.00	    14.071
   7.220        167.50	    14.177
   7.240        162.50	    13.964
   7.260        150.83	    13.454
   7.280        170.00	    14.283
   7.300        146.67	    13.266
   7.320        185.00	    14.900
   7.340        139.17	    12.923
   7.360        153.33	    13.565
   7.380        162.50	    13.964
   7.400        151.67	    13.491
   7.420        168.33	    14.213
   7.440        139.17	    12.923
   7.460        152.50	    13.528
   7.480        158.33	    13.784
   7.500        150.00	    13.416
   7.520        148.33	    13.342
   7.540        144.17	    13.153
   7.560        140.00	    12.961
   7.580        143.33	    13.115
   7.600        169.17	    14.248
   7.620        170.00	    14.283
   7.640        161.67	    13.928
   7.660        153.33	    13.565
   7.680        140.00	    12.961
   7.700        175.00	    14.491
   7.720        151.67	    13.491
   7.740        145.00	    13.191
   7.760        138.33	    12.884
   7.780        163.33	    14.000
   7.800        160.00	    13.856
   7.820        139.17	    12.923
   7.840        144.17	    13.153
   7.860        160.00	    13.856
   7.880        142.50	    13.077
   7.900        147.50	    13.304
   7.920        152.50	    13.528
   7.940        143.33	    13.115
   7.960        129.17	    12.450
   7.980        165.00	    14.071
   8.000        169.17	    14.248
   8.020        170.83	    14.318
   8.040        149.17	    13.379
   8.060        161.67	    13.928
   8.080        140.83	    13.000
   8.100        132.50	    12.610
   8.120        140.83	    13.000
   8.140        162.50	    13.964
   8.160        140.83	    13.000
   8.180        133.33	    12.649
   8.200        148.33	    13.342
   8.220        153.33	    13.565
   8.240        149.17	    13.379
   8.260        165.83	    14.107
   8.280        162.50	    13.964
   8.300        151.67	    13.491
   8.320        170.00	    14.283
   8.340        152.50	    13.528
   8.360        150.00	    13.416
   8.380        139.17	    12.923
   8.400        170.83	    14.318
   8.420        162.50	    13.964
   8.440        153.33	    13.565
   8.460        150.83	    13.454
   8.480        172.50	    14.387
   8.500        150.83	    13.454
   8.520        170.00	    14.283
   8.540        182.50	    14.799
   8.560        176.67	    14.560
   8.580        195.00	    15.297
   8.600        187.50	    15.000
   8.620        191.67	    15.166
   8.640        220.00	    16.248
   8.660        221.67	    16.310
   8.680        242.50	    17.059
   8.700        241.67	    17.029
   8.720        314.17	    19.416
   8.740        335.83	    20.075
   8.760        367.50	    21.000
   8.780        387.50	    21.564
   8.800        478.33	    23.958
   8.820        512.50	    24.799
   8.840        635.83	    27.622
   8.860        884.17	    32.573
   8.880        988.33	    34.438
   8.900        921.67	    33.257
   8.920        708.33	    29.155
   8.940        423.33	    22.539
   8.960        264.17	    17.804
   8.980        205.00	    15.684
   9.000        186.67	    14.967
   9.020        196.67	    15.362
   9.040        156.67	    13.711
   9.060        167.50	    14.177
   9.080        174.17	    14.457
   9.100        142.50	    13.077
   9.120        162.50	    13.964
   9.140        172.50	    14.387
   9.160        170.00	    14.283
   9.180        159.17	    13.820
   9.200        152.50	    13.528
   9.220        176.67	    14.560
   9.240        144.17	    13.153
   9.260        145.83	    13.229
   9.280        131.67	    12.570
   9.300        126.67	    12.329
   9.320        107.50	    11.358
   9.340        133.33	    12.649
   9.360        135.83	    12.767
   9.380        141.67	    13.038
   9.400        140.83	    13.000
   9.420        154.17	    13.601
   9.440        136.67	    12.806
   9.460        136.67	    12.806
   9.480        123.33	    12.166
   9.500        158.33	    13.784
   9.520        127.50	    12.369
   9.540        124.17	    12.207
   9.560        117.50	    11.874
   9.580        116.67	    11.832
   9.600        119.17	    11.958
   9.620        109.17	    11.446
   9.640        109.17	    11.446
   9.660        128.33	    12.410
   9.680        111.67	    11.576
   9.700        119.17	    11.958
   9.720        121.67	    12.083
   9.740        120.83	    12.042
   9.760        115.00	    11.747
   9.780        117.50	    11.874
   9.800        135.00	    12.728
   9.820        123.33	    12.166
   9.840        125.00	    12.247
   9.860        115.83	    11.790
   9.880        119.17	    11.958
   9.900        120.00	    12.000
   9.920        109.17	    11.446
   9.940        106.67	    11.314
   9.960        117.50	    11.874
   9.980        123.33	    12.166
  10.000        112.50	    11.619
  10.020        100.00	    10.954
  10.040        110.00	    11.489
  10.060         92.50	    10.536
  10.080        103.33	    11.136
  10.100        106.67	    11.314
  10.120        110.00	    11.489
  10.140         92.50	    10.536
  10.160        127.50	    12.369
  10.180        103.33	    11.136
  10.200        134.17	    12.689
  10.220        103.33	    11.136
  10.240        106.67	    11.314
  10.260         98.33	    10.863
  10.280        110.00	    11.489
  10.300        105.83	    11.269
  10.320        120.83	    12.042
  10.340        130.00	    12.490
  10.360        120.83	    12.042
  10.380        127.50	    12.369
  10.400        107.50	    11.358
  10.420        115.00	    11.747
  10.440        132.50	    12.610
  10.460        127.50	    12.369
  10.480        150.00	    13.416
  10.500        170.83	    14.318
  10.520        195.83	    15.330
  10.540        170.83	    14.318
  10.560        159.17	    13.820
  10.580        148.33	    13.342
  10.600        113.33	    11.662
  10.620        141.67	    13.038
  10.640        114.17	    11.705
  10.660        122.50	    12.124
  10.680        120.83	    12.042
  10.700        122.50	    12.124
  10.720        105.00	    11.225
  10.740        105.00	    11.225
  10.760         95.83	    10.724
  10.780        110.00	    11.489
  10.800        109.17	    11.446
  10.820        120.00	    12.000
  10.840        108.33	    11.402
  10.860         94.17	    10.630
  10.880        106.67	    11.314
  10.900         93.33	    10.583
  10.920         95.83	    10.724
  10.940        115.00	    11.747
  10.960        117.50	    11.874
  10.980        106.67	    11.314
  11.000        115.83	    11.790
  11.020        115.00	    11.747
  11.040         92.50	    10.536
  11.060        120.00	    12.000
  11.080        109.17	    11.446
  11.100         99.17	    10.909
  11.120         99.17	    10.909
  11.140        109.17	    11.446
  11.160        119.17	    11.958
  11.180        111.67	    11.576
  11.200        107.50	    11.358
  11.220        104.17	    11.180
  11.240         92.50	    10.536
  11.260        102.50	    11.091
  11.280        116.67	    11.832
  11.300        106.67	    11.314
  11.320         95.00	    10.677
  11.340        102.50	    11.091
  11.360         96.67	    10.770
  11.380        101.67	    11.045
  11.400         89.17	    10.344
  11.420        105.83	    11.269
  11.440        126.67	    12.329
  11.460        119.17	    11.958
  11.480         96.67	    10.770
  11.500        110.83	    11.533
  11.520        128.33	    12.410
  11.540        105.00	    11.225
  11.560         99.17	    10.909
  11.580        107.50	    11.358
  11.600        117.50	    11.874
  11.620        110.83	    11.533
  11.640         98.33	    10.863
  11.660        104.17	    11.180
  11.680        110.83	    11.533
  11.700        106.67	    11.314
  11.720         99.17	    10.909
  11.740        110.00	    11.489
  11.760        101.67	    11.045
  11.780         90.00	    10.392
  11.800        103.33	    11.136
  11.820        102.50	    11.091
  11.840        110.83	    11.533
  11.860         96.67	    10.770
  11.880        110.83	    11.533
  11.900        109.17	    11.446
  11.920        125.00	    12.247
  11.940        110.83	    11.533
  11.960        121.67	    12.083
  11.980        130.83	    12.530
  12.000        124.17	    12.207
  12.020        109.17	    11.446
  12.040        123.33	    12.166
  12.060        126.67	    12.329
  12.080        150.00	    13.416
  12.100        152.50	    13.528
  12.120        199.17	    15.460
  12.140        284.17	    18.466
  12.160        400.83	    21.932
  12.180        563.33	    26.000
  12.200        536.67	    25.377
  12.220        465.83	    23.643
  12.240        325.83	    19.774
  12.260        228.33	    16.553
  12.280        175.83	    14.526
  12.300        186.67	    14.967
  12.320        207.50	    15.780
  12.340        202.50	    15.588
  12.360        215.00	    16.062
  12.380        210.00	    15.875
  12.400        221.67	    16.310
  12.420        244.17	    17.117
  12.440        215.83	    16.093
  12.460        290.83	    18.682
  12.480        347.50	    20.421
  12.500        380.00	    21.354
  12.520        367.50	    21.000
  12.540        325.83	    19.774
  12.560        237.50	    16.882
  12.580        165.00	    14.071
  12.600        125.83	    12.288
  12.620        103.33	    11.136
  12.640        130.83	    12.530
  12.660        117.50	    11.874
  12.680        118.33	    11.916
  12.700        123.33	    12.166
  12.720         89.17	    10.344
  12.740         97.50	    10.817
  12.760         84.17	    10.050
  12.780        101.67	    11.045
  12.800        100.00	    10.954
  12.820         78.33	     9.695
  12.840         88.33	    10.296
  12.860         72.50	     9.327
  12.880        105.83	    11.269
  12.900         92.50	    10.536
  12.920         92.50	    10.536
  12.940         88.33	    10.296
  12.960         98.33	    10.863
  12.980         85.83	    10.149
  13.000        102.50	    11.091
  13.020         80.83	     9.849
  13.040         90.83	    10.440
  13.060         74.17	     9.434
  13.080         97.50	    10.817
  13.100        103.33	    11.136
  13.120         81.67	     9.899
  13.140         90.00	    10.392
  13.160         85.00	    10.100
  13.180         85.00	    10.100
  13.200         82.50	     9.950
  13.220         98.33	    10.863
  13.240         78.33	     9.695
  13.260        105.00	    11.225
  13.280         99.17	    10.909
  13.300         74.17	     9.434
  13.320         95.83	    10.724
  13.340         83.33	    10.000
  13.360         90.00	    10.392
  13.380         95.00	    10.677
  13.400         79.17	     9.747
  13.420         90.00	    10.392
  13.440         95.00	    10.677
  13.460         85.83	    10.149
  13.480         74.17	     9.434
  13.500         92.50	    10.536
  13.520         95.83	    10.724
  13.540         95.83	    10.724
  13.560         90.00	    10.392
  13.580         94.17	    10.630
  13.600         96.67	    10.770
  13.620         96.67	    10.770
  13.640         70.00	     9.165
  13.660         84.17	    10.050
  13.680         94.17	    10.630
  13.700         90.83	    10.440
  13.720         96.67	    10.770
  13.740        100.00	    10.954
  13.760        102.50	    11.091
  13.780         85.83	    10.149
  13.800        119.17	    11.958
  13.820        131.67	    12.570
  13.840        155.00	    13.638
  13.860        152.50	    13.528
  13.880        134.17	    12.689
  13.900        127.50	    12.369
  13.920        101.67	    11.045
  13.940         80.00	     9.798
  13.960         94.17	    10.630
  13.980         85.00	    10.100
  14.000        104.17	    11.180
  14.020         91.67	    10.488
  14.040         80.83	     9.849
  14.060         80.00	     9.798
  14.080         76.67	     9.592
  14.100         86.67	    10.198
  14.120         99.17	    10.909
  14.140         72.50	     9.327
  14.160         79.17	     9.747
  14.180         70.83	     9.220
  14.200         69.17	     9.110
  14.220         81.67	     9.899
  14.240         83.33	    10.000
  14.260         71.67	     9.274
  14.280         64.17	     8.775
  14.300         60.83	     8.544
  14.320         90.00	    10.392
  14.340         72.50	     9.327
  14.360         90.83	    10.440
  14.380         81.67	     9.899
  14.400         83.33	    10.000
  14.420         80.00	     9.798
  14.440         74.17	     9.434
  14.460         63.33	     8.718
  14.480         92.50	    10.536
  14.500         75.83	     9.539
  14.520         78.33	     9.695
  14.540         75.83	     9.539
  14.560         85.83	    10.149
  14.580         65.83	     8.888
  14.600         86.67	    10.198
  14.620         75.00	     9.487
  14.640         72.50	     9.327
  14.660         70.83	     9.220
  14.680         74.17	     9.434
  14.700         71.67	     9.274
  14.720         86.67	    10.198
  14.740         72.50	     9.327
  14.760         85.00	    10.100
  14.780         65.83	     8.888
  14.800         84.17	    10.050
  14.820         65.00	     8.832
  14.840         77.50	     9.644
  14.860         75.83	     9.539
  14.880         82.50	     9.950
  14.900         73.33	     9.381
  14.920         74.17	     9.434
  14.940         86.67	    10.198
  14.960         71.67	     9.274
  14.980         83.33	    10.000
  15.000         63.33	     8.718
  15.020         88.33	    10.296
  15.040         90.83	    10.440
  15.060         65.83	     8.888
  15.080         65.83	     8.888
  15.100         70.83	     9.220
  15.120         90.83	    10.440
  15.140         74.17	     9.434
  15.160         68.33	     9.055
  15.180         80.83	     9.849
  15.200         74.17	     9.434
  15.220         72.50	     9.327
  15.240         72.50	     9.327
  15.260         74.17	     9.434
  15.280         75.83	     9.539
  15.300         79.17	     9.747
  15.320         65.00	     8.832
  15.340         75.83	     9.539
  15.360         56.67	     8.246
  15.380         59.17	     8.426
  15.400         82.50	     9.950
  15.420         68.33	     9.055
  15.440         75.83	     9.539
  15.460         69.17	     9.110
  15.480         68.33	     9.055
  15.500         70.83	     9.220
  15.520         79.17	     9.747
  15.540         72.50	     9.327
  15.560         65.83	     8.888
  15.580         74.17	     9.434
  15.600         55.83	     8.185
  15.620         74.17	     9.434
  15.640         67.50	     9.000
  15.660         63.33	     8.718
  15.680         62.50	     8.660
  15.700         60.83	     8.544
  15.720         67.50	     9.000
  15.740         74.17	     9.434
  15.760         74.17	     9.434
  15.780         65.83	     8.888
  15.800         81.67	     9.899
  15.820         89.17	    10.344
  15.840         82.50	     9.950
  15.860         65.83	     8.888
  15.880         71.67	     9.274
  15.900         71.67	     9.274
  15.920         75.00	     9.487
  15.940         68.33	     9.055
  15.960         72.50	     9.327
  15.980         65.83	     8.888
  16.000         75.00	     9.487
  16.020         69.17	     9.110
  16.040         63.33	     8.718
  16.060         85.00	    10.100
  16.080         77.50	     9.644
  16.100         71.67	     9.274
  16.120         62.50	     8.660
  16.140         75.00	     9.487
  16.160         75.83	     9.539
  16.180         62.50	     8.660
  16.200         65.83	     8.888
  16.220         66.67	     8.944
  16.240         66.67	     8.944
  16.260         74.17	     9.434
  16.280         68.33	     9.055
  16.300         73.33	     9.381
  16.320         76.67	     9.592
  16.340         70.00	     9.165
  16.360         74.17	     9.434
  16.380         67.50	     9.000
  16.400         55.83	     8.185
  16.420         53.33	     8.000
  16.440         72.50	     9.327
  16.460         66.67	     8.944
  16.480         65.00	     8.832
  16.500         64.17	     8.775
  16.520         67.50	     9.000
  16.540         53.33	     8.000
  16.560         64.17	     8.775
  16.580         65.83	     8.888
  16.600         90.00	    10.392
  16.620         60.83	     8.544
  16.640         60.83	     8.544
  16.660         73.33	     9.381
  16.680         75.00	     9.487
  16.700         71.67	     9.274
  16.720         65.00	     8.832
  16.740         59.17	     8.426
  16.760         58.33	     8.367
  16.780         53.33	     8.000
  16.800         63.33	     8.718
  16.820         77.50	     9.644
  16.840         66.67	     8.944
  16.860         59.17	     8.426
  16.880         85.00	    10.100
  16.900         64.17	     8.775
  16.920         71.67	     9.274
  16.940         66.67	     8.944
  16.960         80.00	     9.798
  16.980         48.33	     7.616
  17.000         78.33	     9.695
  17.020         68.33	     9.055
  17.040         69.17	     9.110
  17.060         62.50	     8.660
  17.080         61.67	     8.602
  17.100         67.50	     9.000
  17.120         72.50	     9.327
  17.140         64.17	     8.775
  17.160         60.00	     8.485
  17.180         57.50	     8.307
  17.200         65.83	     8.888
  17.220         60.83	     8.544
  17.240         63.33	     8.718
  17.260         75.00	     9.487
  17.280         61.67	     8.602
  17.300         75.83	     9.539
  17.320         65.83	     8.888
  17.340         80.00	     9.798
  17.360         60.00	     8.485
  17.380         67.50	     9.000
  17.400         64.17	     8.775
  17.420         66.67	     8.944
  17.440         77.50	     9.644
  17.460         75.83	     9.539
  17.480         65.00	     8.832
  17.500         64.17	     8.775
  17.520         74.17	     9.434
  17.540         81.67	     9.899
  17.560         75.00	     9.487
  17.580         57.50	     8.307
  17.600         80.83	     9.849
  17.620         78.33	     9.695
  17.640         76.67	     9.592
  17.660         99.17	    10.909
  17.680         88.33	    10.296
  17.700         95.83	    10.724
  17.720        112.50	    11.619
  17.740        133.33	    12.649
  17.760        180.83	    14.731
  17.780        260.83	    17.692
  17.800        330.83	    19.925
  17.820        385.83	    21.517
  17.840        393.33	    21.726
  17.860        318.33	    19.545
  17.880        253.33	    17.436
  17.900        199.17	    15.460
  17.920        119.17	    11.958
  17.940         94.17	    10.630
  17.960         85.83	    10.149
  17.980         82.50	     9.950
  18.000         78.33	     9.695
  18.020         84.17	    10.050
  18.040         85.83	    10.149
  18.060         71.67	     9.274
  18.080         75.83	     9.539
  18.100         71.67	     9.274
  18.120         71.67	     9.274
  18.140         67.50	     9.000
  18.160         64.17	     8.775
  18.180         65.83	     8.888
  18.200         78.33	     9.695
  18.220         70.00	     9.165
  18.240         73.33	     9.381
  18.260         76.67	     9.592
  18.280         74.17	     9.434
  18.300         73.33	     9.381
  18.320         87.50	    10.247
  18.340         70.00	     9.165
  18.360         74.17	     9.434
  18.380         66.67	     8.944
  18.400         80.83	     9.849
  18.420         86.67	    10.198
  18.440         78.33	     9.695
  18.460        102.50	    11.091
  18.480         72.50	     9.327
  18.500        106.67	    11.314
  18.520        100.83	    11.000
  18.540        107.50	    11.358
  18.560        102.50	    11.091
  18.580        107.50	    11.358
  18.600         96.67	    10.770
  18.620        108.33	    11.402
  18.640         95.83	    10.724
  18.660        100.00	    10.954
  18.680         86.67	    10.198
  18.700        102.50	    11.091
  18.720        110.83	    11.533
  18.740        116.67	    11.832
  18.760        147.50	    13.304
  18.780        151.67	    13.491
  18.800        193.33	    15.232
  18.820        175.00	    14.491
  18.840        146.67	    13.266
  18.860        127.50	    12.369
  18.880         91.67	    10.488
  18.900         85.00	    10.100
  18.920         69.17	     9.110
  18.940         60.83	     8.544
  18.960         71.67	     9.274
  18.980         70.83	     9.220
  19.000         70.00	     9.165
  19.020         68.33	     9.055
  19.040         84.17	    10.050
  19.060         65.00	     8.832
  19.080         55.83	     8.185
  19.100         73.33	     9.381
  19.120         63.33	     8.718
  19.140         60.83	     8.544
  19.160         75.00	     9.487
  19.180         69.17	     9.110
  19.200         66.67	     8.944
  19.220         72.50	     9.327
  19.240         87.50	    10.247
  19.260         63.33	     8.718
  19.280         71.67	     9.274
  19.300         55.83	     8.185
  19.320         64.17	     8.775
  19.340         73.33	     9.381
  19.360         65.00	     8.832
  19.380         82.50	     9.950
  19.400         70.00	     9.165
  19.420         67.50	     9.000
  19.440         59.17	     8.426
  19.460         62.50	     8.660
  19.480         58.33	     8.367
  19.500         70.83	     9.220
  19.520         73.33	     9.381
  19.540         75.83	     9.539
  19.560         65.00	     8.832
  19.580         65.83	     8.888
  19.600         69.17	     9.110
  19.620         69.17	     9.110
  19.640         80.83	     9.849
  19.660         68.33	     9.055
  19.680         89.17	    10.344
  19.700         84.17	    10.050
  19.720         87.50	    10.247
  19.740         95.83	    10.724
  19.760         83.33	    10.000
  19.780         92.50	    10.536
  19.800         85.83	    10.149
  19.820        115.00	    11.747
  19.840         80.83	     9.849
  19.860         96.67	    10.770
  19.880         90.83	    10.440
  19.900         86.67	    10.198
  19.920         80.83	     9.849
  19.940         80.00	     9.798
  19.960         86.67	    10.198
  19.980         96.67	    10.770
  20.000         69.17	     9.110
  20.020         76.67	     9.592
  20.040         80.00	     9.798
  20.060         67.50	     9.000
  20.080         66.67	     8.944
  20.100         66.67	     8.944
  20.120         71.67	     9.274
  20.140         57.50	     8.307
  20.160         70.00	     9.165
  20.180         81.67	     9.899
  20.200         57.50	     8.307
  20.220         57.50	     8.307
  20.240         80.00	     9.798
  20.260         55.00	     8.124
  20.280         46.67	     7.483
  20.300         62.50	     8.660
  20.320         61.67	     8.602
  20.340         62.50	     8.660
  20.360         46.67	     7.483
  20.380         53.33	     8.000
  20.400         50.83	     7.810
  20.420         80.00	     9.798
  20.440         70.83	     9.220
  20.460         60.00	     8.485
  20.480         63.33	     8.718
  20.500         65.83	     8.888
  20.520         58.33	     8.367
  20.540         75.83	     9.539
  20.560         57.50	     8.307
  20.580         70.00	     9.165
  20.600         71.67	     9.274
  20.620         70.83	     9.220
  20.640         75.83	     9.539
  20.660         74.17	     9.434
  20.680         90.00	    10.392
  20.700         63.33	     8.718
  20.720         85.83	    10.149
  20.740        104.17	    11.180
  20.760        134.17	    12.689
  20.780        140.00	    12.961
  20.800        236.67	    16.852
  20.820        394.17	    21.749
  20.840        630.83	    27.514
  20.860        730.83	    29.614
  20.880        760.00	    30.199
  20.900        545.00	    25.573
  20.920        395.00	    21.772
  20.940        287.50	    18.574
  20.960        170.00	    14.283
  20.980        113.33	    11.662
  21.000        121.67	    12.083
  21.020        105.00	    11.225
  21.040         86.67	    10.198
  21.060         95.83	    10.724
  21.080         80.83	     9.849
  21.100         80.83	     9.849
  21.120         82.50	     9.950
  21.140         64.17	     8.775
  21.160         67.50	     9.000
  21.180         70.00	     9.165
  21.200         92.50	    10.536
  21.220         66.67	     8.944
  21.240         78.33	     9.695
  21.260         63.33	     8.718
  21.280         61.67	     8.602
  21.300         60.00	     8.485
  21.320         52.50	     7.937
  21.340         60.00	     8.485
  21.360         62.50	     8.660
  21.380         63.33	     8.718
  21.400         67.50	     9.000
  21.420         73.33	     9.381
  21.440         59.17	     8.426
  21.460         68.33	     9.055
  21.480         55.00	     8.124
  21.500         69.17	     9.110
  21.520         60.00	     8.485
  21.540         60.00	     8.485
  21.560         64.17	     8.775
  21.580         53.33	     8.000
  21.600         69.17	     9.110
  21.620         66.67	     8.944
  21.640         53.33	     8.000
  21.660         55.00	     8.124
  21.680         57.50	     8.307
  21.700         60.00	     8.485
  21.720         50.83	     7.810
  21.740         53.33	     8.000
  21.760         52.50	     7.937
  21.780         55.83	     8.185
  21.800         58.33	     8.367
  21.820         80.83	     9.849
  21.840         70.00	     9.165
  21.860         65.83	     8.888
  21.880         68.33	     9.055
  21.900         66.67	     8.944
  21.920         60.83	     8.544
  21.940         79.17	     9.747
  21.960         93.33	    10.583
  21.980        123.33	    12.166
  22.000        135.83	    12.767
  22.020        207.50	    15.780
  22.040        259.17	    17.635
  22.060        205.83	    15.716
  22.080        214.17	    16.031
  22.100        162.50	    13.964
  22.120        107.50	    11.358
  22.140         95.83	    10.724
  22.160         90.00	    10.392
  22.180         68.33	     9.055
  22.200         79.17	     9.747
  22.220         53.33	     8.000
  22.240         72.50	     9.327
  22.260         69.17	     9.110
  22.280         54.17	     8.062
  22.300         71.67	     9.274
  22.320         71.67	     9.274
  22.340         67.50	     9.000
  22.360         72.50	     9.327
  22.380         65.83	     8.888
  22.400         71.67	     9.274
  22.420         82.50	     9.950
  22.440         77.50	     9.644
  22.460         72.50	     9.327
  22.480         74.17	     9.434
  22.500         75.00	     9.487
  22.520         82.50	     9.950
  22.540         75.00	     9.487
  22.560         73.33	     9.381
  22.580         75.00	     9.487
  22.600         59.17	     8.426
  22.620         67.50	     9.000
  22.640         65.83	     8.888
  22.660         58.33	     8.367
  22.680         63.33	     8.718
  22.700         45.00	     7.348
  22.720         61.67	     8.602
  22.740         62.50	     8.660
  22.760         67.50	     9.000
  22.780         70.00	     9.165
  22.800         93.33	    10.583
  22.820        102.50	    11.091
  22.840         91.67	    10.488
  22.860         92.50	    10.536
  22.880        104.17	    11.180
  22.900         94.17	    10.630
  22.920         81.67	     9.899
  22.940         98.33	    10.863
  22.960        113.33	    11.662
  22.980         90.00	    10.392
  23.000         88.33	    10.296
  23.020         82.50	     9.950
  23.040         93.33	    10.583
  23.060        126.67	    12.329
  23.080        112.50	    11.619
  23.100        100.00	    10.954
  23.120         85.00	    10.100
  23.140         72.50	     9.327
  23.160         74.17	     9.434
  23.180         57.50	     8.307
  23.200         66.67	     8.944
  23.220         75.83	     9.539
  23.240         74.17	     9.434
  23.260         69.17	     9.110
  23.280         63.33	     8.718
  23.300         74.17	     9.434
  23.320         68.33	     9.055
  23.340         56.67	     8.246
  23.360         54.17	     8.062
  23.380         55.00	     8.124
  23.400         70.00	     9.165
  23.420         55.83	     8.185
  23.440         85.00	    10.100
  23.460        115.83	    11.790
  23.480        132.50	    12.610
  23.500        130.00	    12.490
  23.520        150.00	    13.416
  23.540        175.83	    14.526
  23.560        198.33	    15.427
  23.580        153.33	    13.565
  23.600        136.67	    12.806
  23.620        130.83	    12.530
  23.640         98.33	    10.863
  23.660         85.83	    10.149
  23.680         83.33	    10.000
  23.700         65.83	     8.888
  23.720         84.17	    10.050
  23.740         69.17	     9.110
  23.760         70.83	     9.220
  23.780         96.67	    10.770
  23.800         99.17	    10.909
  23.820         76.67	     9.592
  23.840         92.50	    10.536
  23.860         89.17	    10.344
  23.880         87.50	    10.247
  23.900         88.33	    10.296
  23.920         73.33	     9.381
  23.940         75.00	     9.487
  23.960         60.83	     8.544
  23.980         68.33	     9.055
  24.000         89.17	    10.344
  24.020         98.33	    10.863
  24.040         75.83	     9.539
  24.060         82.50	     9.950
  24.080         86.67	    10.198
  24.100         76.67	     9.592
  24.120         90.00	    10.392
  24.140         92.50	    10.536
  24.160         91.67	    10.488
  24.180         90.00	    10.392
  24.200         95.00	    10.677
  24.220        105.00	    11.225
  24.240        124.17	    12.207
  24.260        164.17	    14.036
  24.280        169.17	    14.248
  24.300        226.67	    16.492
  24.320        289.17	    18.628
  24.340        355.00	    20.640
  24.360        295.00	    18.815
  24.380        196.67	    15.362
  24.400        201.67	    15.556
  24.420        157.50	    13.748
  24.440        113.33	    11.662
  24.460         85.83	    10.149
  24.480        124.17	    12.207
  24.500        115.83	    11.790
  24.520        140.00	    12.961
  24.540        161.67	    13.928
  24.560        195.00	    15.297
  24.580        220.83	    16.279
  24.600        214.17	    16.031
  24.620        227.50	    16.523
  24.640        185.00	    14.900
  24.660        184.17	    14.866
  24.680        167.50	    14.177
  24.700        127.50	    12.369
  24.720        138.33	    12.884
  24.740        127.50	    12.369
  24.760        117.50	    11.874
  24.780        151.67	    13.491
  24.800        125.00	    12.247
  24.820        125.00	    12.247
  24.840        131.67	    12.570
  24.860        101.67	    11.045
  24.880        118.33	    11.916
  24.900        121.67	    12.083
  24.920         97.50	    10.817
  24.940        114.17	    11.705
  24.960        106.67	    11.314
  24.980         95.83	    10.724
  25.000        107.50	    11.358
  25.020        118.33	    11.916
  25.040        125.83	    12.288
  25.060        145.00	    13.191
  25.080        179.17	    14.663
  25.100        222.50	    16.340
  25.120        247.50	    17.234
  25.140        272.50	    18.083
  25.160        305.00	    19.131
  25.180        275.83	    18.193
  25.200        255.83	    17.521
  25.220        189.17	    15.067
  25.240        176.67	    14.560
  25.260        122.50	    12.124
  25.280        136.67	    12.806
  25.300         86.67	    10.198
  25.320         93.33	    10.583
  25.340        119.17	    11.958
  25.360        106.67	    11.314
  25.380        109.17	    11.446
  25.400        112.50	    11.619
  25.420        135.83	    12.767
  25.440        117.50	    11.874
  25.460        115.83	    11.790
  25.480        138.33	    12.884
  25.500        139.17	    12.923
  25.520        155.83	    13.675
  25.540        156.67	    13.711
  25.560        145.83	    13.229
  25.580        155.83	    13.675
  25.600        144.17	    13.153
  25.620        141.67	    13.038
  25.640        170.00	    14.283
  25.660        149.17	    13.379
  25.680        139.17	    12.923
  25.700        107.50	    11.358
  25.720        146.67	    13.266
  25.740        117.50	    11.874
  25.760         98.33	    10.863
  25.780         86.67	    10.198
  25.800         92.50	    10.536
  25.820         75.83	     9.539
  25.840         72.50	     9.327
  25.860         81.67	     9.899
  25.880         70.83	     9.220
  25.900         90.83	    10.440
  25.920         75.00	     9.487
  25.940         82.50	     9.950
  25.960         74.17	     9.434
  25.980         76.67	     9.592
  26.000         70.00	     9.165
  26.020         66.67	     8.944
  26.040         66.67	     8.944
  26.060         75.83	     9.539
  26.080         80.00	     9.798
  26.100         65.00	     8.832
  26.120         75.83	     9.539
  26.140         74.17	     9.434
  26.160         72.50	     9.327
  26.180        108.33	    11.402
  26.200         95.00	    10.677
  26.220         81.67	     9.899
  26.240         85.83	    10.149
  26.260         96.67	    10.770
  26.280        118.33	    11.916
  26.300        110.83	    11.533
  26.320        109.17	    11.446
  26.340        129.17	    12.450
  26.360        145.83	    13.229
  26.380        155.00	    13.638
  26.400        172.50	    14.387
  26.420        199.17	    15.460
  26.440        203.33	    15.620
  26.460        214.17	    16.031
  26.480        265.00	    17.833
  26.500        265.83	    17.861
  26.520        355.00	    20.640
  26.540        434.17	    22.825
  26.560        605.00	    26.944
  26.580        947.50	    33.719
  26.600       1503.33	    42.474
  26.620       2025.00	    49.295
  26.640       2243.33	    51.884
  26.660       2103.33	    50.239
  26.680       1685.00	    44.967
  26.700       1368.33	    40.522
  26.720       1147.50	    37.108
  26.740        859.17	    32.109
  26.760        576.67	    26.306
  26.780        523.33	    25.060
  26.800        582.50	    26.439
  26.820        731.67	    29.631
  26.840        840.83	    31.765
  26.860        939.17	    33.571
  26.880        947.50	    33.719
  26.900        925.00	    33.317
  26.920        813.33	    31.241
  26.940        639.17	    27.695
  26.960        524.17	    25.080
  26.980        398.33	    21.863
  27.000        277.50	    18.248
  27.020        208.33	    15.811
  27.040        154.17	    13.601
  27.060        156.67	    13.711
  27.080        130.00	    12.490
  27.100        139.17	    12.923
  27.120        118.33	    11.916
  27.140        106.67	    11.314
  27.160        115.83	    11.790
  27.180         82.50	     9.950
  27.200        110.00	    11.489
  27.220        102.50	    11.091
  27.240         84.17	    10.050
  27.260         76.67	     9.592
  27.280         87.50	    10.247
  27.300         95.00	    10.677
  27.320         83.33	    10.000
  27.340         98.33	    10.863
  27.360         91.67	    10.488
  27.380         86.67	    10.198
  27.400        123.33	    12.166
  27.420        147.50	    13.304
  27.440        159.17	    13.820
  27.460        175.83	    14.526
  27.480        232.50	    16.703
  27.500        322.50	    19.672
  27.520        314.17	    19.416
  27.540        292.50	    18.735
  27.560        235.00	    16.793
  27.580        206.67	    15.748
  27.600        205.00	    15.684
  27.620        162.50	    13.964
  27.640        125.00	    12.247
  27.660        171.67	    14.353
  27.680        209.17	    15.843
  27.700        350.00	    20.494
  27.720        596.67	    26.758
  27.740        670.00	    28.355
  27.760        541.67	    25.495
  27.780        483.33	    24.083
  27.800        527.50	    25.159
  27.820        550.00	    25.690
  27.840        620.00	    27.276
  27.860        650.00	    27.928
  27.880        693.33	    28.844
  27.900       1019.17	    34.971
  27.920       1059.17	    35.651
  27.940        714.17	    29.275
  27.960        678.33	    28.531
  27.980        635.83	    27.622
  28.000        465.00	    23.622
  28.020        316.67	    19.494
  28.040        246.67	    17.205
  28.060        175.83	    14.526
  28.080        156.67	    13.711
  28.100        150.83	    13.454
  28.120        160.00	    13.856
  28.140        161.67	    13.928
  28.160        179.17	    14.663
  28.180        154.17	    13.601
  28.200        160.00	    13.856
  28.220        157.50	    13.748
  28.240        159.17	    13.820
  28.260        143.33	    13.115
  28.280        145.83	    13.229
  28.300        130.83	    12.530
  28.320        142.50	    13.077
  28.340        122.50	    12.124
  28.360        101.67	    11.045
  28.380         93.33	    10.583
  28.400         75.83	     9.539
  28.420         81.67	     9.899
  28.440         70.00	     9.165
  28.460         91.67	    10.488
  28.480        103.33	    11.136
  28.500         75.00	     9.487
  28.520         95.83	    10.724
  28.540         94.17	    10.630
  28.560        110.00	    11.489
  28.580         87.50	    10.247
  28.600         92.50	    10.536
  28.620         97.50	    10.817
  28.640        107.50	    11.358
  28.660        110.83	    11.533
  28.680         95.83	    10.724
  28.700        103.33	    11.136
  28.720         92.50	    10.536
  28.740        114.17	    11.705
  28.760         90.83	    10.440
  28.780         99.17	    10.909
  28.800         92.50	    10.536
  28.820         63.33	     8.718
  28.840         65.00	     8.832
  28.860         56.67	     8.246
  28.880         73.33	     9.381
  28.900         77.50	     9.644
  28.920         55.00	     8.124
  28.940         65.00	     8.832
  28.960         53.33	     8.000
  28.980         65.83	     8.888
  29.000         63.33	     8.718
  29.020         51.67	     7.874
  29.040         52.50	     7.937
  29.060         59.17	     8.426
  29.080         46.67	     7.483
  29.100         67.50	     9.000
  29.120         53.33	     8.000
  29.140         55.00	     8.124
  29.160         60.83	     8.544
  29.180         54.17	     8.062
  29.200         65.83	     8.888
  29.220         52.50	     7.937
  29.240         49.17	     7.681
  29.260         44.17	     7.280
  29.280         53.33	     8.000
  29.300         57.50	     8.307
  29.320         50.00	     7.746
  29.340         60.83	     8.544
  29.360         48.33	     7.616
  29.380         59.17	     8.426
  29.400         66.67	     8.944
  29.420         54.17	     8.062
  29.440         65.83	     8.888
  29.460         76.67	     9.592
  29.480         63.33	     8.718
  29.500         62.50	     8.660
  29.520         51.67	     7.874
  29.540         56.67	     8.246
  29.560         54.17	     8.062
  29.580         60.83	     8.544
  29.600         70.83	     9.220
  29.620         70.00	     9.165
  29.640         76.67	     9.592
  29.660         73.33	     9.381
  29.680         76.67	     9.592
  29.700         74.17	     9.434
  29.720         98.33	    10.863
  29.740         70.00	     9.165
  29.760        102.50	    11.091
  29.780        100.83	    11.000
  29.800        105.83	    11.269
  29.820        114.17	    11.705
  29.840        142.50	    13.077
  29.860        140.00	    12.961
  29.880        126.67	    12.329
  29.900        135.83	    12.767
  29.920        136.67	    12.806
  29.940        116.67	    11.832
  29.960        125.83	    12.288
  29.980        110.83	    11.533
  30.000        105.83	    11.269
  30.020        105.00	    11.225
  30.040        102.50	    11.091
  30.060         97.50	    10.817
  30.080         95.00	    10.677
  30.100         95.00	    10.677
  30.120        141.67	    13.038
  30.140        131.67	    12.570
  30.160        119.17	    11.958
  30.180        125.83	    12.288
  30.200        135.00	    12.728
  30.220        120.83	    12.042
  30.240         96.67	    10.770
  30.260         95.83	    10.724
  30.280         86.67	    10.198
  30.300         84.17	    10.050
  30.320         68.33	     9.055
  30.340        100.00	    10.954
  30.360         83.33	    10.000
  30.380         75.00	     9.487
  30.400        113.33	    11.662
  30.420        123.33	    12.166
  30.440        155.83	    13.675
  30.460        110.00	    11.489
  30.480        126.67	    12.329
  30.500        155.00	    13.638
  30.520        150.00	    13.416
  30.540        113.33	    11.662
  30.560         80.83	     9.849
  30.580        101.67	    11.045
  30.600        101.67	    11.045
  30.620         93.33	    10.583
  30.640         70.00	     9.165
  30.660         68.33	     9.055
  30.680         67.50	     9.000
  30.700         71.67	     9.274
  30.720         66.67	     8.944
  30.740         71.67	     9.274
  30.760         70.83	     9.220
  30.780         80.83	     9.849
  30.800         88.33	    10.296
  30.820         97.50	    10.817
  30.840        122.50	    12.124
  30.860        125.83	    12.288
  30.880        127.50	    12.369
  30.900        144.17	    13.153
  30.920        130.00	    12.490
  30.940        115.00	    11.747
  30.960        106.67	    11.314
  30.980        100.00	    10.954
  31.000         95.00	    10.677
  31.020         78.33	     9.695
  31.040         71.67	     9.274
  31.060         68.33	     9.055
  31.080         67.50	     9.000
  31.100         86.67	    10.198
  31.120         91.67	    10.488
  31.140         70.83	     9.220
  31.160         98.33	    10.863
  31.180         91.67	    10.488
  31.200         95.00	    10.677
  31.220        114.17	    11.705
  31.240        134.17	    12.689
  31.260        124.17	    12.207
  31.280        118.33	    11.916
  31.300        119.17	    11.958
  31.320         98.33	    10.863
  31.340         80.00	     9.798
  31.360        105.00	    11.225
  31.380         84.17	    10.050
  31.400         82.50	     9.950
  31.420         60.83	     8.544
  31.440         82.50	     9.950
  31.460         80.00	     9.798
  31.480         75.83	     9.539
  31.500         73.33	     9.381
  31.520         68.33	     9.055
  31.540         79.17	     9.747
  31.560         93.33	    10.583
  31.580         79.17	     9.747
  31.600         81.67	     9.899
  31.620         80.83	     9.849
  31.640         76.67	     9.592
  31.660         68.33	     9.055
  31.680         70.00	     9.165
  31.700         68.33	     9.055
  31.720         59.17	     8.426
  31.740         54.17	     8.062
  31.760         45.83	     7.416
  31.780         55.83	     8.185
  31.800         63.33	     8.718
  31.820         54.17	     8.062
  31.840         71.67	     9.274
  31.860         52.50	     7.937
  31.880         56.67	     8.246
  31.900         60.83	     8.544
  31.920         51.67	     7.874
  31.940         70.83	     9.220
  31.960         78.33	     9.695
  31.980         55.83	     8.185
  32.000         62.50	     8.660
  32.020         71.67	     9.274
  32.040         70.83	     9.220
  32.060         98.33	    10.863
  32.080         91.67	    10.488
  32.100         93.33	    10.583
  32.120         83.33	    10.000
  32.140         71.67	     9.274
  32.160         75.83	     9.539
  32.180         87.50	    10.247
  32.200         83.33	    10.000
  32.220         70.83	     9.220
  32.240         78.33	     9.695
  32.260         92.50	    10.536
  32.280         81.67	     9.899
  32.300         63.33	     8.718
  32.320         54.17	     8.062
  32.340         72.50	     9.327
  32.360         69.17	     9.110
  32.380         52.50	     7.937
  32.400         64.17	     8.775
  32.420         55.00	     8.124
  32.440         62.50	     8.660
  32.460         50.00	     7.746
  32.480         58.33	     8.367
  32.500         51.67	     7.874
  32.520         37.50	     6.708
  32.540         70.00	     9.165
  32.560         48.33	     7.616
  32.580         47.50	     7.550
  32.600         67.50	     9.000
  32.620         48.33	     7.616
  32.640         40.00	     6.928
  32.660         54.17	     8.062
  32.680         50.83	     7.810
  32.700         43.33	     7.211
  32.720         46.67	     7.483
  32.740         45.83	     7.416
  32.760         49.17	     7.681
  32.780         48.33	     7.616
  32.800         58.33	     8.367
  32.820         40.83	     7.000
  32.840         48.33	     7.616
  32.860         55.83	     8.185
  32.880         61.67	     8.602
  32.900         50.83	     7.810
  32.920         54.17	     8.062
  32.940         50.00	     7.746
  32.960         43.33	     7.211
  32.980         53.33	     8.000
  33.000         58.33	     8.367
  33.020         73.33	     9.381
  33.040         85.83	    10.149
  33.060         99.17	    10.909
  33.080        100.00	    10.954
  33.100         94.17	    10.630
  33.120         65.00	     8.832
  33.140         78.33	     9.695
  33.160         79.17	     9.747
  33.180         71.67	     9.274
  33.200         68.33	     9.055
  33.220         52.50	     7.937
  33.240         55.83	     8.185
  33.260         45.83	     7.416
  33.280         59.17	     8.426
  33.300         54.17	     8.062
  33.320         47.50	     7.550
  33.340         51.67	     7.874
  33.360         52.50	     7.937
  33.380         52.50	     7.937
  33.400         39.17	     6.856
  33.420         52.50	     7.937
  33.440         65.83	     8.888
  33.460         44.17	     7.280
  33.480         43.33	     7.211
  33.500         48.33	     7.616
  33.520         58.33	     8.367
  33.540         42.50	     7.141
  33.560         50.00	     7.746
  33.580         44.17	     7.280
  33.600         43.33	     7.211
  33.620         50.83	     7.810
  33.640         46.67	     7.483
  33.660         55.83	     8.185
  33.680         50.00	     7.746
  33.700         47.50	     7.550
  33.720         54.17	     8.062
  33.740         42.50	     7.141
  33.760         52.50	     7.937
  33.780         52.50	     7.937
  33.800         50.00	     7.746
  33.820         49.17	     7.681
  33.840         55.00	     8.124
  33.860         55.00	     8.124
  33.880         49.17	     7.681
  33.900         73.33	     9.381
  33.920         72.50	     9.327
  33.940         65.83	     8.888
  33.960         65.00	     8.832
  33.980         47.50	     7.550
  34.000         63.33	     8.718
  34.020         62.50	     8.660
  34.040         58.33	     8.367
  34.060         49.17	     7.681
  34.080         54.17	     8.062
  34.100         66.67	     8.944
  34.120         64.17	     8.775
  34.140         55.00	     8.124
  34.160         56.67	     8.246
  34.180         46.67	     7.483
  34.200         48.33	     7.616
  34.220         63.33	     8.718
  34.240         53.33	     8.000
  34.260         53.33	     8.000
  34.280         75.83	     9.539
  34.300         66.67	     8.944
  34.320         67.50	     9.000
  34.340         85.00	    10.100
  34.360         61.67	     8.602
  34.380         71.67	     9.274
  34.400         60.00	     8.485
  34.420         86.67	    10.198
  34.440         84.17	    10.050
  34.460         70.00	     9.165
  34.480         92.50	    10.536
  34.500         82.50	     9.950
  34.520         93.33	    10.583
  34.540        100.83	    11.000
  34.560         96.67	    10.770
  34.580        104.17	    11.180
  34.600        100.00	    10.954
  34.620        107.50	    11.358
  34.640         99.17	    10.909
  34.660         88.33	    10.296
  34.680         91.67	    10.488
  34.700         97.50	    10.817
  34.720         93.33	    10.583
  34.740         95.83	    10.724
  34.760         75.00	     9.487
  34.780         92.50	    10.536
  34.800        117.50	    11.874
  34.820        100.83	    11.000
  34.840        106.67	    11.314
  34.860        109.17	    11.446
  34.880        132.50	    12.610
  34.900        131.67	    12.570
  34.920        142.50	    13.077
  34.940        141.67	    13.038
  34.960        138.33	    12.884
  34.980        144.17	    13.153
  35.000        159.17	    13.820
  35.020        139.17	    12.923
  35.040        115.83	    11.790
  35.060        117.50	    11.874
  35.080        140.00	    12.961
  35.100        105.00	    11.225
  35.120        105.00	    11.225
  35.140         92.50	    10.536
  35.160         75.83	     9.539
  35.180         77.50	     9.644
  35.200         90.00	    10.392
  35.220         86.67	    10.198
  35.240        117.50	    11.874
  35.260        131.67	    12.570
  35.280         94.17	    10.630
  35.300         80.00	     9.798
  35.320        104.17	    11.180
  35.340        123.33	    12.166
  35.360        111.67	    11.576
  35.380        103.33	    11.136
  35.400        103.33	    11.136
  35.420        100.83	    11.000
  35.440        122.50	    12.124
  35.460        125.00	    12.247
  35.480        120.00	    12.000
  35.500        118.33	    11.916
  35.520        138.33	    12.884
  35.540        124.17	    12.207
  35.560        128.33	    12.410
  35.580        129.17	    12.450
  35.600        126.67	    12.329
  35.620         95.00	    10.677
  35.640         95.00	    10.677
  35.660         87.50	    10.247
  35.680        108.33	    11.402
  35.700         88.33	    10.296
  35.720         73.33	     9.381
  35.740         73.33	     9.381
  35.760         80.83	     9.849
  35.780         67.50	     9.000
  35.800         77.50	     9.644
  35.820         56.67	     8.246
  35.840         66.67	     8.944
  35.860         50.83	     7.810
  35.880         60.83	     8.544
  35.900         52.50	     7.937
  35.920         79.17	     9.747
  35.940         76.67	     9.592
  35.960         76.67	     9.592
  35.980         76.67	     9.592
  36.000         79.17	     9.747
  36.020         95.83	    10.724
  36.040         92.50	    10.536
  36.060        114.17	    11.705
  36.080        115.83	    11.790
  36.100         99.17	    10.909
  36.120        133.33	    12.649
  36.140        111.67	    11.576
  36.160        101.67	    11.045
  36.180         91.67	    10.488
  36.200         80.00	     9.798
  36.220         78.33	     9.695
  36.240         58.33	     8.367
  36.260         66.67	     8.944
  36.280         60.83	     8.544
  36.300         63.33	     8.718
  36.320         66.67	     8.944
  36.340         60.00	     8.485
  36.360         63.33	     8.718
  36.380         65.00	     8.832
  36.400         73.33	     9.381
  36.420         64.17	     8.775
  36.440         78.33	     9.695
  36.460         91.67	    10.488
  36.480        105.00	    11.225
  36.500        215.00	    16.062
  36.520        288.33	    18.601
  36.540        372.50	    21.142
  36.560        437.50	    22.913
  36.580        314.17	    19.416
  36.600        230.00	    16.613
  36.620        227.50	    16.523
  36.640        245.00	    17.146
  36.660        218.33	    16.186
  36.680        191.67	    15.166
  36.700        135.00	    12.728
  36.720        113.33	    11.662
  36.740        100.00	    10.954
  36.760         91.67	    10.488
  36.780         77.50	     9.644
  36.800        104.17	    11.180
  36.820         65.00	     8.832
  36.840         72.50	     9.327
  36.860         75.83	     9.539
  36.880         53.33	     8.000
  36.900         59.17	     8.426
  36.920         58.33	     8.367
  36.940         70.00	     9.165
  36.960         49.17	     7.681
  36.980         42.50	     7.141
  37.000         62.50	     8.660
  37.020         58.33	     8.367
  37.040         47.50	     7.550
  37.060         69.17	     9.110
  37.080         62.50	     8.660
  37.100         47.50	     7.550
  37.120         53.33	     8.000
  37.140         59.17	     8.426
  37.160         49.17	     7.681
  37.180         62.50	     8.660
  37.200         50.83	     7.810
  37.220         64.17	     8.775
  37.240         67.50	     9.000
  37.260         66.67	     8.944
  37.280         60.83	     8.544
  37.300         46.67	     7.483
  37.320         79.17	     9.747
  37.340         63.33	     8.718
  37.360         75.83	     9.539
  37.380        106.67	    11.314
  37.400         85.83	    10.149
  37.420         91.67	    10.488
  37.440         68.33	     9.055
  37.460         80.83	     9.849
  37.480         85.00	    10.100
  37.500         87.50	    10.247
  37.520         88.33	    10.296
  37.540         86.67	    10.198
  37.560         75.83	     9.539
  37.580         71.67	     9.274
  37.600         69.17	     9.110
  37.620         77.50	     9.644
  37.640         75.00	     9.487
  37.660         94.17	    10.630
  37.680         92.50	    10.536
  37.700         73.33	     9.381
  37.720         93.33	    10.583
  37.740         96.67	    10.770
  37.760         85.00	    10.100
  37.780         75.83	     9.539
  37.800         75.00	     9.487
  37.820         62.50	     8.660
  37.840         59.17	     8.426
  37.860         64.17	     8.775
  37.880         55.00	     8.124
  37.900         30.00	     6.000
  37.920         57.50	     8.307
  37.940         41.67	     7.071
  37.960         52.50	     7.937
  37.980         45.00	     7.348
  38.000         43.33	     7.211
  38.020         40.83	     7.000
  38.040         45.00	     7.348
  38.060         51.67	     7.874
  38.080         49.17	     7.681
  38.100         47.50	     7.550
  38.120         34.17	     6.403
  38.140         43.33	     7.211
  38.160         40.83	     7.000
  38.180         45.83	     7.416
  38.200         40.83	     7.000
  38.220         39.17	     6.856
  38.240         45.00	     7.348
  38.260         44.17	     7.280
  38.280         44.17	     7.280
  38.300         40.00	     6.928
  38.320         36.67	     6.633
  38.340         37.50	     6.708
  38.360         40.83	     7.000
  38.380         35.83	     6.557
  38.400         35.00	     6.481
  38.420         56.67	     8.246
  38.440         43.33	     7.211
  38.460         46.67	     7.483
  38.480         42.50	     7.141
  38.500         64.17	     8.775
  38.520         51.67	     7.874
  38.540         54.17	     8.062
  38.560         40.83	     7.000
  38.580         54.17	     8.062
  38.600         45.00	     7.348
  38.620         55.00	     8.124
  38.640         56.67	     8.246
  38.660         54.17	     8.062
  38.680         43.33	     7.211
  38.700         50.83	     7.810
  38.720         55.00	     8.124
  38.740         45.00	     7.348
  38.760         61.67	     8.602
  38.780         55.83	     8.185
  38.800         45.83	     7.416
  38.820         61.67	     8.602
  38.840         53.33	     8.000
  38.860         59.17	     8.426
  38.880         45.00	     7.348
  38.900         57.50	     8.307
  38.920         60.83	     8.544
  38.940         49.17	     7.681
  38.960         37.50	     6.708
  38.980         57.50	     8.307
  39.000         48.33	     7.616
  39.020         37.50	     6.708
  39.040         55.83	     8.185
  39.060         50.83	     7.810
  39.080         44.17	     7.280
  39.100         48.33	     7.616
  39.120         62.50	     8.660
  39.140         35.83	     6.557
  39.160         49.17	     7.681
  39.180         45.00	     7.348
  39.200         45.00	     7.348
  39.220         50.00	     7.746
  39.240         54.17	     8.062
  39.260         47.50	     7.550
  39.280         42.50	     7.141
  39.300         50.00	     7.746
  39.320         50.00	     7.746
  39.340         60.83	     8.544
  39.360         63.33	     8.718
  39.380         72.50	     9.327
  39.400         91.67	    10.488
  39.420        120.83	    12.042
  39.440        151.67	    13.491
  39.460        203.33	    15.620
  39.480        220.83	    16.279
  39.500        196.67	    15.362
  39.520        141.67	    13.038
  39.540        130.83	    12.530
  39.560        155.00	    13.638
  39.580        129.17	    12.450
  39.600        126.67	    12.329
  39.620         81.67	     9.899
  39.640         70.00	     9.165
  39.660         57.50	     8.307
  39.680         71.67	     9.274
  39.700         60.83	     8.544
  39.720         58.33	     8.367
  39.740         45.83	     7.416
  39.760         49.17	     7.681
  39.780         60.83	     8.544
  39.800         46.67	     7.483
  39.820         59.17	     8.426
  39.840         61.67	     8.602
  39.860         49.17	     7.681
  39.880         49.17	     7.681
  39.900         54.17	     8.062
  39.920         47.50	     7.550
  39.940         60.83	     8.544
  39.960        130.83	    12.530
  39.980        202.50	    15.588
  40.000         95.83	    10.724
  40.020         49.17	     7.681
  40.040         59.17	     8.426
  40.060         68.33	     9.055
  40.080        125.83	    12.288
  40.100         82.50	     9.950
  40.120         57.50	     8.307
  40.140         59.17	     8.426
  40.160         44.17	     7.280
  40.180         55.83	     8.185
  40.200         49.17	     7.681
  40.220         70.83	     9.220
  40.240        100.00	    10.954
  40.260        131.67	    12.570
  40.280        133.33	    12.649
  40.300        153.33	    13.565
  40.320        150.83	    13.454
  40.340        100.83	    11.000
  40.360        103.33	    11.136
  40.380        121.67	    12.083
  40.400        105.00	    11.225
  40.420         84.17	    10.050
  40.440         79.17	     9.747
  40.460         65.83	     8.888
  40.480         52.50	     7.937
  40.500         48.33	     7.616
  40.520         58.33	     8.367
  40.540         44.17	     7.280
  40.560         47.50	     7.550
  40.580         33.33	     6.325
  40.600         41.67	     7.071
  40.620         52.50	     7.937
  40.640         42.50	     7.141
  40.660         44.17	     7.280
  40.680         42.50	     7.141
  40.700         51.67	     7.874
  40.720         43.33	     7.211
  40.740         50.83	     7.810
  40.760         41.67	     7.071
  40.780         53.33	     8.000
  40.800         47.50	     7.550
  40.820         38.33	     6.782
  40.840         35.83	     6.557
  40.860         50.83	     7.810
  40.880         51.67	     7.874
  40.900         55.00	     8.124
  40.920         60.00	     8.485
  40.940         45.00	     7.348
  40.960         53.33	     8.000
  40.980         46.67	     7.483
  41.000         46.67	     7.483
  41.020         50.00	     7.746
  41.040         49.17	     7.681
  41.060         52.50	     7.937
  41.080         46.67	     7.483
  41.100         47.50	     7.550
  41.120         44.17	     7.280
  41.140         45.83	     7.416
  41.160         47.50	     7.550
  41.180         58.33	     8.367
  41.200         51.67	     7.874
  41.220         59.17	     8.426
  41.240         47.50	     7.550
  41.260         61.67	     8.602
  41.280         64.17	     8.775
  41.300         59.17	     8.426
  41.320         58.33	     8.367
  41.340         55.00	     8.124
  41.360         66.67	     8.944
  41.380         57.50	     8.307
  41.400         59.17	     8.426
  41.420         42.50	     7.141
  41.440         50.00	     7.746
  41.460         51.67	     7.874
  41.480         51.67	     7.874
  41.500         45.00	     7.348
  41.520         44.17	     7.280
  41.540         62.50	     8.660
  41.560         67.50	     9.000
  41.580         58.33	     8.367
  41.600         55.00	     8.124
  41.620         64.17	     8.775
  41.640         75.83	     9.539
  41.660         75.00	     9.487
  41.680         69.17	     9.110
  41.700         87.50	    10.247
  41.720         82.50	     9.950
  41.740         86.67	    10.198
  41.760         78.33	     9.695
  41.780         79.17	     9.747
  41.800         77.50	     9.644
  41.820         82.50	     9.950
  41.840         74.17	     9.434
  41.860         79.17	     9.747
  41.880         83.33	    10.000
  41.900         63.33	     8.718
  41.920         73.33	     9.381
  41.940         85.00	    10.100
  41.960         66.67	     8.944
  41.980         83.33	    10.000
  42.000         97.50	    10.817
  42.020         81.67	     9.899
  42.040         82.50	     9.950
  42.060         82.50	     9.950
  42.080         65.83	     8.888
  42.100         52.50	     7.937
  42.120         69.17	     9.110
  42.140         67.50	     9.000
  42.160         63.33	     8.718
  42.180         67.50	     9.000
  42.200         66.67	     8.944
  42.220         65.83	     8.888
  42.240         61.67	     8.602
  42.260         63.33	     8.718
  42.280         69.17	     9.110
  42.300         91.67	    10.488
  42.320         90.83	    10.440
  42.340        112.50	    11.619
  42.360         90.00	    10.392
  42.380        136.67	    12.806
  42.400        149.17	    13.379
  42.420        212.50	    15.969
  42.440        245.00	    17.146
  42.460        222.50	    16.340
  42.480        180.00	    14.697
  42.500        144.17	    13.153
  42.520        165.00	    14.071
  42.540        161.67	    13.928
  42.560        150.83	    13.454
  42.580        132.50	    12.610
  42.600         98.33	    10.863
  42.620         83.33	    10.000
  42.640         80.00	     9.798
  42.660         65.00	     8.832
  42.680         70.83	     9.220
  42.700         57.50	     8.307
  42.720         83.33	    10.000
  42.740         82.50	     9.950
  42.760         73.33	     9.381
  42.780         63.33	     8.718
  42.800         62.50	     8.660
  42.820         60.83	     8.544
  42.840         57.50	     8.307
  42.860         65.00	     8.832
  42.880         57.50	     8.307
  42.900         52.50	     7.937
  42.920         73.33	     9.381
  42.940         55.00	     8.124
  42.960         70.83	     9.220
  42.980         66.67	     8.944
  43.000         62.50	     8.660
  43.020         66.67	     8.944
  43.040         76.67	     9.592
  43.060         76.67	     9.592
  43.080         75.00	     9.487
  43.100         63.33	     8.718
  43.120         80.83	     9.849
  43.140         85.83	    10.149
  43.160         86.67	    10.198
  43.180         83.33	    10.000
  43.200         80.83	     9.849
  43.220        110.00	    11.489
  43.240        107.50	    11.358
  43.260         95.00	    10.677
  43.280        116.67	    11.832
  43.300        134.17	    12.689
  43.320        140.83	    13.000
  43.340        130.83	    12.530
  43.360        145.00	    13.191
  43.380        160.83	    13.892
  43.400        183.33	    14.832
  43.420        170.00	    14.283
  43.440        182.50	    14.799
  43.460        187.50	    15.000
  43.480        182.50	    14.799
  43.500        166.67	    14.142
  43.520        190.00	    15.100
  43.540        187.50	    15.000
  43.560        199.17	    15.460
  43.580        175.00	    14.491
  43.600        181.67	    14.765
  43.620        151.67	    13.491
  43.640        199.17	    15.460
  43.660        151.67	    13.491
  43.680        138.33	    12.884
  43.700        150.00	    13.416
  43.720        148.33	    13.342
  43.740        124.17	    12.207
  43.760        120.00	    12.000
  43.780         95.00	    10.677
  43.800        100.00	    10.954
  43.820        107.50	    11.358
  43.840         89.17	    10.344
  43.860         95.83	    10.724
  43.880         98.33	    10.863
  43.900         89.17	    10.344
  43.920         97.50	    10.817
  43.940         78.33	     9.695
  43.960         75.00	     9.487
  43.980         73.33	     9.381
  44.000         70.00	     9.165
  44.020         72.50	     9.327
  44.040         71.67	     9.274
  44.060         65.00	     8.832
  44.080         58.33	     8.367
  44.100         74.17	     9.434
  44.120         55.83	     8.185
  44.140         73.33	     9.381
  44.160         54.17	     8.062
  44.180         56.67	     8.246
  44.200         56.67	     8.246
  44.220         72.50	     9.327
  44.240         52.50	     7.937
  44.260         63.33	     8.718
  44.280         55.83	     8.185
  44.300         49.17	     7.681
  44.320         55.00	     8.124
  44.340         61.67	     8.602
  44.360         47.50	     7.550
  44.380         48.33	     7.616
  44.400         48.33	     7.616
  44.420         40.83	     7.000
  44.440         50.00	     7.746
  44.460         55.00	     8.124
  44.480         50.83	     7.810
  44.500         45.83	     7.416
  44.520         67.50	     9.000
  44.540         61.67	     8.602
  44.560         61.67	     8.602
  44.580         55.83	     8.185
  44.600         58.33	     8.367
  44.620         45.83	     7.416
  44.640         46.67	     7.483
  44.660         65.83	     8.888
  44.680         54.17	     8.062
  44.700         60.00	     8.485
  44.720         41.67	     7.071
  44.740         45.83	     7.416
  44.760         49.17	     7.681
  44.780         54.17	     8.062
  44.800         55.00	     8.124
  44.820         60.00	     8.485
  44.840         64.17	     8.775
  44.860         56.67	     8.246
  44.880         72.50	     9.327
  44.900         75.00	     9.487
  44.920         78.33	     9.695
  44.940         70.00	     9.165
  44.960         77.50	     9.644
  44.980         88.33	    10.296
  45.000         84.17	    10.050
  45.020         79.17	     9.747
  45.040         87.50	    10.247
  45.060         70.83	     9.220
  45.080         78.33	     9.695
  45.100         71.67	     9.274
  45.120         55.00	     8.124
  45.140         62.50	     8.660
  45.160         65.00	     8.832
  45.180         57.50	     8.307
  45.200         61.67	     8.602
  45.220         87.50	    10.247
  45.240         85.00	    10.100
  45.260         73.33	     9.381
  45.280         84.17	    10.050
  45.300         83.33	    10.000
  45.320        100.00	    10.954
  45.340         98.33	    10.863
  45.360        106.67	    11.314
  45.380        113.33	    11.662
  45.400        153.33	    13.565
  45.420        143.33	    13.115
  45.440        176.67	    14.560
  45.460        230.83	    16.643
  45.480        242.50	    17.059
  45.500        244.17	    17.117
  45.520        275.83	    18.193
  45.540        304.17	    19.105
  45.560        345.83	    20.372
  45.580        358.33	    20.736
  45.600        420.00	    22.450
  45.620        406.67	    22.091
  45.640        300.83	    19.000
  45.660        269.17	    17.972
  45.680        225.83	    16.462
  45.700        244.17	    17.117
  45.720        225.83	    16.462
  45.740        223.33	    16.371
  45.760        239.17	    16.941
  45.780        187.50	    15.000
  45.800        179.17	    14.663
  45.820        151.67	    13.491
  45.840        117.50	    11.874
  45.860        120.83	    12.042
  45.880         93.33	    10.583
  45.900        124.17	    12.207
  45.920        123.33	    12.166
  45.940         89.17	    10.344
  45.960         85.83	    10.149
  45.980         80.00	     9.798
  46.000         67.50	     9.000
  46.020         61.67	     8.602
  46.040         78.33	     9.695
  46.060         59.17	     8.426
  46.080         59.17	     8.426
  46.100         60.83	     8.544
  46.120         57.50	     8.307
  46.140         60.00	     8.485
  46.160         52.50	     7.937
  46.180         66.67	     8.944
  46.200         60.83	     8.544
  46.220         52.50	     7.937
  46.240         55.83	     8.185
  46.260         45.83	     7.416
  46.280         51.67	     7.874
  46.300         50.00	     7.746
  46.320         45.83	     7.416
  46.340         45.00	     7.348
  46.360         47.50	     7.550
  46.380         30.00	     6.000
  46.400         33.33	     6.325
  46.420         36.67	     6.633
  46.440         46.67	     7.483
  46.460         35.83	     6.557
  46.480         43.33	     7.211
  46.500         43.33	     7.211
  46.520         51.67	     7.874
  46.540         40.00	     6.928
  46.560         50.00	     7.746
  46.580         60.83	     8.544
  46.600         51.67	     7.874
  46.620         54.17	     8.062
  46.640         34.17	     6.403
  46.660         45.00	     7.348
  46.680         36.67	     6.633
  46.700         43.33	     7.211
  46.720         39.17	     6.856
  46.740         40.00	     6.928
  46.760         46.67	     7.483
  46.780         34.17	     6.403
  46.800         41.67	     7.071
  46.820         37.50	     6.708
  46.840         37.50	     6.708
  46.860         43.33	     7.211
  46.880         31.67	     6.164
  46.900         32.50	     6.245
  46.920         40.00	     6.928
  46.940         45.83	     7.416
  46.960         38.33	     6.782
  46.980         40.00	     6.928
  47.000         39.17	     6.856
  47.020         46.67	     7.483
  47.040         40.83	     7.000
  47.060         55.83	     8.185
  47.080         68.33	     9.055
  47.100         64.17	     8.775
  47.120         85.00	    10.100
  47.140         63.33	     8.718
  47.160         62.50	     8.660
  47.180         54.17	     8.062
  47.200         63.33	     8.718
  47.220         83.33	    10.000
  47.240         78.33	     9.695
  47.260         92.50	    10.536
  47.280         95.00	    10.677
  47.300         80.83	     9.849
  47.320         53.33	     8.000
  47.340         46.67	     7.483
  47.360         43.33	     7.211
  47.380         51.67	     7.874
  47.400         51.67	     7.874
  47.420         49.17	     7.681
  47.440         43.33	     7.211
  47.460         48.33	     7.616
  47.480         51.67	     7.874
  47.500         64.17	     8.775
  47.520         36.67	     6.633
  47.540         48.33	     7.616
  47.560         42.50	     7.141
  47.580         48.33	     7.616
  47.600         40.00	     6.928
  47.620         45.83	     7.416
  47.640         41.67	     7.071
  47.660         40.83	     7.000
  47.680         45.00	     7.348
  47.700         32.50	     6.245
  47.720         40.00	     6.928
  47.740         45.00	     7.348
  47.760         34.17	     6.403
  47.780         40.00	     6.928
  47.800         40.00	     6.928
  47.820         35.83	     6.557
  47.840         39.17	     6.856
  47.860         30.00	     6.000
  47.880         48.33	     7.616
  47.900         47.50	     7.550
  47.920         45.83	     7.416
  47.940         55.00	     8.124
  47.960         46.67	     7.483
  47.980         54.17	     8.062
  48.000         61.67	     8.602
  48.020         60.00	     8.485
  48.040         66.67	     8.944
  48.060         57.50	     8.307
  48.080         57.50	     8.307
  48.100         60.00	     8.485
  48.120         70.00	     9.165
  48.140         55.83	     8.185
  48.160         62.50	     8.660
  48.180         47.50	     7.550
  48.200         59.17	     8.426
  48.220         79.17	     9.747
  48.240         72.50	     9.327
  48.260         56.67	     8.246
  48.280         61.67	     8.602
  48.300         58.33	     8.367
  48.320         59.17	     8.426
  48.340         60.83	     8.544
  48.360         43.33	     7.211
  48.380         52.50	     7.937
  48.400         55.00	     8.124
  48.420         39.17	     6.856
  48.440         47.50	     7.550
  48.460         57.50	     8.307
  48.480         53.33	     8.000
  48.500         57.50	     8.307
  48.520         53.33	     8.000
  48.540         47.50	     7.550
  48.560         44.17	     7.280
  48.580         42.50	     7.141
  48.600         50.83	     7.810
  48.620         53.33	     8.000
  48.640         47.50	     7.550
  48.660         62.50	     8.660
  48.680         50.83	     7.810
  48.700         47.50	     7.550
  48.720         52.50	     7.937
  48.740         42.50	     7.141
  48.760         49.17	     7.681
  48.780         45.83	     7.416
  48.800         39.17	     6.856
  48.820         41.67	     7.071
  48.840         35.83	     6.557
  48.860         54.17	     8.062
  48.880         35.00	     6.481
  48.900         47.50	     7.550
  48.920         53.33	     8.000
  48.940         46.67	     7.483
  48.960         55.83	     8.185
  48.980         49.17	     7.681
  49.000         45.83	     7.416
  49.020         42.50	     7.141
  49.040         38.33	     6.782
  49.060         37.50	     6.708
  49.080         49.17	     7.681
  49.100         41.67	     7.071
  49.120         45.83	     7.416
  49.140         36.67	     6.633
  49.160         58.33	     8.367
  49.180         50.83	     7.810
  49.200         45.83	     7.416
  49.220         50.00	     7.746
  49.240         45.83	     7.416
  49.260         33.33	     6.325
  49.280         55.83	     8.185
  49.300         50.00	     7.746
  49.320         46.67	     7.483
  49.340         54.17	     8.062
  49.360         45.00	     7.348
  49.380         42.50	     7.141
  49.400         55.00	     8.124
  49.420         38.33	     6.782
  49.440         57.50	     8.307
  49.460         47.50	     7.550
  49.480         65.83	     8.888
  49.500         60.83	     8.544
  49.520         46.67	     7.483
  49.540         38.33	     6.782
  49.560         49.17	     7.681
  49.580         41.67	     7.071
  49.600         46.67	     7.483
  49.620         45.00	     7.348
  49.640         46.67	     7.483
  49.660         56.67	     8.246
  49.680         52.50	     7.937
  49.700         52.50	     7.937
  49.720         62.50	     8.660
  49.740         84.17	    10.050
  49.760         73.33	     9.381
  49.780         83.33	    10.000
  49.800         79.17	     9.747
  49.820         68.33	     9.055
  49.840         73.33	     9.381
  49.860         86.67	    10.198
  49.880         92.50	    10.536
  49.900         85.00	    10.100
  49.920         97.50	    10.817
  49.940         85.83	    10.149
  49.960         92.50	    10.536
  49.980         90.83	    10.440
  50.000         92.50	    10.536
  50.020        118.33	    11.916
  50.040        128.33	    12.410
  50.060        154.17	    13.601
  50.080        210.83	    15.906
  50.100        255.83	    17.521
  50.120        395.83	    21.794
  50.140        437.50	    22.913
  50.160        360.83	    20.809
  50.180        256.67	    17.550
  50.200        211.67	    15.937
  50.220        172.50	    14.387
  50.240        195.83	    15.330
  50.260        251.67	    17.378
  50.280        247.50	    17.234
  50.300        215.83	    16.093
  50.320        140.83	    13.000
  50.340        110.00	    11.489
  50.360         75.83	     9.539
  50.380         85.00	    10.100
  50.400         80.83	     9.849
  50.420         70.83	     9.220
  50.440         95.00	    10.677
  50.460         73.33	     9.381
  50.480         68.33	     9.055
  50.500         72.50	     9.327
  50.520         77.50	     9.644
  50.540         85.00	    10.100
  50.560         85.83	    10.149
  50.580         84.17	    10.050
  50.600        100.83	    11.000
  50.620         81.67	     9.899
  50.640         68.33	     9.055
  50.660         81.67	     9.899
  50.680         75.00	     9.487
  50.700         90.83	    10.440
  50.720         81.67	     9.899
  50.740         92.50	    10.536
  50.760         75.00	     9.487
  50.780         75.00	     9.487
  50.800         73.33	     9.381
  50.820         49.17	     7.681
  50.840         59.17	     8.426
  50.860         55.83	     8.185
  50.880         55.00	     8.124
  50.900         70.00	     9.165
  50.920         51.67	     7.874
  50.940         47.50	     7.550
  50.960         53.33	     8.000
  50.980         43.33	     7.211
  51.000         49.17	     7.681
  51.020         51.67	     7.874
  51.040         51.67	     7.874
  51.060         45.00	     7.348
  51.080         72.50	     9.327
  51.100         80.83	     9.849
  51.120        126.67	    12.329
  51.140        115.00	    11.747
  51.160        114.17	    11.705
  51.180         73.33	     9.381
  51.200         55.00	     8.124
  51.220         69.17	     9.110
  51.240         75.83	     9.539
  51.260         87.50	    10.247
  51.280         92.50	    10.536
  51.300         89.17	    10.344
  51.320         68.33	     9.055
  51.340         52.50	     7.937
  51.360         51.67	     7.874
  51.380         45.00	     7.348
  51.400         46.67	     7.483
  51.420         49.17	     7.681
  51.440         30.00	     6.000
  51.460         40.00	     6.928
  51.480         44.17	     7.280
  51.500         30.83	     6.083
  51.520         30.83	     6.083
  51.540         45.00	     7.348
  51.560         45.83	     7.416
  51.580         40.83	     7.000
  51.600         39.17	     6.856
  51.620         42.50	     7.141
  51.640         37.50	     6.708
  51.660         38.33	     6.782
  51.680         38.33	     6.782
  51.700         37.50	     6.708
  51.720         38.33	     6.782
  51.740         42.50	     7.141
  51.760         40.83	     7.000
  51.780         43.33	     7.211
  51.800         38.33	     6.782
  51.820         36.67	     6.633
  51.840         25.83	     5.568
  51.860         30.00	     6.000
  51.880         30.83	     6.083
  51.900         35.83	     6.557
  51.920         32.50	     6.245
  51.940         38.33	     6.782
  51.960         38.33	     6.782
  51.980         34.17	     6.403
  52.000         42.50	     7.141
  52.020         34.17	     6.403
  52.040         35.83	     6.557
  52.060         35.00	     6.481
  52.080         35.00	     6.481
  52.100         39.17	     6.856
  52.120         43.33	     7.211
  52.140         50.83	     7.810
  52.160         54.17	     8.062
  52.180         45.83	     7.416
  52.200         40.83	     7.000
  52.220         46.67	     7.483
  52.240         56.67	     8.246
  52.260         48.33	     7.616
  52.280         60.00	     8.485
  52.300         40.83	     7.000
  52.320         62.50	     8.660
  52.340         50.83	     7.810
  52.360         50.83	     7.810
  52.380         44.17	     7.280
  52.400         50.83	     7.810
  52.420         49.17	     7.681
  52.440         65.00	     8.832
  52.460         84.17	    10.050
  52.480         77.50	     9.644
  52.500         52.50	     7.937
  52.520         53.33	     8.000
  52.540         49.17	     7.681
  52.560         45.00	     7.348
  52.580         45.83	     7.416
  52.600         60.00	     8.485
  52.620         55.00	     8.124
  52.640         56.67	     8.246
  52.660         49.17	     7.681
  52.680         35.83	     6.557
  52.700         51.67	     7.874
  52.720         40.83	     7.000
  52.740         55.83	     8.185
  52.760         54.17	     8.062
  52.780         51.67	     7.874
  52.800         31.67	     6.164
  52.820         37.50	     6.708
  52.840         57.50	     8.307
  52.860         39.17	     6.856
  52.880         46.67	     7.483
  52.900         45.00	     7.348
  52.920         47.50	     7.550
  52.940         52.50	     7.937
  52.960         42.50	     7.141
  52.980         40.83	     7.000
  53.000         44.17	     7.280
  53.020         46.67	     7.483
  53.040         42.50	     7.141
  53.060         53.33	     8.000
  53.080         45.83	     7.416
  53.100         50.83	     7.810
  53.120         48.33	     7.616
  53.140         59.17	     8.426
  53.160         43.33	     7.211
  53.180         48.33	     7.616
  53.200         34.17	     6.403
  53.220         51.67	     7.874
  53.240         61.67	     8.602
  53.260         60.83	     8.544
  53.280         50.00	     7.746
  53.300         42.50	     7.141
  53.320         50.83	     7.810
  53.340         39.17	     6.856
  53.360         40.83	     7.000
  53.380         56.67	     8.246
  53.400         36.67	     6.633
  53.420         46.67	     7.483
  53.440         38.33	     6.782
  53.460         55.00	     8.124
  53.480         41.67	     7.071
  53.500         35.00	     6.481
  53.520         37.50	     6.708
  53.540         37.50	     6.708
  53.560         37.50	     6.708
  53.580         42.50	     7.141
  53.600         43.33	     7.211
  53.620         35.00	     6.481
  53.640         46.67	     7.483
  53.660         48.33	     7.616
  53.680         32.50	     6.245
  53.700         39.17	     6.856
  53.720         41.67	     7.071
  53.740         38.33	     6.782
  53.760         40.83	     7.000
  53.780         38.33	     6.782
  53.800         32.50	     6.245
  53.820         47.50	     7.550
  53.840         32.50	     6.245
  53.860         38.33	     6.782
  53.880         25.83	     5.568
  53.900         36.67	     6.633
  53.920         35.83	     6.557
  53.940         45.00	     7.348
  53.960         35.00	     6.481
  53.980         43.33	     7.211
  54.000         44.17	     7.280
  54.020         37.50	     6.708
  54.040         47.50	     7.550
  54.060         35.83	     6.557
  54.080         35.00	     6.481
  54.100         37.50	     6.708
  54.120         45.83	     7.416
  54.140         45.00	     7.348
  54.160         39.17	     6.856
  54.180         38.33	     6.782
  54.200         55.83	     8.185
  54.220         39.17	     6.856
  54.240         35.83	     6.557
  54.260         36.67	     6.633
  54.280         50.83	     7.810
  54.300         45.83	     7.416
  54.320         36.67	     6.633
  54.340         46.67	     7.483
  54.360         40.00	     6.928
  54.380         45.00	     7.348
  54.400         40.83	     7.000
  54.420         45.00	     7.348
  54.440         49.17	     7.681
  54.460         42.50	     7.141
  54.480         47.50	     7.550
  54.500         41.67	     7.071
  54.520         58.33	     8.367
  54.540         51.67	     7.874
  54.560         46.67	     7.483
  54.580         40.83	     7.000
  54.600         52.50	     7.937
  54.620         40.83	     7.000
  54.640         61.67	     8.602
  54.660         45.00	     7.348
  54.680         45.83	     7.416
  54.700         37.50	     6.708
  54.720         53.33	     8.000
  54.740         40.83	     7.000
  54.760         59.17	     8.426
  54.780         75.00	     9.487
  54.800         72.50	     9.327
  54.820         83.33	    10.000
  54.840         94.17	    10.630
  54.860         98.33	    10.863
  54.880         95.83	    10.724
  54.900         97.50	    10.817
  54.920         87.50	    10.247
  54.940         55.00	     8.124
  54.960         66.67	     8.944
  54.980         78.33	     9.695
  55.000         80.83	     9.849
  55.020         72.50	     9.327
  55.040         74.17	     9.434
  55.060         65.83	     8.888
  55.080         50.83	     7.810
  55.100         63.33	     8.718
  55.120         55.83	     8.185
  55.140         55.00	     8.124
  55.160         46.67	     7.483
  55.180         51.67	     7.874
  55.200         62.50	     8.660
  55.220         63.33	     8.718
  55.240         72.50	     9.327
  55.260         76.67	     9.592
  55.280         80.00	     9.798
  55.300        100.83	    11.000
  55.320        100.00	    10.954
  55.340        101.67	    11.045
  55.360         84.17	    10.050
  55.380         75.83	     9.539
  55.400         65.00	     8.832
  55.420         72.50	     9.327
  55.440         71.67	     9.274
  55.460         82.50	     9.950
  55.480         83.33	    10.000
  55.500         59.17	     8.426
  55.520         65.00	     8.832
  55.540         56.67	     8.246
  55.560         57.50	     8.307
  55.580         71.67	     9.274
  55.600         44.17	     7.280
  55.620         40.83	     7.000
  55.640         56.67	     8.246
  55.660         46.67	     7.483
  55.680         78.33	     9.695
  55.700         82.50	     9.950
  55.720         95.00	    10.677
  55.740         88.33	    10.296
  55.760         77.50	     9.644
  55.780         76.67	     9.592
  55.800         60.00	     8.485
  55.820         89.17	    10.344
  55.840         76.67	     9.592
  55.860         77.50	     9.644
  55.880         70.00	     9.165
  55.900         83.33	    10.000
  55.920         67.50	     9.000
  55.940         60.83	     8.544
  55.960         79.17	     9.747
  55.980         70.00	     9.165
  56.000         53.33	     8.000
  56.020         48.33	     7.616
  56.040         55.83	     8.185
  56.060         62.50	     8.660
  56.080         60.00	     8.485
  56.100         67.50	     9.000
  56.120         55.00	     8.124
  56.140         47.50	     7.550
  56.160         50.00	     7.746
  56.180         65.83	     8.888
  56.200         60.00	     8.485
  56.220         59.17	     8.426
  56.240         48.33	     7.616
  56.260         45.00	     7.348
  56.280         41.67	     7.071
  56.300         51.67	     7.874
  56.320         55.00	     8.124
  56.340         50.83	     7.810
  56.360         44.17	     7.280
  56.380         48.33	     7.616
  56.400         38.33	     6.782
  56.420         45.83	     7.416
  56.440         35.00	     6.481
  56.460         37.50	     6.708
  56.480         34.17	     6.403
  56.500         36.67	     6.633
  56.520         43.33	     7.211
  56.540         44.17	     7.280
  56.560         45.83	     7.416
  56.580         42.50	     7.141
  56.600         37.50	     6.708
  56.620         48.33	     7.616
  56.640         29.17	     5.916
  56.660         33.33	     6.325
  56.680         35.83	     6.557
  56.700         49.17	     7.681
  56.720         38.33	     6.782
  56.740         46.67	     7.483
  56.760         32.50	     6.245
  56.780         42.50	     7.141
  56.800         50.83	     7.810
  56.820         45.00	     7.348
  56.840         39.17	     6.856
  56.860         42.50	     7.141
  56.880         50.00	     7.746
  56.900         57.50	     8.307
  56.920         45.00	     7.348
  56.940         43.33	     7.211
  56.960         47.50	     7.550
  56.980         51.67	     7.874
  57.000         54.17	     8.062
  57.020         52.50	     7.937
  57.040         45.83	     7.416
  57.060         44.17	     7.280
  57.080         49.17	     7.681
  57.100         39.17	     6.856
  57.120         35.00	     6.481
  57.140         38.33	     6.782
  57.160         45.83	     7.416
  57.180         37.50	     6.708
  57.200         54.17	     8.062
  57.220         39.17	     6.856
  57.240         56.67	     8.246
  57.260         52.50	     7.937
  57.280         35.83	     6.557
  57.300         54.17	     8.062
  57.320         39.17	     6.856
  57.340         41.67	     7.071
  57.360         43.33	     7.211
  57.380         48.33	     7.616
  57.400         39.17	     6.856
  57.420         35.00	     6.481
  57.440         37.50	     6.708
  57.460         52.50	     7.937
  57.480         38.33	     6.782
  57.500         45.00	     7.348
  57.520         35.83	     6.557
  57.540         50.00	     7.746
  57.560         30.83	     6.083
  57.580         50.00	     7.746
  57.600         38.33	     6.782
  57.620         48.33	     7.616
  57.640         45.00	     7.348
  57.660         46.67	     7.483
  57.680         51.67	     7.874
  57.700         49.17	     7.681
  57.720         42.50	     7.141
  57.740         36.67	     6.633
  57.760         30.83	     6.083
  57.780         42.50	     7.141
  57.800         51.67	     7.874
  57.820         37.50	     6.708
  57.840         35.83	     6.557
  57.860         40.00	     6.928
  57.880         35.00	     6.481
  57.900         29.17	     5.916
  57.920         45.00	     7.348
  57.940         30.00	     6.000
  57.960         34.17	     6.403
  57.980         43.33	     7.211
  58.000         39.17	     6.856
  58.020         51.67	     7.874
  58.040         40.83	     7.000
  58.060         58.33	     8.367
  58.080         51.67	     7.874
  58.100         71.67	     9.274
  58.120         51.67	     7.874
  58.140         38.33	     6.782
  58.160         51.67	     7.874
  58.180         39.17	     6.856
  58.200         51.67	     7.874
  58.220         48.33	     7.616
  58.240         42.50	     7.141
  58.260         38.33	     6.782
  58.280         35.83	     6.557
  58.300         41.67	     7.071
  58.320         39.17	     6.856
  58.340         39.17	     6.856
  58.360         45.83	     7.416
  58.380         36.67	     6.633
  58.400         37.50	     6.708
  58.420         35.83	     6.557
  58.440         24.17	     5.385
  58.460         39.17	     6.856
  58.480         48.33	     7.616
  58.500         41.67	     7.071
  58.520         50.00	     7.746
  58.540         47.50	     7.550
  58.560         49.17	     7.681
  58.580         47.50	     7.550
  58.600         58.33	     8.367
  58.620         59.17	     8.426
  58.640         71.67	     9.274
  58.660         72.50	     9.327
  58.680         68.33	     9.055
  58.700         50.83	     7.810
  58.720         83.33	    10.000
  58.740         60.83	     8.544
  58.760         74.17	     9.434
  58.780         53.33	     8.000
  58.800         65.83	     8.888
  58.820         60.83	     8.544
  58.840         63.33	     8.718
  58.860         52.50	     7.937
  58.880         60.83	     8.544
  58.900         54.17	     8.062
  58.920         46.67	     7.483
  58.940         47.50	     7.550
  58.960         48.33	     7.616
  58.980         54.17	     8.062
  59.000         60.00	     8.485
  59.020         49.17	     7.681
  59.040         43.33	     7.211
  59.060         60.00	     8.485
  59.080         50.00	     7.746
  59.100         54.17	     8.062
  59.120         48.33	     7.616
  59.140         55.00	     8.124
  59.160         58.33	     8.367
  59.180         65.00	     8.832
  59.200         60.83	     8.544
  59.220         60.83	     8.544
  59.240         60.00	     8.485
  59.260         68.33	     9.055
  59.280         82.50	     9.950
  59.300         48.33	     7.616
  59.320         59.17	     8.426
  59.340         48.33	     7.616
  59.360         55.00	     8.124
  59.380         50.83	     7.810
  59.400         40.83	     7.000
  59.420         44.17	     7.280
  59.440         60.00	     8.485
  59.460         55.00	     8.124
  59.480         47.50	     7.550
  59.500         63.33	     8.718
  59.520         48.33	     7.616
  59.540         51.67	     7.874
  59.560         45.83	     7.416
  59.580         46.67	     7.483
  59.600         45.83	     7.416
  59.620         61.67	     8.602
  59.640         43.33	     7.211
  59.660         47.50	     7.550
  59.680         50.00	     7.746
  59.700         40.83	     7.000
  59.720         52.50	     7.937
  59.740         54.17	     8.062
  59.760         55.00	     8.124
  59.780         60.00	     8.485
  59.800         59.17	     8.426
  59.820         75.00	     9.487
  59.840         71.67	     9.274
  59.860        110.83	    11.533
  59.880        106.67	    11.314
  59.900        157.50	    13.748
  59.920        221.67	    16.310
  59.940        255.83	    17.521
  59.960        284.17	    18.466
  59.980        208.33	    15.811
  60.000        186.67	    14.967
  60.020        140.83	    13.000
  60.040        115.00	    11.747
  60.060        108.33	    11.402
  60.080        160.00	    13.856
  60.100        151.67	    13.491
  60.120        160.00	    13.856
  60.140        140.83	    13.000
  60.160        133.33	    12.649
  60.180        101.67	    11.045
  60.200         65.83	     8.888
  60.220         73.33	     9.381
  60.240         70.00	     9.165
  60.260         65.00	     8.832
  60.280         56.67	     8.246
  60.300         63.33	     8.718
  60.320         52.50	     7.937
  60.340         57.50	     8.307
  60.360         63.33	     8.718
  60.380         41.67	     7.071
  60.400         64.17	     8.775
  60.420         46.67	     7.483
  60.440         63.33	     8.718
  60.460         57.50	     8.307
  60.480         63.33	     8.718
  60.500         44.17	     7.280
  60.520         62.50	     8.660
  60.540         64.17	     8.775
  60.560         61.67	     8.602
  60.580         65.00	     8.832
  60.600         65.00	     8.832
  60.620         43.33	     7.211
  60.640         53.33	     8.000
  60.660         51.67	     7.874
  60.680         60.83	     8.544
  60.700         65.00	     8.832
  60.720         77.50	     9.644
  60.740         47.50	     7.550
  60.760         63.33	     8.718
  60.780         70.83	     9.220
  60.800         73.33	     9.381
  60.820         68.33	     9.055
  60.840         64.17	     8.775
  60.860         76.67	     9.592
  60.880         54.17	     8.062
  60.900         57.50	     8.307
  60.920         59.17	     8.426
  60.940         59.17	     8.426
  60.960         73.33	     9.381
  60.980         51.67	     7.874
  61.000         55.00	     8.124
  61.020         57.50	     8.307
  61.040         61.67	     8.602
  61.060         58.33	     8.367
  61.080         61.67	     8.602
  61.100         51.67	     7.874
  61.120         50.00	     7.746
  61.140         45.00	     7.348
  61.160         58.33	     8.367
  61.180         60.83	     8.544
  61.200         45.00	     7.348
  61.220         51.67	     7.874
  61.240         45.83	     7.416
  61.260         49.17	     7.681
  61.280         55.83	     8.185
  61.300         54.17	     8.062
  61.320         60.83	     8.544
  61.340         64.17	     8.775
  61.360         54.17	     8.062
  61.380         64.17	     8.775
  61.400         65.83	     8.888
  61.420         64.17	     8.775
  61.440         66.67	     8.944
  61.460         63.33	     8.718
  61.480         68.33	     9.055
  61.500         67.50	     9.000
  61.520         52.50	     7.937
  61.540         64.17	     8.775
  61.560         67.50	     9.000
  61.580         61.67	     8.602
  61.600         68.33	     9.055
  61.620         65.00	     8.832
  61.640         67.50	     9.000
  61.660         62.50	     8.660
  61.680         68.33	     9.055
  61.700         60.00	     8.485
  61.720         70.00	     9.165
  61.740         63.33	     8.718
  61.760         63.33	     8.718
  61.780         65.00	     8.832
  61.800         66.67	     8.944
  61.820         54.17	     8.062
  61.840         48.33	     7.616
  61.860         58.33	     8.367
  61.880         57.50	     8.307
  61.900         51.67	     7.874
  61.920         60.83	     8.544
  61.940         52.50	     7.937
  61.960         49.17	     7.681
  61.980         56.67	     8.246
  62.000         45.83	     7.416
  62.020         62.50	     8.660
  62.040         48.33	     7.616
  62.060         56.67	     8.246
  62.080         48.33	     7.616
  62.100         43.33	     7.211
  62.120         59.17	     8.426
  62.140         53.33	     8.000
  62.160         44.17	     7.280
  62.180         44.17	     7.280
  62.200         40.83	     7.000
  62.220         45.83	     7.416
  62.240         35.83	     6.557
  62.260         40.83	     7.000
  62.280         50.83	     7.810
  62.300         36.67	     6.633
  62.320         30.00	     6.000
  62.340         40.00	     6.928
  62.360         44.17	     7.280
  62.380         40.00	     6.928
  62.400         43.33	     7.211
  62.420         33.33	     6.325
  62.440         40.00	     6.928
  62.460         36.67	     6.633
  62.480         49.17	     7.681
  62.500         37.50	     6.708
  62.520         40.83	     7.000
  62.540         40.00	     6.928
  62.560         47.50	     7.550
  62.580         36.67	     6.633
  62.600         42.50	     7.141
  62.620         40.83	     7.000
  62.640         39.17	     6.856
  62.660         46.67	     7.483
  62.680         50.83	     7.810
  62.700         30.83	     6.083
  62.720         42.50	     7.141
  62.740         40.00	     6.928
  62.760         40.00	     6.928
  62.780         50.00	     7.746
  62.800         42.50	     7.141
  62.820         41.67	     7.071
  62.840         41.67	     7.071
  62.860         36.67	     6.633
  62.880         48.33	     7.616
  62.900         41.67	     7.071
  62.920         43.33	     7.211
  62.940         34.17	     6.403
  62.960         42.50	     7.141
  62.980         31.67	     6.164
  63.000         43.33	     7.211
  63.020         46.67	     7.483
  63.040         35.00	     6.481
  63.060         38.33	     6.782
  63.080         40.83	     7.000
  63.100         34.17	     6.403
  63.120         44.17	     7.280
  63.140         40.00	     6.928
  63.160         52.50	     7.937
  63.180         52.50	     7.937
  63.200         45.83	     7.416
  63.220         45.83	     7.416
  63.240         45.83	     7.416
  63.260         42.50	     7.141
  63.280         44.17	     7.280
  63.300         34.17	     6.403
  63.320         49.17	     7.681
  63.340         34.17	     6.403
  63.360         47.50	     7.550
  63.380         47.50	     7.550
  63.400         38.33	     6.782
  63.420         45.83	     7.416
  63.440         52.50	     7.937
  63.460         60.83	     8.544
  63.480         51.67	     7.874
  63.500         36.67	     6.633
  63.520         45.00	     7.348
  63.540         45.83	     7.416
  63.560         32.50	     6.245
  63.580         47.50	     7.550
  63.600         43.33	     7.211
  63.620         41.67	     7.071
  63.640         53.33	     8.000
  63.660         49.17	     7.681
  63.680         56.67	     8.246
  63.700         50.00	     7.746
  63.720         36.67	     6.633
  63.740         43.33	     7.211
  63.760         40.83	     7.000
  63.780         45.00	     7.348
  63.800         41.67	     7.071
  63.820         50.83	     7.810
  63.840         50.00	     7.746
  63.860         48.33	     7.616
  63.880         55.83	     8.185
  63.900         57.50	     8.307
  63.920         60.00	     8.485
  63.940         64.17	     8.775
  63.960         60.00	     8.485
  63.980         75.00	     9.487
  64.000         98.33	    10.863
  64.020        117.50	    11.874
  64.040        140.00	    12.961
  64.060         90.83	    10.440
  64.080         96.67	    10.770
  64.100         76.67	     9.592
  64.120         65.83	     8.888
  64.140         70.00	     9.165
  64.160         78.33	     9.695
  64.180         65.83	     8.888
  64.200         79.17	     9.747
  64.220         78.33	     9.695
  64.240         75.83	     9.539
  64.260         73.33	     9.381
  64.280         73.33	     9.381
  64.300         75.83	     9.539
  64.320         67.50	     9.000
  64.340         50.83	     7.810
  64.360         36.67	     6.633
  64.380         43.33	     7.211
  64.400         39.17	     6.856
  64.420         45.00	     7.348
  64.440         37.50	     6.708
  64.460         40.83	     7.000
  64.480         39.17	     6.856
  64.500         46.67	     7.483
  64.520         42.50	     7.141
  64.540         48.33	     7.616
  64.560         47.50	     7.550
  64.580         37.50	     6.708
  64.600         45.83	     7.416
  64.620         40.83	     7.000
  64.640         61.67	     8.602
  64.660         48.33	     7.616
  64.680         47.50	     7.550
  64.700         67.50	     9.000
  64.720         42.50	     7.141
  64.740         50.83	     7.810
  64.760         51.67	     7.874
  64.780         50.00	     7.746
  64.800         49.17	     7.681
  64.820         45.00	     7.348
  64.840         58.33	     8.367
  64.860         45.00	     7.348
  64.880         44.17	     7.280
  64.900         35.83	     6.557
  64.920         49.17	     7.681
  64.940         40.83	     7.000
  64.960         37.50	     6.708
  64.980         40.00	     6.928
  65.000         31.67	     6.164
