
Filename:
	C:\Program Files\Thermo Electron\WinXRD\Datafiles\F_HERMAN\GEO\G41_RT.raw

File Created:
	February 18, 2020 - 09:18 PM

Specimen Id:
	G41_RT

Specimen Name:
	

Specimen Description:
	

Comment:
Scan Type: 2Theta Scan
Start Angle: 3 deg.
Stop Angle: 65 deg.
Num Points: 3101
Step Size: 0.02 deg.
Scan Rate: 1.000000
Scan Mode: Continuous
Wavelength: 1.540562
\Kalpha1: 1.540562	\Kalpha2: 1.544390	\Kbeta: 1.392218

Optics:
		Detector:
			 Type: Fixed Slits
		Tube: 
			 Type: Fixed Slits


Datas:
 Pos [deg]       Rate [CPS]      ESD [-]

Range 1 ---> Iteration 1
   3.000        429.17	    22.694
   3.020        457.50	    23.431
   3.040        421.67	    22.494
   3.060        455.83	    23.388
   3.080        418.33	    22.405
   3.100        410.00	    22.181
   3.120        435.00	    22.847
   3.140        410.83	    22.204
   3.160        406.67	    22.091
   3.180        442.50	    23.043
   3.200        404.17	    22.023
   3.220        394.17	    21.749
   3.240        416.67	    22.361
   3.260        387.50	    21.564
   3.280        389.17	    21.610
   3.300        385.00	    21.494
   3.320        405.83	    22.068
   3.340        388.33	    21.587
   3.360        398.33	    21.863
   3.380        380.83	    21.378
   3.400        387.50	    21.564
   3.420        378.33	    21.307
   3.440        348.33	    20.445
   3.460        350.83	    20.518
   3.480        372.50	    21.142
   3.500        371.67	    21.119
   3.520        372.50	    21.142
   3.540        381.67	    21.401
   3.560        381.67	    21.401
   3.580        378.33	    21.307
   3.600        365.00	    20.928
   3.620        355.00	    20.640
   3.640        357.50	    20.712
   3.660        330.00	    19.900
   3.680        354.17	    20.616
   3.700        367.50	    21.000
   3.720        365.83	    20.952
   3.740        331.67	    19.950
   3.760        349.17	    20.469
   3.780        340.00	    20.199
   3.800        392.50	    21.703
   3.820        363.33	    20.881
   3.840        370.83	    21.095
   3.860        347.50	    20.421
   3.880        357.50	    20.712
   3.900        363.33	    20.881
   3.920        335.83	    20.075
   3.940        294.17	    18.788
   3.960        320.83	    19.621
   3.980        333.33	    20.000
   4.000        311.67	    19.339
   4.020        326.67	    19.799
   4.040        330.00	    19.900
   4.060        319.17	    19.570
   4.080        310.00	    19.287
   4.100        347.50	    20.421
   4.120        311.67	    19.339
   4.140        301.67	    19.026
   4.160        334.17	    20.025
   4.180        274.17	    18.138
   4.200        299.17	    18.947
   4.220        284.17	    18.466
   4.240        304.17	    19.105
   4.260        305.83	    19.157
   4.280        295.00	    18.815
   4.300        300.83	    19.000
   4.320        265.00	    17.833
   4.340        263.33	    17.776
   4.360        316.67	    19.494
   4.380        308.33	    19.235
   4.400        266.67	    17.889
   4.420        281.67	    18.385
   4.440        280.00	    18.330
   4.460        275.83	    18.193
   4.480        283.33	    18.439
   4.500        273.33	    18.111
   4.520        261.67	    17.720
   4.540        258.33	    17.607
   4.560        255.83	    17.521
   4.580        261.67	    17.720
   4.600        286.67	    18.547
   4.620        259.17	    17.635
   4.640        290.00	    18.655
   4.660        251.67	    17.378
   4.680        264.17	    17.804
   4.700        260.00	    17.664
   4.720        262.50	    17.748
   4.740        259.17	    17.635
   4.760        248.33	    17.263
   4.780        249.17	    17.292
   4.800        263.33	    17.776
   4.820        249.17	    17.292
   4.840        222.50	    16.340
   4.860        233.33	    16.733
   4.880        251.67	    17.378
   4.900        210.83	    15.906
   4.920        241.67	    17.029
   4.940        236.67	    16.852
   4.960        234.17	    16.763
   4.980        255.83	    17.521
   5.000        258.33	    17.607
   5.020        231.67	    16.673
   5.040        241.67	    17.029
   5.060        240.00	    16.971
   5.080        229.17	    16.583
   5.100        236.67	    16.852
   5.120        235.83	    16.823
   5.140        230.83	    16.643
   5.160        223.33	    16.371
   5.180        227.50	    16.523
   5.200        232.50	    16.703
   5.220        220.00	    16.248
   5.240        256.67	    17.550
   5.260        215.00	    16.062
   5.280        215.83	    16.093
   5.300        235.83	    16.823
   5.320        227.50	    16.523
   5.340        201.67	    15.556
   5.360        207.50	    15.780
   5.380        190.83	    15.133
   5.400        234.17	    16.763
   5.420        217.50	    16.155
   5.440        245.00	    17.146
   5.460        210.83	    15.906
   5.480        200.83	    15.524
   5.500        198.33	    15.427
   5.520        233.33	    16.733
   5.540        209.17	    15.843
   5.560        215.00	    16.062
   5.580        218.33	    16.186
   5.600        215.83	    16.093
   5.620        194.17	    15.264
   5.640        208.33	    15.811
   5.660        218.33	    16.186
   5.680        189.17	    15.067
   5.700        210.83	    15.906
   5.720        181.67	    14.765
   5.740        205.00	    15.684
   5.760        220.00	    16.248
   5.780        195.00	    15.297
   5.800        208.33	    15.811
   5.820        200.83	    15.524
   5.840        204.17	    15.652
   5.860        202.50	    15.588
   5.880        201.67	    15.556
   5.900        196.67	    15.362
   5.920        185.83	    14.933
   5.940        200.83	    15.524
   5.960        195.00	    15.297
   5.980        219.17	    16.217
   6.000        218.33	    16.186
   6.020        218.33	    16.186
   6.040        212.50	    15.969
   6.060        240.00	    16.971
   6.080        218.33	    16.186
   6.100        206.67	    15.748
   6.120        195.83	    15.330
   6.140        205.83	    15.716
   6.160        212.50	    15.969
   6.180        200.00	    15.492
   6.200        210.00	    15.875
   6.220        193.33	    15.232
   6.240        205.00	    15.684
   6.260        167.50	    14.177
   6.280        197.50	    15.395
   6.300        201.67	    15.556
   6.320        199.17	    15.460
   6.340        171.67	    14.353
   6.360        187.50	    15.000
   6.380        193.33	    15.232
   6.400        180.83	    14.731
   6.420        162.50	    13.964
   6.440        180.83	    14.731
   6.460        191.67	    15.166
   6.480        183.33	    14.832
   6.500        197.50	    15.395
   6.520        195.83	    15.330
   6.540        178.33	    14.629
   6.560        165.00	    14.071
   6.580        195.83	    15.330
   6.600        211.67	    15.937
   6.620        184.17	    14.866
   6.640        181.67	    14.765
   6.660        174.17	    14.457
   6.680        190.00	    15.100
   6.700        160.83	    13.892
   6.720        181.67	    14.765
   6.740        170.00	    14.283
   6.760        162.50	    13.964
   6.780        182.50	    14.799
   6.800        166.67	    14.142
   6.820        166.67	    14.142
   6.840        147.50	    13.304
   6.860        160.00	    13.856
   6.880        167.50	    14.177
   6.900        181.67	    14.765
   6.920        181.67	    14.765
   6.940        155.83	    13.675
   6.960        168.33	    14.213
   6.980        158.33	    13.784
   7.000        168.33	    14.213
   7.020        152.50	    13.528
   7.040        147.50	    13.304
   7.060        174.17	    14.457
   7.080        168.33	    14.213
   7.100        183.33	    14.832
   7.120        168.33	    14.213
   7.140        150.00	    13.416
   7.160        159.17	    13.820
   7.180        167.50	    14.177
   7.200        132.50	    12.610
   7.220        155.00	    13.638
   7.240        155.00	    13.638
   7.260        154.17	    13.601
   7.280        155.00	    13.638
   7.300        143.33	    13.115
   7.320        154.17	    13.601
   7.340        163.33	    14.000
   7.360        149.17	    13.379
   7.380        135.83	    12.767
   7.400        162.50	    13.964
   7.420        170.00	    14.283
   7.440        150.00	    13.416
   7.460        150.83	    13.454
   7.480        161.67	    13.928
   7.500        163.33	    14.000
   7.520        155.83	    13.675
   7.540        160.00	    13.856
   7.560        161.67	    13.928
   7.580        177.50	    14.595
   7.600        158.33	    13.784
   7.620        143.33	    13.115
   7.640        150.83	    13.454
   7.660        151.67	    13.491
   7.680        166.67	    14.142
   7.700        135.83	    12.767
   7.720        137.50	    12.845
   7.740        146.67	    13.266
   7.760        136.67	    12.806
   7.780        161.67	    13.928
   7.800        145.00	    13.191
   7.820        152.50	    13.528
   7.840        151.67	    13.491
   7.860        131.67	    12.570
   7.880        150.00	    13.416
   7.900        125.83	    12.288
   7.920        155.83	    13.675
   7.940        141.67	    13.038
   7.960        152.50	    13.528
   7.980        129.17	    12.450
   8.000        152.50	    13.528
   8.020        121.67	    12.083
   8.040        137.50	    12.845
   8.060        141.67	    13.038
   8.080        138.33	    12.884
   8.100        140.83	    13.000
   8.120        116.67	    11.832
   8.140        144.17	    13.153
   8.160        148.33	    13.342
   8.180        140.83	    13.000
   8.200        130.00	    12.490
   8.220        130.00	    12.490
   8.240        140.00	    12.961
   8.260        122.50	    12.124
   8.280        128.33	    12.410
   8.300        133.33	    12.649
   8.320        137.50	    12.845
   8.340        136.67	    12.806
   8.360        138.33	    12.884
   8.380        128.33	    12.410
   8.400        135.00	    12.728
   8.420        140.83	    13.000
   8.440        122.50	    12.124
   8.460        163.33	    14.000
   8.480        126.67	    12.329
   8.500        149.17	    13.379
   8.520        140.00	    12.961
   8.540        155.83	    13.675
   8.560        144.17	    13.153
   8.580        142.50	    13.077
   8.600        147.50	    13.304
   8.620        140.00	    12.961
   8.640        152.50	    13.528
   8.660        175.00	    14.491
   8.680        159.17	    13.820
   8.700        159.17	    13.820
   8.720        170.00	    14.283
   8.740        215.83	    16.093
   8.760        235.00	    16.793
   8.780        293.33	    18.762
   8.800        281.67	    18.385
   8.820        234.17	    16.763
   8.840        151.67	    13.491
   8.860        130.83	    12.530
   8.880        122.50	    12.124
   8.900        124.17	    12.207
   8.920        125.83	    12.288
   8.940        151.67	    13.491
   8.960        139.17	    12.923
   8.980        127.50	    12.369
   9.000        114.17	    11.705
   9.020        124.17	    12.207
   9.040        124.17	    12.207
   9.060        132.50	    12.610
   9.080        114.17	    11.705
   9.100        110.00	    11.489
   9.120        115.00	    11.747
   9.140        130.00	    12.490
   9.160        115.00	    11.747
   9.180        125.00	    12.247
   9.200        133.33	    12.649
   9.220        100.83	    11.000
   9.240        121.67	    12.083
   9.260        110.83	    11.533
   9.280        122.50	    12.124
   9.300        138.33	    12.884
   9.320        140.83	    13.000
   9.340        150.00	    13.416
   9.360        128.33	    12.410
   9.380        130.00	    12.490
   9.400        113.33	    11.662
   9.420        119.17	    11.958
   9.440        118.33	    11.916
   9.460        122.50	    12.124
   9.480        135.00	    12.728
   9.500        121.67	    12.083
   9.520        124.17	    12.207
   9.540        110.83	    11.533
   9.560        125.83	    12.288
   9.580        103.33	    11.136
   9.600        105.00	    11.225
   9.620        117.50	    11.874
   9.640        110.00	    11.489
   9.660        106.67	    11.314
   9.680        119.17	    11.958
   9.700        115.83	    11.790
   9.720        125.83	    12.288
   9.740        110.83	    11.533
   9.760         96.67	    10.770
   9.780        108.33	    11.402
   9.800        113.33	    11.662
   9.820        119.17	    11.958
   9.840        108.33	    11.402
   9.860        104.17	    11.180
   9.880        115.83	    11.790
   9.900        117.50	    11.874
   9.920        106.67	    11.314
   9.940        124.17	    12.207
   9.960        108.33	    11.402
   9.980         88.33	    10.296
  10.000        100.83	    11.000
  10.020        126.67	    12.329
  10.040        112.50	    11.619
  10.060         96.67	    10.770
  10.080        105.83	    11.269
  10.100         99.17	    10.909
  10.120        105.00	    11.225
  10.140        100.83	    11.000
  10.160        118.33	    11.916
  10.180        106.67	    11.314
  10.200        109.17	    11.446
  10.220        102.50	    11.091
  10.240        115.00	    11.747
  10.260         92.50	    10.536
  10.280        103.33	    11.136
  10.300         89.17	    10.344
  10.320        115.83	    11.790
  10.340         96.67	    10.770
  10.360        113.33	    11.662
  10.380        115.83	    11.790
  10.400        111.67	    11.576
  10.420        118.33	    11.916
  10.440        110.83	    11.533
  10.460        116.67	    11.832
  10.480         98.33	    10.863
  10.500        112.50	    11.619
  10.520        106.67	    11.314
  10.540        101.67	    11.045
  10.560         93.33	    10.583
  10.580        112.50	    11.619
  10.600         97.50	    10.817
  10.620        101.67	    11.045
  10.640         98.33	    10.863
  10.660        105.83	    11.269
  10.680        105.83	    11.269
  10.700         98.33	    10.863
  10.720         91.67	    10.488
  10.740         85.00	    10.100
  10.760         94.17	    10.630
  10.780         87.50	    10.247
  10.800        106.67	    11.314
  10.820         98.33	    10.863
  10.840         84.17	    10.050
  10.860         98.33	    10.863
  10.880        103.33	    11.136
  10.900        104.17	    11.180
  10.920         95.00	    10.677
  10.940         88.33	    10.296
  10.960         85.83	    10.149
  10.980        119.17	    11.958
  11.000         95.83	    10.724
  11.020        100.83	    11.000
  11.040         86.67	    10.198
  11.060         95.00	    10.677
  11.080         97.50	    10.817
  11.100         88.33	    10.296
  11.120         95.83	    10.724
  11.140         86.67	    10.198
  11.160         88.33	    10.296
  11.180         71.67	     9.274
  11.200         91.67	    10.488
  11.220        114.17	    11.705
  11.240        105.00	    11.225
  11.260         88.33	    10.296
  11.280        102.50	    11.091
  11.300         82.50	     9.950
  11.320        110.00	    11.489
  11.340         97.50	    10.817
  11.360         77.50	     9.644
  11.380         85.83	    10.149
  11.400         80.00	     9.798
  11.420         92.50	    10.536
  11.440         86.67	    10.198
  11.460         82.50	     9.950
  11.480         81.67	     9.899
  11.500         96.67	    10.770
  11.520         83.33	    10.000
  11.540         85.83	    10.149
  11.560         90.83	    10.440
  11.580        106.67	    11.314
  11.600         92.50	    10.536
  11.620        100.00	    10.954
  11.640         82.50	     9.950
  11.660         92.50	    10.536
  11.680        100.83	    11.000
  11.700         85.00	    10.100
  11.720         73.33	     9.381
  11.740         89.17	    10.344
  11.760         85.83	    10.149
  11.780         98.33	    10.863
  11.800        104.17	    11.180
  11.820         79.17	     9.747
  11.840         80.83	     9.849
  11.860         81.67	     9.899
  11.880         75.83	     9.539
  11.900         79.17	     9.747
  11.920        100.00	    10.954
  11.940         92.50	    10.536
  11.960        112.50	    11.619
  11.980         97.50	    10.817
  12.000         86.67	    10.198
  12.020        125.00	    12.247
  12.040        134.17	    12.689
  12.060        131.67	    12.570
  12.080        160.00	    13.856
  12.100        195.83	    15.330
  12.120        157.50	    13.748
  12.140        135.00	    12.728
  12.160        139.17	    12.923
  12.180        101.67	    11.045
  12.200        110.00	    11.489
  12.220        105.00	    11.225
  12.240        120.83	    12.042
  12.260        112.50	    11.619
  12.280        102.50	    11.091
  12.300        111.67	    11.576
  12.320        101.67	    11.045
  12.340        124.17	    12.207
  12.360        115.00	    11.747
  12.380        120.00	    12.000
  12.400        120.00	    12.000
  12.420        127.50	    12.369
  12.440        115.83	    11.790
  12.460        119.17	    11.958
  12.480         96.67	    10.770
  12.500         94.17	    10.630
  12.520         84.17	    10.050
  12.540         79.17	     9.747
  12.560         75.83	     9.539
  12.580         77.50	     9.644
  12.600         90.00	    10.392
  12.620         90.83	    10.440
  12.640         79.17	     9.747
  12.660         80.83	     9.849
  12.680         83.33	    10.000
  12.700         87.50	    10.247
  12.720         86.67	    10.198
  12.740         81.67	     9.899
  12.760         75.83	     9.539
  12.780         65.00	     8.832
  12.800         70.00	     9.165
  12.820         78.33	     9.695
  12.840         68.33	     9.055
  12.860         89.17	    10.344
  12.880         87.50	    10.247
  12.900         87.50	    10.247
  12.920         81.67	     9.899
  12.940         83.33	    10.000
  12.960         73.33	     9.381
  12.980         93.33	    10.583
  13.000         74.17	     9.434
  13.020         60.83	     8.544
  13.040         80.83	     9.849
  13.060         67.50	     9.000
  13.080         83.33	    10.000
  13.100         75.00	     9.487
  13.120         67.50	     9.000
  13.140         66.67	     8.944
  13.160         75.83	     9.539
  13.180         83.33	    10.000
  13.200         68.33	     9.055
  13.220         71.67	     9.274
  13.240         72.50	     9.327
  13.260         69.17	     9.110
  13.280         80.00	     9.798
  13.300         74.17	     9.434
  13.320         85.83	    10.149
  13.340         87.50	    10.247
  13.360         80.00	     9.798
  13.380         80.83	     9.849
  13.400         68.33	     9.055
  13.420         81.67	     9.899
  13.440         67.50	     9.000
  13.460         90.83	    10.440
  13.480         70.00	     9.165
  13.500         85.83	    10.149
  13.520         72.50	     9.327
  13.540         90.00	    10.392
  13.560         90.00	    10.392
  13.580         82.50	     9.950
  13.600         79.17	     9.747
  13.620         85.83	    10.149
  13.640         75.83	     9.539
  13.660         75.83	     9.539
  13.680        104.17	    11.180
  13.700         78.33	     9.695
  13.720         80.00	     9.798
  13.740         85.83	    10.149
  13.760         82.50	     9.950
  13.780         75.83	     9.539
  13.800         64.17	     8.775
  13.820         83.33	    10.000
  13.840         87.50	    10.247
  13.860         80.00	     9.798
  13.880         78.33	     9.695
  13.900         68.33	     9.055
  13.920         75.00	     9.487
  13.940         74.17	     9.434
  13.960         67.50	     9.000
  13.980         70.83	     9.220
  14.000         82.50	     9.950
  14.020         67.50	     9.000
  14.040         85.00	    10.100
  14.060         89.17	    10.344
  14.080         60.00	     8.485
  14.100         64.17	     8.775
  14.120         62.50	     8.660
  14.140         75.83	     9.539
  14.160         75.00	     9.487
  14.180         68.33	     9.055
  14.200         66.67	     8.944
  14.220         80.83	     9.849
  14.240         65.83	     8.888
  14.260         75.83	     9.539
  14.280         67.50	     9.000
  14.300         67.50	     9.000
  14.320         57.50	     8.307
  14.340         65.00	     8.832
  14.360         75.00	     9.487
  14.380         58.33	     8.367
  14.400         61.67	     8.602
  14.420         76.67	     9.592
  14.440         56.67	     8.246
  14.460         70.00	     9.165
  14.480         73.33	     9.381
  14.500         75.83	     9.539
  14.520         56.67	     8.246
  14.540         69.17	     9.110
  14.560         71.67	     9.274
  14.580         71.67	     9.274
  14.600         59.17	     8.426
  14.620         62.50	     8.660
  14.640         95.00	    10.677
  14.660         80.83	     9.849
  14.680         63.33	     8.718
  14.700         62.50	     8.660
  14.720         70.00	     9.165
  14.740         60.83	     8.544
  14.760         65.83	     8.888
  14.780         76.67	     9.592
  14.800         63.33	     8.718
  14.820         65.83	     8.888
  14.840         64.17	     8.775
  14.860         79.17	     9.747
  14.880         90.00	    10.392
  14.900         57.50	     8.307
  14.920         67.50	     9.000
  14.940         62.50	     8.660
  14.960         75.00	     9.487
  14.980         59.17	     8.426
  15.000         72.50	     9.327
  15.020         72.50	     9.327
  15.040         61.67	     8.602
  15.060         64.17	     8.775
  15.080         78.33	     9.695
  15.100         53.33	     8.000
  15.120         79.17	     9.747
  15.140         50.83	     7.810
  15.160         75.83	     9.539
  15.180         73.33	     9.381
  15.200         79.17	     9.747
  15.220         64.17	     8.775
  15.240         60.00	     8.485
  15.260         66.67	     8.944
  15.280         56.67	     8.246
  15.300         57.50	     8.307
  15.320         71.67	     9.274
  15.340         70.00	     9.165
  15.360         61.67	     8.602
  15.380         60.83	     8.544
  15.400         68.33	     9.055
  15.420         55.00	     8.124
  15.440         57.50	     8.307
  15.460         70.00	     9.165
  15.480         68.33	     9.055
  15.500         71.67	     9.274
  15.520         61.67	     8.602
  15.540         72.50	     9.327
  15.560         71.67	     9.274
  15.580         60.00	     8.485
  15.600         60.00	     8.485
  15.620         55.00	     8.124
  15.640         65.83	     8.888
  15.660         69.17	     9.110
  15.680         65.00	     8.832
  15.700         69.17	     9.110
  15.720         66.67	     8.944
  15.740         59.17	     8.426
  15.760         70.83	     9.220
  15.780         65.00	     8.832
  15.800         63.33	     8.718
  15.820         85.00	    10.100
  15.840         67.50	     9.000
  15.860         58.33	     8.367
  15.880         65.83	     8.888
  15.900         64.17	     8.775
  15.920         60.83	     8.544
  15.940         60.00	     8.485
  15.960         58.33	     8.367
  15.980         63.33	     8.718
  16.000         72.50	     9.327
  16.020         62.50	     8.660
  16.040         67.50	     9.000
  16.060         63.33	     8.718
  16.080         59.17	     8.426
  16.100         53.33	     8.000
  16.120         74.17	     9.434
  16.140         55.83	     8.185
  16.160         65.83	     8.888
  16.180         52.50	     7.937
  16.200         76.67	     9.592
  16.220         63.33	     8.718
  16.240         76.67	     9.592
  16.260         57.50	     8.307
  16.280         58.33	     8.367
  16.300         64.17	     8.775
  16.320         42.50	     7.141
  16.340         54.17	     8.062
  16.360         65.00	     8.832
  16.380         54.17	     8.062
  16.400         61.67	     8.602
  16.420         67.50	     9.000
  16.440         65.83	     8.888
  16.460         45.00	     7.348
  16.480         69.17	     9.110
  16.500         71.67	     9.274
  16.520         54.17	     8.062
  16.540         47.50	     7.550
  16.560         57.50	     8.307
  16.580         55.83	     8.185
  16.600         55.00	     8.124
  16.620         65.00	     8.832
  16.640         70.83	     9.220
  16.660         48.33	     7.616
  16.680         64.17	     8.775
  16.700         52.50	     7.937
  16.720         80.83	     9.849
  16.740         51.67	     7.874
  16.760         60.00	     8.485
  16.780         60.83	     8.544
  16.800         56.67	     8.246
  16.820         59.17	     8.426
  16.840         61.67	     8.602
  16.860         75.83	     9.539
  16.880         61.67	     8.602
  16.900         55.83	     8.185
  16.920         46.67	     7.483
  16.940         50.83	     7.810
  16.960         55.00	     8.124
  16.980         57.50	     8.307
  17.000         53.33	     8.000
  17.020         73.33	     9.381
  17.040         49.17	     7.681
  17.060         65.83	     8.888
  17.080         57.50	     8.307
  17.100         63.33	     8.718
  17.120         47.50	     7.550
  17.140         65.00	     8.832
  17.160         60.83	     8.544
  17.180         56.67	     8.246
  17.200         62.50	     8.660
  17.220         60.00	     8.485
  17.240         70.83	     9.220
  17.260         47.50	     7.550
  17.280         60.83	     8.544
  17.300         69.17	     9.110
  17.320         56.67	     8.246
  17.340         58.33	     8.367
  17.360         53.33	     8.000
  17.380         52.50	     7.937
  17.400         69.17	     9.110
  17.420         59.17	     8.426
  17.440         51.67	     7.874
  17.460         65.00	     8.832
  17.480         55.83	     8.185
  17.500         61.67	     8.602
  17.520         53.33	     8.000
  17.540         55.00	     8.124
  17.560         69.17	     9.110
  17.580         65.83	     8.888
  17.600         70.00	     9.165
  17.620         71.67	     9.274
  17.640         81.67	     9.899
  17.660         85.00	    10.100
  17.680        101.67	    11.045
  17.700         98.33	    10.863
  17.720        107.50	    11.358
  17.740         94.17	    10.630
  17.760        100.00	    10.954
  17.780         76.67	     9.592
  17.800         79.17	     9.747
  17.820         76.67	     9.592
  17.840         61.67	     8.602
  17.860         58.33	     8.367
  17.880         45.83	     7.416
  17.900         55.00	     8.124
  17.920         60.00	     8.485
  17.940         40.83	     7.000
  17.960         56.67	     8.246
  17.980         60.00	     8.485
  18.000         70.00	     9.165
  18.020         50.83	     7.810
  18.040         75.00	     9.487
  18.060         57.50	     8.307
  18.080         44.17	     7.280
  18.100         48.33	     7.616
  18.120         58.33	     8.367
  18.140         65.00	     8.832
  18.160         46.67	     7.483
  18.180         45.00	     7.348
  18.200         61.67	     8.602
  18.220         69.17	     9.110
  18.240         73.33	     9.381
  18.260         48.33	     7.616
  18.280         50.00	     7.746
  18.300         65.00	     8.832
  18.320         56.67	     8.246
  18.340         55.00	     8.124
  18.360         57.50	     8.307
  18.380         67.50	     9.000
  18.400         59.17	     8.426
  18.420         57.50	     8.307
  18.440         62.50	     8.660
  18.460         60.00	     8.485
  18.480         60.00	     8.485
  18.500         67.50	     9.000
  18.520         66.67	     8.944
  18.540         51.67	     7.874
  18.560         60.00	     8.485
  18.580         61.67	     8.602
  18.600         61.67	     8.602
  18.620         60.00	     8.485
  18.640         66.67	     8.944
  18.660         73.33	     9.381
  18.680         57.50	     8.307
  18.700         80.00	     9.798
  18.720         70.83	     9.220
  18.740         81.67	     9.899
  18.760         63.33	     8.718
  18.780         57.50	     8.307
  18.800         73.33	     9.381
  18.820         47.50	     7.550
  18.840         52.50	     7.937
  18.860         58.33	     8.367
  18.880         65.83	     8.888
  18.900         55.00	     8.124
  18.920         56.67	     8.246
  18.940         51.67	     7.874
  18.960         68.33	     9.055
  18.980         62.50	     8.660
  19.000         53.33	     8.000
  19.020         60.83	     8.544
  19.040         51.67	     7.874
  19.060         69.17	     9.110
  19.080         80.00	     9.798
  19.100         65.00	     8.832
  19.120         51.67	     7.874
  19.140         55.00	     8.124
  19.160         54.17	     8.062
  19.180         50.00	     7.746
  19.200         75.83	     9.539
  19.220         54.17	     8.062
  19.240         60.00	     8.485
  19.260         55.00	     8.124
  19.280         66.67	     8.944
  19.300         54.17	     8.062
  19.320         60.83	     8.544
  19.340         77.50	     9.644
  19.360         64.17	     8.775
  19.380         52.50	     7.937
  19.400         61.67	     8.602
  19.420         47.50	     7.550
  19.440         61.67	     8.602
  19.460         70.83	     9.220
  19.480         60.83	     8.544
  19.500         56.67	     8.246
  19.520         64.17	     8.775
  19.540         68.33	     9.055
  19.560         79.17	     9.747
  19.580         70.00	     9.165
  19.600         74.17	     9.434
  19.620         70.00	     9.165
  19.640         73.33	     9.381
  19.660         74.17	     9.434
  19.680         87.50	    10.247
  19.700         77.50	     9.644
  19.720         86.67	    10.198
  19.740         84.17	    10.050
  19.760         70.83	     9.220
  19.780         79.17	     9.747
  19.800         78.33	     9.695
  19.820         69.17	     9.110
  19.840         62.50	     8.660
  19.860         75.00	     9.487
  19.880         54.17	     8.062
  19.900         63.33	     8.718
  19.920         52.50	     7.937
  19.940         48.33	     7.616
  19.960         44.17	     7.280
  19.980         59.17	     8.426
  20.000         65.83	     8.888
  20.020         60.83	     8.544
  20.040         64.17	     8.775
  20.060         67.50	     9.000
  20.080         60.83	     8.544
  20.100         64.17	     8.775
  20.120         56.67	     8.246
  20.140         56.67	     8.246
  20.160         50.83	     7.810
  20.180         60.83	     8.544
  20.200         53.33	     8.000
  20.220         55.00	     8.124
  20.240         46.67	     7.483
  20.260         46.67	     7.483
  20.280         51.67	     7.874
  20.300         52.50	     7.937
  20.320         46.67	     7.483
  20.340         59.17	     8.426
  20.360         56.67	     8.246
  20.380         68.33	     9.055
  20.400         60.83	     8.544
  20.420         55.00	     8.124
  20.440         55.83	     8.185
  20.460         56.67	     8.246
  20.480         61.67	     8.602
  20.500         60.83	     8.544
  20.520         65.83	     8.888
  20.540         69.17	     9.110
  20.560         65.83	     8.888
  20.580         75.00	     9.487
  20.600         62.50	     8.660
  20.620         66.67	     8.944
  20.640         75.00	     9.487
  20.660        109.17	    11.446
  20.680        122.50	    12.124
  20.700        148.33	    13.342
  20.720        184.17	    14.866
  20.740        212.50	    15.969
  20.760        287.50	    18.574
  20.780        280.83	    18.358
  20.800        215.00	    16.062
  20.820        210.00	    15.875
  20.840        155.00	    13.638
  20.860        130.00	    12.490
  20.880        116.67	    11.832
  20.900        119.17	    11.958
  20.920        115.00	    11.747
  20.940        105.83	    11.269
  20.960         89.17	    10.344
  20.980         75.00	     9.487
  21.000         62.50	     8.660
  21.020         64.17	     8.775
  21.040         49.17	     7.681
  21.060         62.50	     8.660
  21.080         54.17	     8.062
  21.100         55.83	     8.185
  21.120         55.00	     8.124
  21.140         55.00	     8.124
  21.160         52.50	     7.937
  21.180         45.83	     7.416
  21.200         45.00	     7.348
  21.220         41.67	     7.071
  21.240         55.00	     8.124
  21.260         60.00	     8.485
  21.280         40.83	     7.000
  21.300         55.83	     8.185
  21.320         53.33	     8.000
  21.340         56.67	     8.246
  21.360         55.83	     8.185
  21.380         51.67	     7.874
  21.400         60.00	     8.485
  21.420         60.00	     8.485
  21.440         53.33	     8.000
  21.460         52.50	     7.937
  21.480         66.67	     8.944
  21.500         54.17	     8.062
  21.520         48.33	     7.616
  21.540         43.33	     7.211
  21.560         57.50	     8.307
  21.580         50.83	     7.810
  21.600         58.33	     8.367
  21.620         60.83	     8.544
  21.640         48.33	     7.616
  21.660         56.67	     8.246
  21.680         55.83	     8.185
  21.700         58.33	     8.367
  21.720         50.83	     7.810
  21.740         57.50	     8.307
  21.760         57.50	     8.307
  21.780         49.17	     7.681
  21.800         54.17	     8.062
  21.820         70.83	     9.220
  21.840         67.50	     9.000
  21.860         69.17	     9.110
  21.880         87.50	    10.247
  21.900        121.67	    12.083
  21.920        136.67	    12.806
  21.940        155.83	    13.675
  21.960        129.17	    12.450
  21.980        118.33	    11.916
  22.000         98.33	    10.863
  22.020         76.67	     9.592
  22.040         60.00	     8.485
  22.060         61.67	     8.602
  22.080         80.00	     9.798
  22.100         67.50	     9.000
  22.120         60.83	     8.544
  22.140         59.17	     8.426
  22.160         44.17	     7.280
  22.180         76.67	     9.592
  22.200        118.33	    11.916
  22.220        129.17	    12.450
  22.240        112.50	    11.619
  22.260         89.17	    10.344
  22.280         90.83	    10.440
  22.300         73.33	     9.381
  22.320         71.67	     9.274
  22.340         53.33	     8.000
  22.360         69.17	     9.110
  22.380         74.17	     9.434
  22.400         60.83	     8.544
  22.420         52.50	     7.937
  22.440         55.00	     8.124
  22.460         55.00	     8.124
  22.480         54.17	     8.062
  22.500         54.17	     8.062
  22.520         67.50	     9.000
  22.540         50.83	     7.810
  22.560         70.00	     9.165
  22.580         55.83	     8.185
  22.600         57.50	     8.307
  22.620         52.50	     7.937
  22.640         65.83	     8.888
  22.660         62.50	     8.660
  22.680         47.50	     7.550
  22.700         56.67	     8.246
  22.720         55.83	     8.185
  22.740         63.33	     8.718
  22.760         60.00	     8.485
  22.780         73.33	     9.381
  22.800         78.33	     9.695
  22.820         73.33	     9.381
  22.840         70.83	     9.220
  22.860         53.33	     8.000
  22.880         72.50	     9.327
  22.900         67.50	     9.000
  22.920         70.83	     9.220
  22.940         87.50	    10.247
  22.960         67.50	     9.000
  22.980         72.50	     9.327
  23.000         64.17	     8.775
  23.020         58.33	     8.367
  23.040         59.17	     8.426
  23.060         60.83	     8.544
  23.080         56.67	     8.246
  23.100         46.67	     7.483
  23.120         50.83	     7.810
  23.140         49.17	     7.681
  23.160         49.17	     7.681
  23.180         53.33	     8.000
  23.200         46.67	     7.483
  23.220         65.83	     8.888
  23.240         48.33	     7.616
  23.260         59.17	     8.426
  23.280         44.17	     7.280
  23.300         57.50	     8.307
  23.320         65.00	     8.832
  23.340         57.50	     8.307
  23.360         67.50	     9.000
  23.380         82.50	     9.950
  23.400         95.00	    10.677
  23.420        110.00	    11.489
  23.440        146.67	    13.266
  23.460        109.17	    11.446
  23.480        104.17	    11.180
  23.500         99.17	    10.909
  23.520         90.00	    10.392
  23.540         74.17	     9.434
  23.560         70.83	     9.220
  23.580         63.33	     8.718
  23.600         58.33	     8.367
  23.620         82.50	     9.950
  23.640         61.67	     8.602
  23.660         72.50	     9.327
  23.680         54.17	     8.062
  23.700         75.00	     9.487
  23.720         77.50	     9.644
  23.740         68.33	     9.055
  23.760         60.00	     8.485
  23.780         60.83	     8.544
  23.800         55.83	     8.185
  23.820         55.00	     8.124
  23.840         65.83	     8.888
  23.860         65.00	     8.832
  23.880         74.17	     9.434
  23.900         65.83	     8.888
  23.920         53.33	     8.000
  23.940         63.33	     8.718
  23.960         61.67	     8.602
  23.980         70.00	     9.165
  24.000         58.33	     8.367
  24.020         75.00	     9.487
  24.040         80.83	     9.849
  24.060         92.50	    10.536
  24.080        117.50	    11.874
  24.100        120.83	    12.042
  24.120        125.00	    12.247
  24.140        140.00	    12.961
  24.160        138.33	    12.884
  24.180        154.17	    13.601
  24.200        150.00	    13.416
  24.220        117.50	    11.874
  24.240        127.50	    12.369
  24.260         85.00	    10.100
  24.280         90.00	    10.392
  24.300         82.50	     9.950
  24.320         77.50	     9.644
  24.340         87.50	    10.247
  24.360         60.00	     8.485
  24.380         67.50	     9.000
  24.400         82.50	     9.950
  24.420         78.33	     9.695
  24.440         85.83	    10.149
  24.460        110.00	    11.489
  24.480        125.83	    12.288
  24.500        129.17	    12.450
  24.520        126.67	    12.329
  24.540        127.50	    12.369
  24.560        115.83	    11.790
  24.580        104.17	    11.180
  24.600        105.83	    11.269
  24.620        101.67	    11.045
  24.640         74.17	     9.434
  24.660         87.50	    10.247
  24.680         94.17	    10.630
  24.700         63.33	     8.718
  24.720         81.67	     9.899
  24.740         75.83	     9.539
  24.760         50.83	     7.810
  24.780         78.33	     9.695
  24.800         70.00	     9.165
  24.820         68.33	     9.055
  24.840         59.17	     8.426
  24.860         69.17	     9.110
  24.880         72.50	     9.327
  24.900         60.83	     8.544
  24.920         80.00	     9.798
  24.940         69.17	     9.110
  24.960         65.83	     8.888
  24.980         78.33	     9.695
  25.000         86.67	    10.198
  25.020         84.17	    10.050
  25.040         95.83	    10.724
  25.060         85.00	    10.100
  25.080         90.00	    10.392
  25.100        107.50	    11.358
  25.120         68.33	     9.055
  25.140         74.17	     9.434
  25.160         64.17	     8.775
  25.180         70.00	     9.165
  25.200         58.33	     8.367
  25.220         71.67	     9.274
  25.240         60.83	     8.544
  25.260         70.00	     9.165
  25.280         76.67	     9.592
  25.300         91.67	    10.488
  25.320         92.50	    10.536
  25.340         89.17	    10.344
  25.360        104.17	    11.180
  25.380        104.17	    11.180
  25.400        101.67	    11.045
  25.420        120.00	    12.000
  25.440        139.17	    12.923
  25.460        114.17	    11.705
  25.480        104.17	    11.180
  25.500         95.00	    10.677
  25.520        102.50	    11.091
  25.540        102.50	    11.091
  25.560         79.17	     9.747
  25.580         67.50	     9.000
  25.600         82.50	     9.950
  25.620         58.33	     8.367
  25.640         55.83	     8.185
  25.660         60.00	     8.485
  25.680         61.67	     8.602
  25.700         41.67	     7.071
  25.720         50.83	     7.810
  25.740         56.67	     8.246
  25.760         55.83	     8.185
  25.780         55.83	     8.185
  25.800         45.00	     7.348
  25.820         50.83	     7.810
  25.840         56.67	     8.246
  25.860         50.83	     7.810
  25.880         57.50	     8.307
  25.900         60.83	     8.544
  25.920         66.67	     8.944
  25.940         51.67	     7.874
  25.960         51.67	     7.874
  25.980         51.67	     7.874
  26.000         61.67	     8.602
  26.020         55.00	     8.124
  26.040         61.67	     8.602
  26.060         50.00	     7.746
  26.080         49.17	     7.681
  26.100         53.33	     8.000
  26.120         71.67	     9.274
  26.140         70.00	     9.165
  26.160         61.67	     8.602
  26.180         92.50	    10.536
  26.200         80.83	     9.849
  26.220         84.17	    10.050
  26.240         89.17	    10.344
  26.260         92.50	    10.536
  26.280        110.00	    11.489
  26.300        133.33	    12.649
  26.320        149.17	    13.379
  26.340        157.50	    13.748
  26.360        173.33	    14.422
  26.380        202.50	    15.588
  26.400        256.67	    17.550
  26.420        382.50	    21.424
  26.440        451.67	    23.281
  26.460        560.83	    25.942
  26.480        723.33	    29.462
  26.500        914.17	    33.121
  26.520       1069.17	    35.819
  26.540       1156.67	    37.256
  26.560       1080.00	    36.000
  26.580        797.50	    30.935
  26.600        681.67	    28.601
  26.620        550.00	    25.690
  26.640        373.33	    21.166
  26.660        217.50	    16.155
  26.680        206.67	    15.748
  26.700        193.33	    15.232
  26.720        233.33	    16.733
  26.740        244.17	    17.117
  26.760        256.67	    17.550
  26.780        227.50	    16.523
  26.800        232.50	    16.703
  26.820        207.50	    15.780
  26.840        147.50	    13.304
  26.860        155.83	    13.675
  26.880        126.67	    12.329
  26.900         89.17	    10.344
  26.920         89.17	    10.344
  26.940         87.50	    10.247
  26.960         86.67	    10.198
  26.980         80.00	     9.798
  27.000         80.00	     9.798
  27.020         72.50	     9.327
  27.040         72.50	     9.327
  27.060         73.33	     9.381
  27.080         59.17	     8.426
  27.100         66.67	     8.944
  27.120         48.33	     7.616
  27.140         48.33	     7.616
  27.160         51.67	     7.874
  27.180         57.50	     8.307
  27.200         55.83	     8.185
  27.220         57.50	     8.307
  27.240         56.67	     8.246
  27.260         67.50	     9.000
  27.280         79.17	     9.747
  27.300         60.83	     8.544
  27.320         72.50	     9.327
  27.340         72.50	     9.327
  27.360        105.00	    11.225
  27.380        103.33	    11.136
  27.400        135.83	    12.767
  27.420        141.67	    13.038
  27.440        145.83	    13.229
  27.460        110.00	    11.489
  27.480        104.17	    11.180
  27.500        117.50	    11.874
  27.520         84.17	    10.050
  27.540         75.83	     9.539
  27.560        111.67	    11.576
  27.580         98.33	    10.863
  27.600        132.50	    12.610
  27.620        174.17	    14.457
  27.640        298.33	    18.921
  27.660        302.50	    19.053
  27.680        250.00	    17.321
  27.700        237.50	    16.882
  27.720        235.83	    16.823
  27.740        268.33	    17.944
  27.760        195.83	    15.330
  27.780        218.33	    16.186
  27.800        213.33	    16.000
  27.820        270.00	    18.000
  27.840        249.17	    17.292
  27.860        249.17	    17.292
  27.880        168.33	    14.213
  27.900        175.83	    14.526
  27.920        134.17	    12.689
  27.940        119.17	    11.958
  27.960        115.83	    11.790
  27.980         94.17	    10.630
  28.000        109.17	    11.446
  28.020        104.17	    11.180
  28.040        109.17	    11.446
  28.060        100.83	    11.000
  28.080        100.83	    11.000
  28.100         86.67	    10.198
  28.120        113.33	    11.662
  28.140         98.33	    10.863
  28.160        111.67	    11.576
  28.180        121.67	    12.083
  28.200         93.33	    10.583
  28.220         75.83	     9.539
  28.240         89.17	    10.344
  28.260         56.67	     8.246
  28.280         60.83	     8.544
  28.300         49.17	     7.681
  28.320         62.50	     8.660
  28.340         61.67	     8.602
  28.360         53.33	     8.000
  28.380         50.83	     7.810
  28.400         52.50	     7.937
  28.420         55.83	     8.185
  28.440         60.83	     8.544
  28.460         57.50	     8.307
  28.480         55.83	     8.185
  28.500         53.33	     8.000
  28.520         60.83	     8.544
  28.540         46.67	     7.483
  28.560         53.33	     8.000
  28.580         63.33	     8.718
  28.600         68.33	     9.055
  28.620         51.67	     7.874
  28.640         55.83	     8.185
  28.660         58.33	     8.367
  28.680         63.33	     8.718
  28.700         59.17	     8.426
  28.720         58.33	     8.367
  28.740         44.17	     7.280
  28.760         47.50	     7.550
  28.780         40.83	     7.000
  28.800         38.33	     6.782
  28.820         35.83	     6.557
  28.840         35.83	     6.557
  28.860         39.17	     6.856
  28.880         34.17	     6.403
  28.900         35.83	     6.557
  28.920         38.33	     6.782
  28.940         44.17	     7.280
  28.960         46.67	     7.483
  28.980         35.00	     6.481
  29.000         48.33	     7.616
  29.020         40.83	     7.000
  29.040         43.33	     7.211
  29.060         37.50	     6.708
  29.080         42.50	     7.141
  29.100         45.83	     7.416
  29.120         39.17	     6.856
  29.140         36.67	     6.633
  29.160         50.83	     7.810
  29.180         47.50	     7.550
  29.200         48.33	     7.616
  29.220         43.33	     7.211
  29.240         39.17	     6.856
  29.260         45.00	     7.348
  29.280         38.33	     6.782
  29.300         33.33	     6.325
  29.320         44.17	     7.280
  29.340         43.33	     7.211
  29.360         46.67	     7.483
  29.380         48.33	     7.616
  29.400         45.83	     7.416
  29.420         53.33	     8.000
  29.440         47.50	     7.550
  29.460         48.33	     7.616
  29.480         40.83	     7.000
  29.500         35.83	     6.557
  29.520         48.33	     7.616
  29.540         49.17	     7.681
  29.560         51.67	     7.874
  29.580         54.17	     8.062
  29.600         56.67	     8.246
  29.620         61.67	     8.602
  29.640         75.83	     9.539
  29.660         59.17	     8.426
  29.680         87.50	    10.247
  29.700         64.17	     8.775
  29.720         75.00	     9.487
  29.740         95.00	    10.677
  29.760        103.33	    11.136
  29.780         92.50	    10.536
  29.800         94.17	    10.630
  29.820         90.00	    10.392
  29.840         99.17	    10.909
  29.860         65.83	     8.888
  29.880         80.83	     9.849
  29.900         64.17	     8.775
  29.920         66.67	     8.944
  29.940         71.67	     9.274
  29.960         65.83	     8.888
  29.980         87.50	    10.247
  30.000         82.50	     9.950
  30.020         66.67	     8.944
  30.040         60.00	     8.485
  30.060         65.83	     8.888
  30.080         64.17	     8.775
  30.100         52.50	     7.937
  30.120         55.00	     8.124
  30.140         60.83	     8.544
  30.160         70.00	     9.165
  30.180         47.50	     7.550
  30.200         64.17	     8.775
  30.220         68.33	     9.055
  30.240         70.00	     9.165
  30.260         71.67	     9.274
  30.280         69.17	     9.110
  30.300         82.50	     9.950
  30.320         80.00	     9.798
  30.340         75.83	     9.539
  30.360         70.83	     9.220
  30.380         85.83	    10.149
  30.400        101.67	    11.045
  30.420         94.17	    10.630
  30.440         73.33	     9.381
  30.460         71.67	     9.274
  30.480         73.33	     9.381
  30.500         65.00	     8.832
  30.520         59.17	     8.426
  30.540         50.83	     7.810
  30.560         45.00	     7.348
  30.580         33.33	     6.325
  30.600         42.50	     7.141
  30.620         46.67	     7.483
  30.640         59.17	     8.426
  30.660         65.00	     8.832
  30.680         60.83	     8.544
  30.700         61.67	     8.602
  30.720         71.67	     9.274
  30.740         65.83	     8.888
  30.760         58.33	     8.367
  30.780         57.50	     8.307
  30.800         57.50	     8.307
  30.820         50.83	     7.810
  30.840         51.67	     7.874
  30.860         39.17	     6.856
  30.880         38.33	     6.782
  30.900         53.33	     8.000
  30.920         54.17	     8.062
  30.940         49.17	     7.681
  30.960         50.83	     7.810
  30.980         45.00	     7.348
  31.000         54.17	     8.062
  31.020         50.00	     7.746
  31.040         50.83	     7.810
  31.060         54.17	     8.062
  31.080         58.33	     8.367
  31.100         71.67	     9.274
  31.120         69.17	     9.110
  31.140         60.00	     8.485
  31.160         66.67	     8.944
  31.180         63.33	     8.718
  31.200         67.50	     9.000
  31.220         56.67	     8.246
  31.240         66.67	     8.944
  31.260         60.83	     8.544
  31.280         60.00	     8.485
  31.300         53.33	     8.000
  31.320         51.67	     7.874
  31.340         60.83	     8.544
  31.360         50.00	     7.746
  31.380         45.83	     7.416
  31.400         41.67	     7.071
  31.420         55.83	     8.185
  31.440         55.83	     8.185
  31.460         40.00	     6.928
  31.480         35.83	     6.557
  31.500         47.50	     7.550
  31.520         50.83	     7.810
  31.540         42.50	     7.141
  31.560         40.83	     7.000
  31.580         46.67	     7.483
  31.600         35.83	     6.557
  31.620         41.67	     7.071
  31.640         39.17	     6.856
  31.660         28.33	     5.831
  31.680         36.67	     6.633
  31.700         35.83	     6.557
  31.720         35.83	     6.557
  31.740         39.17	     6.856
  31.760         40.00	     6.928
  31.780         54.17	     8.062
  31.800         50.00	     7.746
  31.820         70.83	     9.220
  31.840         56.67	     8.246
  31.860         56.67	     8.246
  31.880         45.83	     7.416
  31.900         78.33	     9.695
  31.920         69.17	     9.110
  31.940         62.50	     8.660
  31.960         58.33	     8.367
  31.980         50.83	     7.810
  32.000         72.50	     9.327
  32.020         52.50	     7.937
  32.040         60.00	     8.485
  32.060         50.83	     7.810
  32.080         66.67	     8.944
  32.100         45.83	     7.416
  32.120         50.00	     7.746
  32.140         40.83	     7.000
  32.160         45.83	     7.416
  32.180         54.17	     8.062
  32.200         50.83	     7.810
  32.220         50.83	     7.810
  32.240         62.50	     8.660
  32.260         50.00	     7.746
  32.280         45.00	     7.348
  32.300         40.83	     7.000
  32.320         49.17	     7.681
  32.340         43.33	     7.211
  32.360         42.50	     7.141
  32.380         49.17	     7.681
  32.400         31.67	     6.164
  32.420         40.83	     7.000
  32.440         46.67	     7.483
  32.460         45.83	     7.416
  32.480         48.33	     7.616
  32.500         38.33	     6.782
  32.520         55.00	     8.124
  32.540         35.83	     6.557
  32.560         35.00	     6.481
  32.580         34.17	     6.403
  32.600         37.50	     6.708
  32.620         45.83	     7.416
  32.640         25.00	     5.477
  32.660         35.83	     6.557
  32.680         40.83	     7.000
  32.700         33.33	     6.325
  32.720         48.33	     7.616
  32.740         46.67	     7.483
  32.760         41.67	     7.071
  32.780         30.83	     6.083
  32.800         33.33	     6.325
  32.820         43.33	     7.211
  32.840         35.83	     6.557
  32.860         37.50	     6.708
  32.880         44.17	     7.280
  32.900         40.83	     7.000
  32.920         58.33	     8.367
  32.940         53.33	     8.000
  32.960         43.33	     7.211
  32.980         43.33	     7.211
  33.000         50.83	     7.810
  33.020         47.50	     7.550
  33.040         35.83	     6.557
  33.060         34.17	     6.403
  33.080         49.17	     7.681
  33.100         28.33	     5.831
  33.120         39.17	     6.856
  33.140         38.33	     6.782
  33.160         41.67	     7.071
  33.180         51.67	     7.874
  33.200         56.67	     8.246
  33.220         48.33	     7.616
  33.240         50.83	     7.810
  33.260         45.83	     7.416
  33.280         42.50	     7.141
  33.300         39.17	     6.856
  33.320         53.33	     8.000
  33.340         47.50	     7.550
  33.360         51.67	     7.874
  33.380         32.50	     6.245
  33.400         50.00	     7.746
  33.420         32.50	     6.245
  33.440         53.33	     8.000
  33.460         43.33	     7.211
  33.480         45.00	     7.348
  33.500         40.00	     6.928
  33.520         40.83	     7.000
  33.540         47.50	     7.550
  33.560         45.83	     7.416
  33.580         30.00	     6.000
  33.600         48.33	     7.616
  33.620         42.50	     7.141
  33.640         41.67	     7.071
  33.660         45.00	     7.348
  33.680         40.83	     7.000
  33.700         40.00	     6.928
  33.720         47.50	     7.550
  33.740         51.67	     7.874
  33.760         60.00	     8.485
  33.780         50.83	     7.810
  33.800         60.83	     8.544
  33.820         63.33	     8.718
  33.840         60.00	     8.485
  33.860         52.50	     7.937
  33.880         57.50	     8.307
  33.900         46.67	     7.483
  33.920         47.50	     7.550
  33.940         58.33	     8.367
  33.960         55.83	     8.185
  33.980         43.33	     7.211
  34.000         52.50	     7.937
  34.020         40.00	     6.928
  34.040         64.17	     8.775
  34.060         50.83	     7.810
  34.080         51.67	     7.874
  34.100         47.50	     7.550
  34.120         46.67	     7.483
  34.140         54.17	     8.062
  34.160         45.00	     7.348
  34.180         49.17	     7.681
  34.200         47.50	     7.550
  34.220         58.33	     8.367
  34.240         58.33	     8.367
  34.260         69.17	     9.110
  34.280         73.33	     9.381
  34.300         65.83	     8.888
  34.320         55.83	     8.185
  34.340         69.17	     9.110
  34.360         64.17	     8.775
  34.380         70.83	     9.220
  34.400         75.83	     9.539
  34.420         66.67	     8.944
  34.440         81.67	     9.899
  34.460         99.17	    10.909
  34.480         82.50	     9.950
  34.500         57.50	     8.307
  34.520         64.17	     8.775
  34.540         65.83	     8.888
  34.560         72.50	     9.327
  34.580         65.00	     8.832
  34.600         75.00	     9.487
  34.620         70.83	     9.220
  34.640         68.33	     9.055
  34.660         77.50	     9.644
  34.680         77.50	     9.644
  34.700         83.33	    10.000
  34.720         95.00	    10.677
  34.740         96.67	    10.770
  34.760         97.50	    10.817
  34.780        110.00	    11.489
  34.800         95.83	    10.724
  34.820        102.50	    11.091
  34.840         90.83	    10.440
  34.860         90.00	    10.392
  34.880        100.00	    10.954
  34.900         91.67	    10.488
  34.920        106.67	    11.314
  34.940         87.50	    10.247
  34.960         90.00	    10.392
  34.980         90.83	    10.440
  35.000         72.50	     9.327
  35.020         80.83	     9.849
  35.040         71.67	     9.274
  35.060         56.67	     8.246
  35.080         69.17	     9.110
  35.100         61.67	     8.602
  35.120         65.00	     8.832
  35.140         72.50	     9.327
  35.160         55.00	     8.124
  35.180         54.17	     8.062
  35.200         64.17	     8.775
  35.220         58.33	     8.367
  35.240         75.00	     9.487
  35.260         71.67	     9.274
  35.280         76.67	     9.592
  35.300         76.67	     9.592
  35.320         89.17	    10.344
  35.340         85.00	    10.100
  35.360         97.50	    10.817
  35.380        109.17	    11.446
  35.400        105.00	    11.225
  35.420        126.67	    12.329
  35.440        155.00	    13.638
  35.460        121.67	    12.083
  35.480        140.83	    13.000
  35.500        113.33	    11.662
  35.520        104.17	    11.180
  35.540         93.33	    10.583
  35.560         88.33	    10.296
  35.580         70.00	     9.165
  35.600         85.00	    10.100
  35.620         65.83	     8.888
  35.640         65.83	     8.888
  35.660         49.17	     7.681
  35.680         51.67	     7.874
  35.700         51.67	     7.874
  35.720         56.67	     8.246
  35.740         62.50	     8.660
  35.760         35.83	     6.557
  35.780         38.33	     6.782
  35.800         48.33	     7.616
  35.820         55.83	     8.185
  35.840         43.33	     7.211
  35.860         49.17	     7.681
  35.880         40.00	     6.928
  35.900         45.00	     7.348
  35.920         59.17	     8.426
  35.940         51.67	     7.874
  35.960         46.67	     7.483
  35.980         59.17	     8.426
  36.000         51.67	     7.874
  36.020         51.67	     7.874
  36.040         54.17	     8.062
  36.060         45.83	     7.416
  36.080         48.33	     7.616
  36.100         47.50	     7.550
  36.120         41.67	     7.071
  36.140         47.50	     7.550
  36.160         50.83	     7.810
  36.180         43.33	     7.211
  36.200         46.67	     7.483
  36.220         50.83	     7.810
  36.240         60.83	     8.544
  36.260         62.50	     8.660
  36.280         63.33	     8.718
  36.300         82.50	     9.950
  36.320         82.50	     9.950
  36.340         88.33	    10.296
  36.360        103.33	    11.136
  36.380         85.83	    10.149
  36.400        141.67	    13.038
  36.420        164.17	    14.036
  36.440        180.83	    14.731
  36.460        178.33	    14.629
  36.480        140.00	    12.961
  36.500        100.00	    10.954
  36.520        115.00	    11.747
  36.540        116.67	    11.832
  36.560        109.17	    11.446
  36.580         77.50	     9.644
  36.600         77.50	     9.644
  36.620         72.50	     9.327
  36.640         72.50	     9.327
  36.660         54.17	     8.062
  36.680         55.00	     8.124
  36.700         58.33	     8.367
  36.720         53.33	     8.000
  36.740         59.17	     8.426
  36.760         43.33	     7.211
  36.780         50.83	     7.810
  36.800         60.83	     8.544
  36.820         48.33	     7.616
  36.840         51.67	     7.874
  36.860         58.33	     8.367
  36.880         49.17	     7.681
  36.900         50.00	     7.746
  36.920         45.83	     7.416
  36.940         43.33	     7.211
  36.960         50.00	     7.746
  36.980         37.50	     6.708
  37.000         43.33	     7.211
  37.020         43.33	     7.211
  37.040         54.17	     8.062
  37.060         58.33	     8.367
  37.080         32.50	     6.245
  37.100         49.17	     7.681
  37.120         36.67	     6.633
  37.140         35.83	     6.557
  37.160         36.67	     6.633
  37.180         44.17	     7.280
  37.200         59.17	     8.426
  37.220         49.17	     7.681
  37.240         55.00	     8.124
  37.260         62.50	     8.660
  37.280         85.83	    10.149
  37.300         82.50	     9.950
  37.320         89.17	    10.344
  37.340         80.83	     9.849
  37.360         70.83	     9.220
  37.380         75.00	     9.487
  37.400         81.67	     9.899
  37.420         65.00	     8.832
  37.440         93.33	    10.583
  37.460         67.50	     9.000
  37.480         67.50	     9.000
  37.500         66.67	     8.944
  37.520         79.17	     9.747
  37.540         79.17	     9.747
  37.560         72.50	     9.327
  37.580         62.50	     8.660
  37.600         75.83	     9.539
  37.620         64.17	     8.775
  37.640         57.50	     8.307
  37.660         58.33	     8.367
  37.680         65.00	     8.832
  37.700         63.33	     8.718
  37.720         50.00	     7.746
  37.740         50.00	     7.746
  37.760         39.17	     6.856
  37.780         49.17	     7.681
  37.800         35.83	     6.557
  37.820         33.33	     6.325
  37.840         35.00	     6.481
  37.860         32.50	     6.245
  37.880         43.33	     7.211
  37.900         35.83	     6.557
  37.920         34.17	     6.403
  37.940         34.17	     6.403
  37.960         30.00	     6.000
  37.980         32.50	     6.245
  38.000         31.67	     6.164
  38.020         38.33	     6.782
  38.040         33.33	     6.325
  38.060         33.33	     6.325
  38.080         37.50	     6.708
  38.100         25.00	     5.477
  38.120         33.33	     6.325
  38.140         35.00	     6.481
  38.160         30.00	     6.000
  38.180         30.00	     6.000
  38.200         29.17	     5.916
  38.220         36.67	     6.633
  38.240         35.83	     6.557
  38.260         30.00	     6.000
  38.280         35.83	     6.557
  38.300         37.50	     6.708
  38.320         32.50	     6.245
  38.340         28.33	     5.831
  38.360         27.50	     5.745
  38.380         32.50	     6.245
  38.400         43.33	     7.211
  38.420         35.83	     6.557
  38.440         37.50	     6.708
  38.460         38.33	     6.782
  38.480         49.17	     7.681
  38.500         36.67	     6.633
  38.520         45.83	     7.416
  38.540         36.67	     6.633
  38.560         28.33	     5.831
  38.580         32.50	     6.245
  38.600         52.50	     7.937
  38.620         35.83	     6.557
  38.640         37.50	     6.708
  38.660         40.00	     6.928
  38.680         48.33	     7.616
  38.700         35.83	     6.557
  38.720         67.50	     9.000
  38.740         58.33	     8.367
  38.760         53.33	     8.000
  38.780         50.00	     7.746
  38.800         35.83	     6.557
  38.820         49.17	     7.681
  38.840         35.00	     6.481
  38.860         50.83	     7.810
  38.880         42.50	     7.141
  38.900         52.50	     7.937
  38.920         47.50	     7.550
  38.940         51.67	     7.874
  38.960         48.33	     7.616
  38.980         47.50	     7.550
  39.000         39.17	     6.856
  39.020         42.50	     7.141
  39.040         30.83	     6.083
  39.060         40.83	     7.000
  39.080         28.33	     5.831
  39.100         43.33	     7.211
  39.120         41.67	     7.071
  39.140         59.17	     8.426
  39.160         75.00	     9.487
  39.180         61.67	     8.602
  39.200         40.83	     7.000
  39.220         71.67	     9.274
  39.240         52.50	     7.937
  39.260         60.83	     8.544
  39.280         59.17	     8.426
  39.300         86.67	    10.198
  39.320        106.67	    11.314
  39.340        110.00	    11.489
  39.360        170.00	    14.283
  39.380        150.00	    13.416
  39.400        139.17	    12.923
  39.420        101.67	    11.045
  39.440         73.33	     9.381
  39.460         99.17	    10.909
  39.480        106.67	    11.314
  39.500         74.17	     9.434
  39.520         55.83	     8.185
  39.540         41.67	     7.071
  39.560         40.83	     7.000
  39.580         45.83	     7.416
  39.600         44.17	     7.280
  39.620         50.00	     7.746
  39.640         45.00	     7.348
  39.660         40.00	     6.928
  39.680         45.00	     7.348
  39.700         40.00	     6.928
  39.720         49.17	     7.681
  39.740         46.67	     7.483
  39.760         38.33	     6.782
  39.780         51.67	     7.874
  39.800         47.50	     7.550
  39.820         45.83	     7.416
  39.840         53.33	     8.000
  39.860         37.50	     6.708
  39.880         38.33	     6.782
  39.900         55.83	     8.185
  39.920         42.50	     7.141
  39.940         55.00	     8.124
  39.960         47.50	     7.550
  39.980         40.00	     6.928
  40.000         46.67	     7.483
  40.020         43.33	     7.211
  40.040         39.17	     6.856
  40.060         47.50	     7.550
  40.080         50.00	     7.746
  40.100         54.17	     8.062
  40.120         54.17	     8.062
  40.140         61.67	     8.602
  40.160         67.50	     9.000
  40.180         80.83	     9.849
  40.200         94.17	    10.630
  40.220         79.17	     9.747
  40.240         57.50	     8.307
  40.260         62.50	     8.660
  40.280         56.67	     8.246
  40.300         59.17	     8.426
  40.320         52.50	     7.937
  40.340         55.00	     8.124
  40.360         44.17	     7.280
  40.380         41.67	     7.071
  40.400         52.50	     7.937
  40.420         40.83	     7.000
  40.440         31.67	     6.164
  40.460         31.67	     6.164
  40.480         41.67	     7.071
  40.500         42.50	     7.141
  40.520         48.33	     7.616
  40.540         43.33	     7.211
  40.560         51.67	     7.874
  40.580         44.17	     7.280
  40.600         41.67	     7.071
  40.620         43.33	     7.211
  40.640         38.33	     6.782
  40.660         45.83	     7.416
  40.680         38.33	     6.782
  40.700         60.83	     8.544
  40.720         43.33	     7.211
  40.740         49.17	     7.681
  40.760         46.67	     7.483
  40.780         48.33	     7.616
  40.800         45.00	     7.348
  40.820         47.50	     7.550
  40.840         48.33	     7.616
  40.860         48.33	     7.616
  40.880         39.17	     6.856
  40.900         42.50	     7.141
  40.920         43.33	     7.211
  40.940         40.00	     6.928
  40.960         53.33	     8.000
  40.980         36.67	     6.633
  41.000         47.50	     7.550
  41.020         35.83	     6.557
  41.040         50.00	     7.746
  41.060         35.83	     6.557
  41.080         43.33	     7.211
  41.100         40.83	     7.000
  41.120         43.33	     7.211
  41.140         43.33	     7.211
  41.160         52.50	     7.937
  41.180         46.67	     7.483
  41.200         55.83	     8.185
  41.220         53.33	     8.000
  41.240         47.50	     7.550
  41.260         49.17	     7.681
  41.280         47.50	     7.550
  41.300         43.33	     7.211
  41.320         45.83	     7.416
  41.340         37.50	     6.708
  41.360         42.50	     7.141
  41.380         57.50	     8.307
  41.400         42.50	     7.141
  41.420         58.33	     8.367
  41.440         55.83	     8.185
  41.460         40.83	     7.000
  41.480         59.17	     8.426
  41.500         57.50	     8.307
  41.520         67.50	     9.000
  41.540         52.50	     7.937
  41.560         49.17	     7.681
  41.580         54.17	     8.062
  41.600         66.67	     8.944
  41.620         64.17	     8.775
  41.640         55.83	     8.185
  41.660         58.33	     8.367
  41.680         46.67	     7.483
  41.700         70.00	     9.165
  41.720         58.33	     8.367
  41.740         45.83	     7.416
  41.760         60.83	     8.544
  41.780         60.83	     8.544
  41.800         59.17	     8.426
  41.820         46.67	     7.483
  41.840         58.33	     8.367
  41.860         54.17	     8.062
  41.880         58.33	     8.367
  41.900         47.50	     7.550
  41.920         54.17	     8.062
  41.940         55.00	     8.124
  41.960         52.50	     7.937
  41.980         52.50	     7.937
  42.000         55.00	     8.124
  42.020         46.67	     7.483
  42.040         60.00	     8.485
  42.060         51.67	     7.874
  42.080         61.67	     8.602
  42.100         46.67	     7.483
  42.120         63.33	     8.718
  42.140         74.17	     9.434
  42.160         60.00	     8.485
  42.180         84.17	    10.050
  42.200         96.67	    10.770
  42.220        113.33	    11.662
  42.240        106.67	    11.314
  42.260         91.67	    10.488
  42.280        113.33	    11.662
  42.300        103.33	    11.136
  42.320        136.67	    12.806
  42.340        181.67	    14.765
  42.360        190.00	    15.100
  42.380        180.00	    14.697
  42.400        144.17	    13.153
  42.420         93.33	    10.583
  42.440        109.17	    11.446
  42.460        113.33	    11.662
  42.480        111.67	    11.576
  42.500         99.17	    10.909
  42.520        101.67	    11.045
  42.540         68.33	     9.055
  42.560         75.00	     9.487
  42.580         55.83	     8.185
  42.600         60.00	     8.485
  42.620         75.00	     9.487
  42.640         53.33	     8.000
  42.660         58.33	     8.367
  42.680         58.33	     8.367
  42.700         60.00	     8.485
  42.720         74.17	     9.434
  42.740         50.00	     7.746
  42.760         50.83	     7.810
  42.780         46.67	     7.483
  42.800         44.17	     7.280
  42.820         36.67	     6.633
  42.840         42.50	     7.141
  42.860         50.83	     7.810
  42.880         47.50	     7.550
  42.900         46.67	     7.483
  42.920         50.83	     7.810
  42.940         49.17	     7.681
  42.960         40.83	     7.000
  42.980         47.50	     7.550
  43.000         61.67	     8.602
  43.020         47.50	     7.550
  43.040         41.67	     7.071
  43.060         45.83	     7.416
  43.080         47.50	     7.550
  43.100         57.50	     8.307
  43.120         45.00	     7.348
  43.140         47.50	     7.550
  43.160         69.17	     9.110
  43.180         56.67	     8.246
  43.200         66.67	     8.944
  43.220         68.33	     9.055
  43.240         67.50	     9.000
  43.260         68.33	     9.055
  43.280         60.00	     8.485
  43.300         63.33	     8.718
  43.320         68.33	     9.055
  43.340         81.67	     9.899
  43.360         80.00	     9.798
  43.380         93.33	    10.583
  43.400         95.83	    10.724
  43.420        115.00	    11.747
  43.440        103.33	    11.136
  43.460        109.17	    11.446
  43.480        107.50	    11.358
  43.500        112.50	    11.619
  43.520        120.00	    12.000
  43.540        121.67	    12.083
  43.560        125.00	    12.247
  43.580        125.00	    12.247
  43.600        125.00	    12.247
  43.620        118.33	    11.916
  43.640        125.00	    12.247
  43.660        125.00	    12.247
  43.680        110.83	    11.533
  43.700        117.50	    11.874
  43.720         97.50	    10.817
  43.740        120.83	    12.042
  43.760         82.50	     9.950
  43.780         90.00	    10.392
  43.800         89.17	    10.344
  43.820        108.33	    11.402
  43.840        105.00	    11.225
  43.860         98.33	    10.863
  43.880         95.00	    10.677
  43.900         90.00	    10.392
  43.920        113.33	    11.662
  43.940         85.00	    10.100
  43.960        110.00	    11.489
  43.980        107.50	    11.358
  44.000        112.50	    11.619
  44.020        108.33	    11.402
  44.040        118.33	    11.916
  44.060        102.50	    11.091
  44.080        115.00	    11.747
  44.100        145.00	    13.191
  44.120        143.33	    13.115
  44.140        161.67	    13.928
  44.160        157.50	    13.748
  44.180        147.50	    13.304
  44.200        192.50	    15.199
  44.220        191.67	    15.166
  44.240        181.67	    14.765
  44.260        175.83	    14.526
  44.280        217.50	    16.155
  44.300        211.67	    15.937
  44.320        245.00	    17.146
  44.340        230.83	    16.643
  44.360        260.83	    17.692
  44.380        255.00	    17.493
  44.400        270.00	    18.000
  44.420        275.83	    18.193
  44.440        275.00	    18.166
  44.460        273.33	    18.111
  44.480        254.17	    17.464
  44.500        277.50	    18.248
  44.520        235.83	    16.823
  44.540        241.67	    17.029
  44.560        247.50	    17.234
  44.580        236.67	    16.852
  44.600        211.67	    15.937
  44.620        207.50	    15.780
  44.640        212.50	    15.969
  44.660        189.17	    15.067
  44.680        148.33	    13.342
  44.700        132.50	    12.610
  44.720        137.50	    12.845
  44.740        136.67	    12.806
  44.760        145.00	    13.191
  44.780        135.00	    12.728
  44.800        113.33	    11.662
  44.820        128.33	    12.410
  44.840        149.17	    13.379
  44.860        122.50	    12.124
  44.880        109.17	    11.446
  44.900        126.67	    12.329
  44.920        122.50	    12.124
  44.940        120.83	    12.042
  44.960        121.67	    12.083
  44.980        104.17	    11.180
  45.000         98.33	    10.863
  45.020         83.33	    10.000
  45.040         90.00	    10.392
  45.060         89.17	    10.344
  45.080         91.67	    10.488
  45.100         86.67	    10.198
  45.120         90.00	    10.392
  45.140         76.67	     9.592
  45.160         78.33	     9.695
  45.180         86.67	    10.198
  45.200         75.00	     9.487
  45.220         56.67	     8.246
  45.240         78.33	     9.695
  45.260         70.00	     9.165
  45.280         65.83	     8.888
  45.300         59.17	     8.426
  45.320         63.33	     8.718
  45.340         69.17	     9.110
  45.360         75.00	     9.487
  45.380         79.17	     9.747
  45.400         70.00	     9.165
  45.420         76.67	     9.592
  45.440         70.83	     9.220
  45.460         78.33	     9.695
  45.480        104.17	    11.180
  45.500         76.67	     9.592
  45.520         75.00	     9.487
  45.540         75.00	     9.487
  45.560         77.50	     9.644
  45.580         78.33	     9.695
  45.600         78.33	     9.695
  45.620         75.83	     9.539
  45.640         77.50	     9.644
  45.660         77.50	     9.644
  45.680         96.67	    10.770
  45.700         95.00	    10.677
  45.720         79.17	     9.747
  45.740         54.17	     8.062
  45.760         60.00	     8.485
  45.780         55.00	     8.124
  45.800         65.83	     8.888
  45.820         64.17	     8.775
  45.840         56.67	     8.246
  45.860         53.33	     8.000
  45.880         55.00	     8.124
  45.900         41.67	     7.071
  45.920         45.00	     7.348
  45.940         45.83	     7.416
  45.960         42.50	     7.141
  45.980         44.17	     7.280
  46.000         40.83	     7.000
  46.020         37.50	     6.708
  46.040         40.83	     7.000
  46.060         34.17	     6.403
  46.080         40.00	     6.928
  46.100         48.33	     7.616
  46.120         35.83	     6.557
  46.140         44.17	     7.280
  46.160         35.00	     6.481
  46.180         40.83	     7.000
  46.200         39.17	     6.856
  46.220         30.00	     6.000
  46.240         32.50	     6.245
  46.260         40.83	     7.000
  46.280         39.17	     6.856
  46.300         28.33	     5.831
  46.320         35.00	     6.481
  46.340         34.17	     6.403
  46.360         30.00	     6.000
  46.380         45.83	     7.416
  46.400         32.50	     6.245
  46.420         37.50	     6.708
  46.440         40.83	     7.000
  46.460         37.50	     6.708
  46.480         26.67	     5.657
  46.500         39.17	     6.856
  46.520         36.67	     6.633
  46.540         35.00	     6.481
  46.560         33.33	     6.325
  46.580         40.00	     6.928
  46.600         35.83	     6.557
  46.620         35.83	     6.557
  46.640         46.67	     7.483
  46.660         35.00	     6.481
  46.680         35.83	     6.557
  46.700         26.67	     5.657
  46.720         25.83	     5.568
  46.740         30.00	     6.000
  46.760         29.17	     5.916
  46.780         37.50	     6.708
  46.800         40.00	     6.928
  46.820         33.33	     6.325
  46.840         35.00	     6.481
  46.860         31.67	     6.164
  46.880         31.67	     6.164
  46.900         35.83	     6.557
  46.920         41.67	     7.071
  46.940         33.33	     6.325
  46.960         35.00	     6.481
  46.980         46.67	     7.483
  47.000         41.67	     7.071
  47.020         42.50	     7.141
  47.040         35.83	     6.557
  47.060         42.50	     7.141
  47.080         37.50	     6.708
  47.100         35.83	     6.557
  47.120         35.83	     6.557
  47.140         35.83	     6.557
  47.160         41.67	     7.071
  47.180         42.50	     7.141
  47.200         28.33	     5.831
  47.220         22.50	     5.196
  47.240         35.83	     6.557
  47.260         39.17	     6.856
  47.280         32.50	     6.245
  47.300         29.17	     5.916
  47.320         30.00	     6.000
  47.340         25.83	     5.568
  47.360         34.17	     6.403
  47.380         28.33	     5.831
  47.400         27.50	     5.745
  47.420         23.33	     5.292
  47.440         28.33	     5.831
  47.460         28.33	     5.831
  47.480         27.50	     5.745
  47.500         35.83	     6.557
  47.520         30.00	     6.000
  47.540         24.17	     5.385
  47.560         28.33	     5.831
  47.580         22.50	     5.196
  47.600         25.83	     5.568
  47.620         27.50	     5.745
  47.640         39.17	     6.856
  47.660         35.83	     6.557
  47.680         37.50	     6.708
  47.700         38.33	     6.782
  47.720         30.83	     6.083
  47.740         35.00	     6.481
  47.760         50.83	     7.810
  47.780         33.33	     6.325
  47.800         40.83	     7.000
  47.820         36.67	     6.633
  47.840         43.33	     7.211
  47.860         40.00	     6.928
  47.880         45.00	     7.348
  47.900         45.83	     7.416
  47.920         45.83	     7.416
  47.940         35.00	     6.481
  47.960         28.33	     5.831
  47.980         39.17	     6.856
  48.000         40.83	     7.000
  48.020         62.50	     8.660
  48.040         49.17	     7.681
  48.060         42.50	     7.141
  48.080         50.00	     7.746
  48.100         35.83	     6.557
  48.120         40.00	     6.928
  48.140         40.00	     6.928
  48.160         48.33	     7.616
  48.180         33.33	     6.325
  48.200         50.00	     7.746
  48.220         40.00	     6.928
  48.240         43.33	     7.211
  48.260         39.17	     6.856
  48.280         34.17	     6.403
  48.300         28.33	     5.831
  48.320         33.33	     6.325
  48.340         37.50	     6.708
  48.360         35.83	     6.557
  48.380         26.67	     5.657
  48.400         25.83	     5.568
  48.420         35.00	     6.481
  48.440         40.00	     6.928
  48.460         34.17	     6.403
  48.480         28.33	     5.831
  48.500         30.00	     6.000
  48.520         29.17	     5.916
  48.540         40.83	     7.000
  48.560         30.83	     6.083
  48.580         41.67	     7.071
  48.600         31.67	     6.164
  48.620         29.17	     5.916
  48.640         33.33	     6.325
  48.660         34.17	     6.403
  48.680         21.67	     5.099
  48.700         30.83	     6.083
  48.720         30.00	     6.000
  48.740         35.00	     6.481
  48.760         38.33	     6.782
  48.780         23.33	     5.292
  48.800         35.83	     6.557
  48.820         33.33	     6.325
  48.840         27.50	     5.745
  48.860         38.33	     6.782
  48.880         29.17	     5.916
  48.900         29.17	     5.916
  48.920         35.00	     6.481
  48.940         32.50	     6.245
  48.960         44.17	     7.280
  48.980         44.17	     7.280
  49.000         42.50	     7.141
  49.020         36.67	     6.633
  49.040         40.83	     7.000
  49.060         45.00	     7.348
  49.080         35.83	     6.557
  49.100         43.33	     7.211
  49.120         36.67	     6.633
  49.140         27.50	     5.745
  49.160         37.50	     6.708
  49.180         40.83	     7.000
  49.200         45.00	     7.348
  49.220         37.50	     6.708
  49.240         40.83	     7.000
  49.260         32.50	     6.245
  49.280         40.83	     7.000
  49.300         36.67	     6.633
  49.320         47.50	     7.550
  49.340         33.33	     6.325
  49.360         40.83	     7.000
  49.380         41.67	     7.071
  49.400         32.50	     6.245
  49.420         39.17	     6.856
  49.440         37.50	     6.708
  49.460         50.83	     7.810
  49.480         43.33	     7.211
  49.500         39.17	     6.856
  49.520         40.00	     6.928
  49.540         46.67	     7.483
  49.560         49.17	     7.681
  49.580         42.50	     7.141
  49.600         47.50	     7.550
  49.620         37.50	     6.708
  49.640         59.17	     8.426
  49.660         56.67	     8.246
  49.680         63.33	     8.718
  49.700         50.83	     7.810
  49.720         53.33	     8.000
  49.740         65.83	     8.888
  49.760         61.67	     8.602
  49.780         62.50	     8.660
  49.800         75.00	     9.487
  49.820         66.67	     8.944
  49.840         75.83	     9.539
  49.860         72.50	     9.327
  49.880         77.50	     9.644
  49.900         80.83	     9.849
  49.920         99.17	    10.909
  49.940        127.50	    12.369
  49.960        172.50	    14.387
  49.980        185.00	    14.900
  50.000        165.00	    14.071
  50.020        189.17	    15.067
  50.040        220.83	    16.279
  50.060        261.67	    17.720
  50.080        216.67	    16.125
  50.100        186.67	    14.967
  50.120        140.00	    12.961
  50.140        132.50	    12.610
  50.160        127.50	    12.369
  50.180        129.17	    12.450
  50.200        138.33	    12.884
  50.220        105.83	    11.269
  50.240         80.83	     9.849
  50.260         73.33	     9.381
  50.280         56.67	     8.246
  50.300         64.17	     8.775
  50.320         60.83	     8.544
  50.340         60.83	     8.544
  50.360         58.33	     8.367
  50.380         65.00	     8.832
  50.400         52.50	     7.937
  50.420         63.33	     8.718
  50.440         58.33	     8.367
  50.460         57.50	     8.307
  50.480         67.50	     9.000
  50.500         54.17	     8.062
  50.520         71.67	     9.274
  50.540         77.50	     9.644
  50.560         76.67	     9.592
  50.580         73.33	     9.381
  50.600         75.00	     9.487
  50.620         49.17	     7.681
  50.640         66.67	     8.944
  50.660         55.00	     8.124
  50.680         62.50	     8.660
  50.700         45.83	     7.416
  50.720         47.50	     7.550
  50.740         50.00	     7.746
  50.760         50.83	     7.810
  50.780         47.50	     7.550
  50.800         38.33	     6.782
  50.820         56.67	     8.246
  50.840         38.33	     6.782
  50.860         30.00	     6.000
  50.880         36.67	     6.633
  50.900         32.50	     6.245
  50.920         38.33	     6.782
  50.940         45.83	     7.416
  50.960         31.67	     6.164
  50.980         36.67	     6.633
  51.000         37.50	     6.708
  51.020         48.33	     7.616
  51.040         53.33	     8.000
  51.060         57.50	     8.307
  51.080         48.33	     7.616
  51.100         39.17	     6.856
  51.120         40.83	     7.000
  51.140         39.17	     6.856
  51.160         40.83	     7.000
  51.180         47.50	     7.550
  51.200         40.00	     6.928
  51.220         42.50	     7.141
  51.240         45.00	     7.348
  51.260         42.50	     7.141
  51.280         38.33	     6.782
  51.300         36.67	     6.633
  51.320         36.67	     6.633
  51.340         34.17	     6.403
  51.360         30.00	     6.000
  51.380         41.67	     7.071
  51.400         32.50	     6.245
  51.420         28.33	     5.831
  51.440         30.83	     6.083
  51.460         27.50	     5.745
  51.480         25.00	     5.477
  51.500         34.17	     6.403
  51.520         33.33	     6.325
  51.540         34.17	     6.403
  51.560         29.17	     5.916
  51.580         30.00	     6.000
  51.600         25.00	     5.477
  51.620         26.67	     5.657
  51.640         18.33	     4.690
  51.660         25.00	     5.477
  51.680         31.67	     6.164
  51.700         30.00	     6.000
  51.720         32.50	     6.245
  51.740         30.83	     6.083
  51.760         30.83	     6.083
  51.780         24.17	     5.385
  51.800         27.50	     5.745
  51.820         26.67	     5.657
  51.840         41.67	     7.071
  51.860         41.67	     7.071
  51.880         30.00	     6.000
  51.900         29.17	     5.916
  51.920         39.17	     6.856
  51.940         38.33	     6.782
  51.960         29.17	     5.916
  51.980         35.00	     6.481
  52.000         43.33	     7.211
  52.020         36.67	     6.633
  52.040         36.67	     6.633
  52.060         38.33	     6.782
  52.080         36.67	     6.633
  52.100         40.00	     6.928
  52.120         34.17	     6.403
  52.140         37.50	     6.708
  52.160         33.33	     6.325
  52.180         41.67	     7.071
  52.200         30.00	     6.000
  52.220         45.83	     7.416
  52.240         46.67	     7.483
  52.260         34.17	     6.403
  52.280         51.67	     7.874
  52.300         40.00	     6.928
  52.320         35.00	     6.481
  52.340         30.83	     6.083
  52.360         30.83	     6.083
  52.380         37.50	     6.708
  52.400         30.00	     6.000
  52.420         42.50	     7.141
  52.440         46.67	     7.483
  52.460         31.67	     6.164
  52.480         33.33	     6.325
  52.500         21.67	     5.099
  52.520         32.50	     6.245
  52.540         48.33	     7.616
  52.560         34.17	     6.403
  52.580         25.83	     5.568
  52.600         30.83	     6.083
  52.620         38.33	     6.782
  52.640         39.17	     6.856
  52.660         40.00	     6.928
  52.680         37.50	     6.708
  52.700         45.83	     7.416
  52.720         35.00	     6.481
  52.740         30.83	     6.083
  52.760         40.00	     6.928
  52.780         40.83	     7.000
  52.800         34.17	     6.403
  52.820         33.33	     6.325
  52.840         42.50	     7.141
  52.860         40.00	     6.928
  52.880         33.33	     6.325
  52.900         34.17	     6.403
  52.920         34.17	     6.403
  52.940         38.33	     6.782
  52.960         34.17	     6.403
  52.980         45.00	     7.348
  53.000         41.67	     7.071
  53.020         45.83	     7.416
  53.040         40.00	     6.928
  53.060         36.67	     6.633
  53.080         43.33	     7.211
  53.100         54.17	     8.062
  53.120         37.50	     6.708
  53.140         35.83	     6.557
  53.160         46.67	     7.483
  53.180         31.67	     6.164
  53.200         41.67	     7.071
  53.220         43.33	     7.211
  53.240         29.17	     5.916
  53.260         40.83	     7.000
  53.280         37.50	     6.708
  53.300         30.00	     6.000
  53.320         42.50	     7.141
  53.340         35.00	     6.481
  53.360         32.50	     6.245
  53.380         35.83	     6.557
  53.400         35.83	     6.557
  53.420         31.67	     6.164
  53.440         30.83	     6.083
  53.460         33.33	     6.325
  53.480         34.17	     6.403
  53.500         30.83	     6.083
  53.520         37.50	     6.708
  53.540         44.17	     7.280
  53.560         30.00	     6.000
  53.580         20.83	     5.000
  53.600         35.00	     6.481
  53.620         39.17	     6.856
  53.640         40.00	     6.928
  53.660         28.33	     5.831
  53.680         32.50	     6.245
  53.700         36.67	     6.633
  53.720         28.33	     5.831
  53.740         27.50	     5.745
  53.760         31.67	     6.164
  53.780         25.83	     5.568
  53.800         36.67	     6.633
  53.820         34.17	     6.403
  53.840         21.67	     5.099
  53.860         24.17	     5.385
  53.880         26.67	     5.657
  53.900         32.50	     6.245
  53.920         27.50	     5.745
  53.940         18.33	     4.690
  53.960         26.67	     5.657
  53.980         23.33	     5.292
  54.000         36.67	     6.633
  54.020         30.83	     6.083
  54.040         31.67	     6.164
  54.060         34.17	     6.403
  54.080         30.83	     6.083
  54.100         29.17	     5.916
  54.120         33.33	     6.325
  54.140         37.50	     6.708
  54.160         38.33	     6.782
  54.180         37.50	     6.708
  54.200         29.17	     5.916
  54.220         48.33	     7.616
  54.240         39.17	     6.856
  54.260         35.00	     6.481
  54.280         28.33	     5.831
  54.300         26.67	     5.657
  54.320         31.67	     6.164
  54.340         38.33	     6.782
  54.360         44.17	     7.280
  54.380         38.33	     6.782
  54.400         45.00	     7.348
  54.420         39.17	     6.856
  54.440         35.00	     6.481
  54.460         45.83	     7.416
  54.480         39.17	     6.856
  54.500         30.83	     6.083
  54.520         48.33	     7.616
  54.540         37.50	     6.708
  54.560         43.33	     7.211
  54.580         40.00	     6.928
  54.600         45.83	     7.416
  54.620         55.00	     8.124
  54.640         57.50	     8.307
  54.660         55.00	     8.124
  54.680         60.00	     8.485
  54.700         77.50	     9.644
  54.720        105.00	    11.225
  54.740        116.67	    11.832
  54.760        101.67	    11.045
  54.780         70.00	     9.165
  54.800         66.67	     8.944
  54.820         55.83	     8.185
  54.840         60.83	     8.544
  54.860         65.00	     8.832
  54.880         78.33	     9.695
  54.900         59.17	     8.426
  54.920         58.33	     8.367
  54.940         43.33	     7.211
  54.960         40.00	     6.928
  54.980         38.33	     6.782
  55.000         36.67	     6.633
  55.020         45.00	     7.348
  55.040         35.00	     6.481
  55.060         52.50	     7.937
  55.080         49.17	     7.681
  55.100         55.00	     8.124
  55.120         49.17	     7.681
  55.140         49.17	     7.681
  55.160         47.50	     7.550
  55.180         58.33	     8.367
  55.200         54.17	     8.062
  55.220         54.17	     8.062
  55.240         52.50	     7.937
  55.260         51.67	     7.874
  55.280         45.00	     7.348
  55.300         38.33	     6.782
  55.320         54.17	     8.062
  55.340         49.17	     7.681
  55.360         55.83	     8.185
  55.380         50.00	     7.746
  55.400         40.83	     7.000
  55.420         51.67	     7.874
  55.440         39.17	     6.856
  55.460         41.67	     7.071
  55.480         47.50	     7.550
  55.500         47.50	     7.550
  55.520         32.50	     6.245
  55.540         42.50	     7.141
  55.560         35.00	     6.481
  55.580         54.17	     8.062
  55.600         46.67	     7.483
  55.620         43.33	     7.211
  55.640         48.33	     7.616
  55.660         49.17	     7.681
  55.680         52.50	     7.937
  55.700         52.50	     7.937
  55.720         48.33	     7.616
  55.740         55.00	     8.124
  55.760         46.67	     7.483
  55.780         55.00	     8.124
  55.800         49.17	     7.681
  55.820         46.67	     7.483
  55.840         65.83	     8.888
  55.860         47.50	     7.550
  55.880         48.33	     7.616
  55.900         40.83	     7.000
  55.920         47.50	     7.550
  55.940         36.67	     6.633
  55.960         40.00	     6.928
  55.980         40.83	     7.000
  56.000         41.67	     7.071
  56.020         44.17	     7.280
  56.040         36.67	     6.633
  56.060         38.33	     6.782
  56.080         45.00	     7.348
  56.100         37.50	     6.708
  56.120         33.33	     6.325
  56.140         37.50	     6.708
  56.160         40.83	     7.000
  56.180         40.00	     6.928
  56.200         40.00	     6.928
  56.220         32.50	     6.245
  56.240         25.00	     5.477
  56.260         41.67	     7.071
  56.280         30.83	     6.083
  56.300         22.50	     5.196
  56.320         35.00	     6.481
  56.340         35.00	     6.481
  56.360         30.83	     6.083
  56.380         30.83	     6.083
  56.400         38.33	     6.782
  56.420         41.67	     7.071
  56.440         25.00	     5.477
  56.460         21.67	     5.099
  56.480         37.50	     6.708
  56.500         33.33	     6.325
  56.520         40.83	     7.000
  56.540         33.33	     6.325
  56.560         34.17	     6.403
  56.580         39.17	     6.856
  56.600         30.83	     6.083
  56.620         26.67	     5.657
  56.640         43.33	     7.211
  56.660         45.00	     7.348
  56.680         34.17	     6.403
  56.700         43.33	     7.211
  56.720         36.67	     6.633
  56.740         38.33	     6.782
  56.760         23.33	     5.292
  56.780         30.83	     6.083
  56.800         27.50	     5.745
  56.820         35.00	     6.481
  56.840         41.67	     7.071
  56.860         36.67	     6.633
  56.880         40.00	     6.928
  56.900         35.83	     6.557
  56.920         27.50	     5.745
  56.940         35.83	     6.557
  56.960         31.67	     6.164
  56.980         45.00	     7.348
  57.000         24.17	     5.385
  57.020         34.17	     6.403
  57.040         35.00	     6.481
  57.060         32.50	     6.245
  57.080         35.83	     6.557
  57.100         35.00	     6.481
  57.120         32.50	     6.245
  57.140         31.67	     6.164
  57.160         24.17	     5.385
  57.180         29.17	     5.916
  57.200         34.17	     6.403
  57.220         33.33	     6.325
  57.240         33.33	     6.325
  57.260         23.33	     5.292
  57.280         24.17	     5.385
  57.300         26.67	     5.657
  57.320         39.17	     6.856
  57.340         35.00	     6.481
  57.360         30.00	     6.000
  57.380         30.83	     6.083
  57.400         30.00	     6.000
  57.420         32.50	     6.245
  57.440         39.17	     6.856
  57.460         38.33	     6.782
  57.480         36.67	     6.633
  57.500         35.83	     6.557
  57.520         34.17	     6.403
  57.540         44.17	     7.280
  57.560         30.83	     6.083
  57.580         25.83	     5.568
  57.600         36.67	     6.633
  57.620         39.17	     6.856
  57.640         40.00	     6.928
  57.660         41.67	     7.071
  57.680         42.50	     7.141
  57.700         39.17	     6.856
  57.720         44.17	     7.280
  57.740         26.67	     5.657
  57.760         38.33	     6.782
  57.780         34.17	     6.403
  57.800         29.17	     5.916
  57.820         40.83	     7.000
  57.840         40.00	     6.928
  57.860         30.83	     6.083
  57.880         26.67	     5.657
  57.900         26.67	     5.657
  57.920         30.83	     6.083
  57.940         30.00	     6.000
  57.960         31.67	     6.164
  57.980         35.00	     6.481
  58.000         33.33	     6.325
  58.020         29.17	     5.916
  58.040         33.33	     6.325
  58.060         33.33	     6.325
  58.080         30.00	     6.000
  58.100         37.50	     6.708
  58.120         41.67	     7.071
  58.140         30.00	     6.000
  58.160         33.33	     6.325
  58.180         30.00	     6.000
  58.200         39.17	     6.856
  58.220         41.67	     7.071
  58.240         32.50	     6.245
  58.260         35.00	     6.481
  58.280         33.33	     6.325
  58.300         35.00	     6.481
  58.320         36.67	     6.633
  58.340         34.17	     6.403
  58.360         41.67	     7.071
  58.380         36.67	     6.633
  58.400         32.50	     6.245
  58.420         29.17	     5.916
  58.440         49.17	     7.681
  58.460         49.17	     7.681
  58.480         40.00	     6.928
  58.500         32.50	     6.245
  58.520         42.50	     7.141
  58.540         50.00	     7.746
  58.560         43.33	     7.211
  58.580         47.50	     7.550
  58.600         61.67	     8.602
  58.620         43.33	     7.211
  58.640         41.67	     7.071
  58.660         46.67	     7.483
  58.680         46.67	     7.483
  58.700         39.17	     6.856
  58.720         47.50	     7.550
  58.740         50.83	     7.810
  58.760         46.67	     7.483
  58.780         42.50	     7.141
  58.800         32.50	     6.245
  58.820         43.33	     7.211
  58.840         39.17	     6.856
  58.860         41.67	     7.071
  58.880         49.17	     7.681
  58.900         35.83	     6.557
  58.920         51.67	     7.874
  58.940         45.83	     7.416
  58.960         33.33	     6.325
  58.980         50.83	     7.810
  59.000         62.50	     8.660
  59.020         54.17	     8.062
  59.040         46.67	     7.483
  59.060         46.67	     7.483
  59.080         41.67	     7.071
  59.100         45.00	     7.348
  59.120         39.17	     6.856
  59.140         47.50	     7.550
  59.160         41.67	     7.071
  59.180         40.00	     6.928
  59.200         50.83	     7.810
  59.220         45.83	     7.416
  59.240         45.83	     7.416
  59.260         36.67	     6.633
  59.280         47.50	     7.550
  59.300         41.67	     7.071
  59.320         27.50	     5.745
  59.340         37.50	     6.708
  59.360         35.83	     6.557
  59.380         31.67	     6.164
  59.400         27.50	     5.745
  59.420         37.50	     6.708
  59.440         38.33	     6.782
  59.460         45.83	     7.416
  59.480         42.50	     7.141
  59.500         52.50	     7.937
  59.520         36.67	     6.633
  59.540         54.17	     8.062
  59.560         43.33	     7.211
  59.580         54.17	     8.062
  59.600         60.00	     8.485
  59.620         42.50	     7.141
  59.640         60.83	     8.544
  59.660         55.83	     8.185
  59.680         65.83	     8.888
  59.700         88.33	    10.296
  59.720         90.83	    10.440
  59.740         98.33	    10.863
  59.760        102.50	    11.091
  59.780        135.00	    12.728
  59.800        131.67	    12.570
  59.820        139.17	    12.923
  59.840        156.67	    13.711
  59.860        169.17	    14.248
  59.880        123.33	    12.166
  59.900        104.17	    11.180
  59.920         95.83	    10.724
  59.940         91.67	    10.488
  59.960         71.67	     9.274
  59.980        102.50	    11.091
  60.000         99.17	    10.909
  60.020         99.17	    10.909
  60.040         72.50	     9.327
  60.060         78.33	     9.695
  60.080         51.67	     7.874
  60.100         41.67	     7.071
  60.120         49.17	     7.681
  60.140         45.83	     7.416
  60.160         51.67	     7.874
  60.180         35.83	     6.557
  60.200         50.00	     7.746
  60.220         56.67	     8.246
  60.240         40.83	     7.000
  60.260         49.17	     7.681
  60.280         52.50	     7.937
  60.300         38.33	     6.782
  60.320         36.67	     6.633
  60.340         44.17	     7.280
  60.360         54.17	     8.062
  60.380         40.00	     6.928
  60.400         65.83	     8.888
  60.420         45.83	     7.416
  60.440         37.50	     6.708
  60.460         48.33	     7.616
  60.480         44.17	     7.280
  60.500         61.67	     8.602
  60.520         45.83	     7.416
  60.540         46.67	     7.483
  60.560         38.33	     6.782
  60.580         42.50	     7.141
  60.600         35.00	     6.481
  60.620         32.50	     6.245
  60.640         45.83	     7.416
  60.660         35.00	     6.481
  60.680         43.33	     7.211
  60.700         44.17	     7.280
  60.720         52.50	     7.937
  60.740         40.83	     7.000
  60.760         46.67	     7.483
  60.780         51.67	     7.874
  60.800         49.17	     7.681
  60.820         50.00	     7.746
  60.840         48.33	     7.616
  60.860         42.50	     7.141
  60.880         45.00	     7.348
  60.900         59.17	     8.426
  60.920         52.50	     7.937
  60.940         43.33	     7.211
  60.960         60.00	     8.485
  60.980         64.17	     8.775
  61.000         52.50	     7.937
  61.020         50.00	     7.746
  61.040         47.50	     7.550
  61.060         39.17	     6.856
  61.080         48.33	     7.616
  61.100         40.00	     6.928
  61.120         54.17	     8.062
  61.140         44.17	     7.280
  61.160         45.83	     7.416
  61.180         60.00	     8.485
  61.200         55.00	     8.124
  61.220         58.33	     8.367
  61.240         54.17	     8.062
  61.260         50.83	     7.810
  61.280         60.00	     8.485
  61.300         67.50	     9.000
  61.320         62.50	     8.660
  61.340         60.83	     8.544
  61.360         65.00	     8.832
  61.380         80.00	     9.798
  61.400         64.17	     8.775
  61.420         80.83	     9.849
  61.440         68.33	     9.055
  61.460         65.83	     8.888
  61.480         68.33	     9.055
  61.500         60.00	     8.485
  61.520         64.17	     8.775
  61.540         69.17	     9.110
  61.560         72.50	     9.327
  61.580         66.67	     8.944
  61.600         65.83	     8.888
  61.620         59.17	     8.426
  61.640         55.00	     8.124
  61.660         69.17	     9.110
  61.680         55.83	     8.185
  61.700         66.67	     8.944
  61.720         55.83	     8.185
  61.740         58.33	     8.367
  61.760         51.67	     7.874
  61.780         55.00	     8.124
  61.800         44.17	     7.280
  61.820         37.50	     6.708
  61.840         44.17	     7.280
  61.860         55.83	     8.185
  61.880         40.83	     7.000
  61.900         42.50	     7.141
  61.920         33.33	     6.325
  61.940         36.67	     6.633
  61.960         29.17	     5.916
  61.980         31.67	     6.164
  62.000         50.00	     7.746
  62.020         38.33	     6.782
  62.040         46.67	     7.483
  62.060         26.67	     5.657
  62.080         40.00	     6.928
  62.100         42.50	     7.141
  62.120         35.83	     6.557
  62.140         29.17	     5.916
  62.160         21.67	     5.099
  62.180         33.33	     6.325
  62.200         39.17	     6.856
  62.220         30.83	     6.083
  62.240         40.83	     7.000
  62.260         30.00	     6.000
  62.280         26.67	     5.657
  62.300         24.17	     5.385
  62.320         36.67	     6.633
  62.340         27.50	     5.745
  62.360         38.33	     6.782
  62.380         37.50	     6.708
  62.400         34.17	     6.403
  62.420         31.67	     6.164
  62.440         34.17	     6.403
  62.460         27.50	     5.745
  62.480         35.83	     6.557
  62.500         30.00	     6.000
  62.520         30.83	     6.083
  62.540         37.50	     6.708
  62.560         22.50	     5.196
  62.580         31.67	     6.164
  62.600         26.67	     5.657
  62.620         35.83	     6.557
  62.640         35.00	     6.481
  62.660         34.17	     6.403
  62.680         36.67	     6.633
  62.700         40.00	     6.928
  62.720         35.83	     6.557
  62.740         41.67	     7.071
  62.760         27.50	     5.745
  62.780         34.17	     6.403
  62.800         23.33	     5.292
  62.820         19.17	     4.796
  62.840         35.00	     6.481
  62.860         33.33	     6.325
  62.880         28.33	     5.831
  62.900         27.50	     5.745
  62.920         32.50	     6.245
  62.940         29.17	     5.916
  62.960         25.00	     5.477
  62.980         30.83	     6.083
  63.000         35.00	     6.481
  63.020         24.17	     5.385
  63.040         25.00	     5.477
  63.060         43.33	     7.211
  63.080         36.67	     6.633
  63.100         38.33	     6.782
  63.120         28.33	     5.831
  63.140         37.50	     6.708
  63.160         32.50	     6.245
  63.180         30.83	     6.083
  63.200         26.67	     5.657
  63.220         33.33	     6.325
  63.240         36.67	     6.633
  63.260         30.83	     6.083
  63.280         35.83	     6.557
  63.300         34.17	     6.403
  63.320         35.00	     6.481
  63.340         40.00	     6.928
  63.360         39.17	     6.856
  63.380         30.83	     6.083
  63.400         36.67	     6.633
  63.420         32.50	     6.245
  63.440         32.50	     6.245
  63.460         30.83	     6.083
  63.480         33.33	     6.325
  63.500         30.83	     6.083
  63.520         26.67	     5.657
  63.540         40.00	     6.928
  63.560         33.33	     6.325
  63.580         43.33	     7.211
  63.600         27.50	     5.745
  63.620         40.83	     7.000
  63.640         38.33	     6.782
  63.660         44.17	     7.280
  63.680         44.17	     7.280
  63.700         50.83	     7.810
  63.720         52.50	     7.937
  63.740         50.00	     7.746
  63.760         40.83	     7.000
  63.780         40.83	     7.000
  63.800         47.50	     7.550
  63.820         44.17	     7.280
  63.840         40.00	     6.928
  63.860         56.67	     8.246
  63.880         60.00	     8.485
  63.900         60.00	     8.485
  63.920         60.83	     8.544
  63.940         50.83	     7.810
  63.960         61.67	     8.602
  63.980         35.00	     6.481
  64.000         55.00	     8.124
  64.020         49.17	     7.681
  64.040         45.00	     7.348
  64.060         47.50	     7.550
  64.080         49.17	     7.681
  64.100         55.83	     8.185
  64.120         45.83	     7.416
  64.140         45.83	     7.416
  64.160         49.17	     7.681
  64.180         40.83	     7.000
  64.200         47.50	     7.550
  64.220         37.50	     6.708
  64.240         41.67	     7.071
  64.260         33.33	     6.325
  64.280         25.83	     5.568
  64.300         33.33	     6.325
  64.320         30.00	     6.000
  64.340         33.33	     6.325
  64.360         43.33	     7.211
  64.380         45.00	     7.348
  64.400         43.33	     7.211
  64.420         47.50	     7.550
  64.440         27.50	     5.745
  64.460         31.67	     6.164
  64.480         34.17	     6.403
  64.500         25.83	     5.568
  64.520         31.67	     6.164
  64.540         25.83	     5.568
  64.560         46.67	     7.483
  64.580         38.33	     6.782
  64.600         43.33	     7.211
  64.620         38.33	     6.782
  64.640         46.67	     7.483
  64.660         48.33	     7.616
  64.680         60.83	     8.544
  64.700         42.50	     7.141
  64.720         49.17	     7.681
  64.740         36.67	     6.633
  64.760         35.00	     6.481
  64.780         33.33	     6.325
  64.800         52.50	     7.937
  64.820         35.00	     6.481
  64.840         46.67	     7.483
  64.860         51.67	     7.874
  64.880         33.33	     6.325
  64.900         35.83	     6.557
  64.920         39.17	     6.856
  64.940         44.17	     7.280
  64.960         42.50	     7.141
  64.980         41.67	     7.071
  65.000         49.17	     7.681
