
Filename:
	C:\Program Files\Thermo Electron\WinXRD\Datafiles\F_HERMAN\GEO\G42_RT.raw

File Created:
	February 18, 2020 - 10:20 PM

Specimen Id:
	G42_RT

Specimen Name:
	

Specimen Description:
	

Comment:
Scan Type: 2Theta Scan
Start Angle: 3 deg.
Stop Angle: 65 deg.
Num Points: 3101
Step Size: 0.02 deg.
Scan Rate: 1.000000
Scan Mode: Continuous
Wavelength: 1.540562
\Kalpha1: 1.540562	\Kalpha2: 1.544390	\Kbeta: 1.392218

Optics:
		Detector:
			 Type: Fixed Slits
		Tube: 
			 Type: Fixed Slits


Datas:
 Pos [deg]       Rate [CPS]      ESD [-]

Range 1 ---> Iteration 1
   3.000        439.17	    22.956
   3.020        424.17	    22.561
   3.040        442.50	    23.043
   3.060        467.50	    23.685
   3.080        430.00	    22.716
   3.100        410.00	    22.181
   3.120        463.33	    23.580
   3.140        426.67	    22.627
   3.160        405.83	    22.068
   3.180        440.00	    22.978
   3.200        423.33	    22.539
   3.220        387.50	    21.564
   3.240        436.67	    22.891
   3.260        431.67	    22.760
   3.280        387.50	    21.564
   3.300        413.33	    22.271
   3.320        405.00	    22.045
   3.340        410.83	    22.204
   3.360        428.33	    22.672
   3.380        415.83	    22.338
   3.400        354.17	    20.616
   3.420        380.83	    21.378
   3.440        410.00	    22.181
   3.460        375.00	    21.213
   3.480        382.50	    21.424
   3.500        368.33	    21.024
   3.520        403.33	    22.000
   3.540        354.17	    20.616
   3.560        354.17	    20.616
   3.580        355.83	    20.664
   3.600        365.83	    20.952
   3.620        353.33	    20.591
   3.640        368.33	    21.024
   3.660        349.17	    20.469
   3.680        352.50	    20.567
   3.700        363.33	    20.881
   3.720        324.17	    19.723
   3.740        369.17	    21.048
   3.760        375.83	    21.237
   3.780        345.83	    20.372
   3.800        351.67	    20.543
   3.820        320.83	    19.621
   3.840        347.50	    20.421
   3.860        354.17	    20.616
   3.880        320.83	    19.621
   3.900        352.50	    20.567
   3.920        332.50	    19.975
   3.940        308.33	    19.235
   3.960        329.17	    19.875
   3.980        305.83	    19.157
   4.000        307.50	    19.209
   4.020        334.17	    20.025
   4.040        302.50	    19.053
   4.060        330.83	    19.925
   4.080        305.83	    19.157
   4.100        328.33	    19.849
   4.120        296.67	    18.868
   4.140        304.17	    19.105
   4.160        301.67	    19.026
   4.180        298.33	    18.921
   4.200        316.67	    19.494
   4.220        305.83	    19.157
   4.240        271.67	    18.055
   4.260        305.83	    19.157
   4.280        282.50	    18.412
   4.300        286.67	    18.547
   4.320        311.67	    19.339
   4.340        299.17	    18.947
   4.360        310.00	    19.287
   4.380        280.00	    18.330
   4.400        290.83	    18.682
   4.420        298.33	    18.921
   4.440        260.83	    17.692
   4.460        277.50	    18.248
   4.480        266.67	    17.889
   4.500        248.33	    17.263
   4.520        290.00	    18.655
   4.540        253.33	    17.436
   4.560        273.33	    18.111
   4.580        289.17	    18.628
   4.600        284.17	    18.466
   4.620        290.83	    18.682
   4.640        280.00	    18.330
   4.660        281.67	    18.385
   4.680        286.67	    18.547
   4.700        246.67	    17.205
   4.720        279.17	    18.303
   4.740        253.33	    17.436
   4.760        252.50	    17.407
   4.780        280.83	    18.358
   4.800        238.33	    16.912
   4.820        264.17	    17.804
   4.840        250.00	    17.321
   4.860        244.17	    17.117
   4.880        283.33	    18.439
   4.900        255.00	    17.493
   4.920        207.50	    15.780
   4.940        247.50	    17.234
   4.960        254.17	    17.464
   4.980        257.50	    17.578
   5.000        232.50	    16.703
   5.020        240.00	    16.971
   5.040        231.67	    16.673
   5.060        232.50	    16.703
   5.080        229.17	    16.583
   5.100        228.33	    16.553
   5.120        220.00	    16.248
   5.140        247.50	    17.234
   5.160        233.33	    16.733
   5.180        255.00	    17.493
   5.200        216.67	    16.125
   5.220        253.33	    17.436
   5.240        244.17	    17.117
   5.260        214.17	    16.031
   5.280        250.83	    17.349
   5.300        249.17	    17.292
   5.320        231.67	    16.673
   5.340        215.83	    16.093
   5.360        240.83	    17.000
   5.380        221.67	    16.310
   5.400        221.67	    16.310
   5.420        210.83	    15.906
   5.440        228.33	    16.553
   5.460        220.00	    16.248
   5.480        225.83	    16.462
   5.500        225.00	    16.432
   5.520        231.67	    16.673
   5.540        233.33	    16.733
   5.560        226.67	    16.492
   5.580        221.67	    16.310
   5.600        245.83	    17.176
   5.620        226.67	    16.492
   5.640        236.67	    16.852
   5.660        222.50	    16.340
   5.680        205.83	    15.716
   5.700        209.17	    15.843
   5.720        230.00	    16.613
   5.740        224.17	    16.401
   5.760        235.83	    16.823
   5.780        224.17	    16.401
   5.800        203.33	    15.620
   5.820        221.67	    16.310
   5.840        215.83	    16.093
   5.860        215.83	    16.093
   5.880        222.50	    16.340
   5.900        209.17	    15.843
   5.920        229.17	    16.583
   5.940        213.33	    16.000
   5.960        260.00	    17.664
   5.980        226.67	    16.492
   6.000        227.50	    16.523
   6.020        225.83	    16.462
   6.040        241.67	    17.029
   6.060        257.50	    17.578
   6.080        275.83	    18.193
   6.100        252.50	    17.407
   6.120        265.00	    17.833
   6.140        275.00	    18.166
   6.160        286.67	    18.547
   6.180        305.83	    19.157
   6.200        255.00	    17.493
   6.220        232.50	    16.703
   6.240        215.83	    16.093
   6.260        218.33	    16.186
   6.280        187.50	    15.000
   6.300        190.00	    15.100
   6.320        207.50	    15.780
   6.340        198.33	    15.427
   6.360        190.00	    15.100
   6.380        180.83	    14.731
   6.400        196.67	    15.362
   6.420        195.00	    15.297
   6.440        184.17	    14.866
   6.460        214.17	    16.031
   6.480        195.00	    15.297
   6.500        166.67	    14.142
   6.520        202.50	    15.588
   6.540        172.50	    14.387
   6.560        189.17	    15.067
   6.580        197.50	    15.395
   6.600        221.67	    16.310
   6.620        182.50	    14.799
   6.640        207.50	    15.780
   6.660        180.00	    14.697
   6.680        188.33	    15.033
   6.700        183.33	    14.832
   6.720        183.33	    14.832
   6.740        180.00	    14.697
   6.760        189.17	    15.067
   6.780        180.83	    14.731
   6.800        206.67	    15.748
   6.820        165.00	    14.071
   6.840        197.50	    15.395
   6.860        176.67	    14.560
   6.880        190.00	    15.100
   6.900        169.17	    14.248
   6.920        177.50	    14.595
   6.940        181.67	    14.765
   6.960        197.50	    15.395
   6.980        183.33	    14.832
   7.000        180.83	    14.731
   7.020        177.50	    14.595
   7.040        175.00	    14.491
   7.060        166.67	    14.142
   7.080        173.33	    14.422
   7.100        171.67	    14.353
   7.120        173.33	    14.422
   7.140        152.50	    13.528
   7.160        175.00	    14.491
   7.180        170.00	    14.283
   7.200        190.00	    15.100
   7.220        173.33	    14.422
   7.240        195.83	    15.330
   7.260        186.67	    14.967
   7.280        165.00	    14.071
   7.300        175.00	    14.491
   7.320        154.17	    13.601
   7.340        163.33	    14.000
   7.360        170.83	    14.318
   7.380        184.17	    14.866
   7.400        168.33	    14.213
   7.420        183.33	    14.832
   7.440        177.50	    14.595
   7.460        135.00	    12.728
   7.480        158.33	    13.784
   7.500        143.33	    13.115
   7.520        162.50	    13.964
   7.540        152.50	    13.528
   7.560        177.50	    14.595
   7.580        167.50	    14.177
   7.600        151.67	    13.491
   7.620        174.17	    14.457
   7.640        156.67	    13.711
   7.660        169.17	    14.248
   7.680        157.50	    13.748
   7.700        165.00	    14.071
   7.720        159.17	    13.820
   7.740        150.83	    13.454
   7.760        141.67	    13.038
   7.780        158.33	    13.784
   7.800        175.00	    14.491
   7.820        146.67	    13.266
   7.840        150.83	    13.454
   7.860        163.33	    14.000
   7.880        163.33	    14.000
   7.900        167.50	    14.177
   7.920        145.83	    13.229
   7.940        167.50	    14.177
   7.960        141.67	    13.038
   7.980        148.33	    13.342
   8.000        157.50	    13.748
   8.020        155.00	    13.638
   8.040        150.83	    13.454
   8.060        158.33	    13.784
   8.080        158.33	    13.784
   8.100        147.50	    13.304
   8.120        151.67	    13.491
   8.140        134.17	    12.689
   8.160        158.33	    13.784
   8.180        155.83	    13.675
   8.200        176.67	    14.560
   8.220        154.17	    13.601
   8.240        151.67	    13.491
   8.260        160.83	    13.892
   8.280        144.17	    13.153
   8.300        144.17	    13.153
   8.320        148.33	    13.342
   8.340        145.83	    13.229
   8.360        164.17	    14.036
   8.380        146.67	    13.266
   8.400        140.00	    12.961
   8.420        146.67	    13.266
   8.440        153.33	    13.565
   8.460        143.33	    13.115
   8.480        149.17	    13.379
   8.500        160.00	    13.856
   8.520        155.83	    13.675
   8.540        168.33	    14.213
   8.560        166.67	    14.142
   8.580        170.83	    14.318
   8.600        175.83	    14.526
   8.620        199.17	    15.460
   8.640        186.67	    14.967
   8.660        165.83	    14.107
   8.680        195.83	    15.330
   8.700        215.00	    16.062
   8.720        213.33	    16.000
   8.740        252.50	    17.407
   8.760        290.00	    18.655
   8.780        370.00	    21.071
   8.800        490.83	    24.269
   8.820        537.50	    25.397
   8.840        489.17	    24.228
   8.860        315.83	    19.468
   8.880        190.00	    15.100
   8.900        165.83	    14.107
   8.920        166.67	    14.142
   8.940        142.50	    13.077
   8.960        151.67	    13.491
   8.980        136.67	    12.806
   9.000        155.83	    13.675
   9.020        156.67	    13.711
   9.040        145.00	    13.191
   9.060        140.83	    13.000
   9.080        146.67	    13.266
   9.100        140.83	    13.000
   9.120        144.17	    13.153
   9.140        145.00	    13.191
   9.160        149.17	    13.379
   9.180        131.67	    12.570
   9.200        138.33	    12.884
   9.220        136.67	    12.806
   9.240        135.83	    12.767
   9.260        135.83	    12.767
   9.280        134.17	    12.689
   9.300        117.50	    11.874
   9.320        130.00	    12.490
   9.340        139.17	    12.923
   9.360        139.17	    12.923
   9.380        156.67	    13.711
   9.400        160.00	    13.856
   9.420        142.50	    13.077
   9.440        125.00	    12.247
   9.460        139.17	    12.923
   9.480        124.17	    12.207
   9.500         97.50	    10.817
   9.520        120.83	    12.042
   9.540        120.83	    12.042
   9.560        131.67	    12.570
   9.580        115.00	    11.747
   9.600        114.17	    11.705
   9.620        118.33	    11.916
   9.640        116.67	    11.832
   9.660        126.67	    12.329
   9.680        119.17	    11.958
   9.700        109.17	    11.446
   9.720        132.50	    12.610
   9.740        134.17	    12.689
   9.760        155.83	    13.675
   9.780        127.50	    12.369
   9.800        118.33	    11.916
   9.820        125.83	    12.288
   9.840        115.00	    11.747
   9.860        102.50	    11.091
   9.880        120.00	    12.000
   9.900        120.83	    12.042
   9.920        119.17	    11.958
   9.940        139.17	    12.923
   9.960        105.00	    11.225
   9.980        138.33	    12.884
  10.000        125.00	    12.247
  10.020        104.17	    11.180
  10.040        127.50	    12.369
  10.060         93.33	    10.583
  10.080         95.00	    10.677
  10.100        110.00	    11.489
  10.120        127.50	    12.369
  10.140        103.33	    11.136
  10.160         99.17	    10.909
  10.180        130.00	    12.490
  10.200        116.67	    11.832
  10.220        119.17	    11.958
  10.240        108.33	    11.402
  10.260        114.17	    11.705
  10.280        115.00	    11.747
  10.300         99.17	    10.909
  10.320         97.50	    10.817
  10.340        106.67	    11.314
  10.360        119.17	    11.958
  10.380        134.17	    12.689
  10.400        145.00	    13.191
  10.420        171.67	    14.353
  10.440        231.67	    16.673
  10.460        268.33	    17.944
  10.480        231.67	    16.673
  10.500        147.50	    13.304
  10.520        120.00	    12.000
  10.540        110.83	    11.533
  10.560        112.50	    11.619
  10.580        127.50	    12.369
  10.600        116.67	    11.832
  10.620        114.17	    11.705
  10.640        136.67	    12.806
  10.660        108.33	    11.402
  10.680        118.33	    11.916
  10.700        110.83	    11.533
  10.720        115.00	    11.747
  10.740         88.33	    10.296
  10.760         95.00	    10.677
  10.780        104.17	    11.180
  10.800        103.33	    11.136
  10.820        113.33	    11.662
  10.840        107.50	    11.358
  10.860        102.50	    11.091
  10.880        116.67	    11.832
  10.900        110.00	    11.489
  10.920        109.17	    11.446
  10.940        121.67	    12.083
  10.960         96.67	    10.770
  10.980        113.33	    11.662
  11.000        105.00	    11.225
  11.020        105.83	    11.269
  11.040        100.83	    11.000
  11.060        111.67	    11.576
  11.080        101.67	    11.045
  11.100         95.83	    10.724
  11.120        106.67	    11.314
  11.140         92.50	    10.536
  11.160        110.00	    11.489
  11.180        121.67	    12.083
  11.200         98.33	    10.863
  11.220         95.83	    10.724
  11.240        108.33	    11.402
  11.260        102.50	    11.091
  11.280        100.83	    11.000
  11.300        106.67	    11.314
  11.320         88.33	    10.296
  11.340        102.50	    11.091
  11.360         81.67	     9.899
  11.380         88.33	    10.296
  11.400        114.17	    11.705
  11.420        114.17	    11.705
  11.440        115.83	    11.790
  11.460        105.00	    11.225
  11.480        115.00	    11.747
  11.500        108.33	    11.402
  11.520        109.17	    11.446
  11.540        100.83	    11.000
  11.560        102.50	    11.091
  11.580        102.50	    11.091
  11.600        110.83	    11.533
  11.620         85.83	    10.149
  11.640         98.33	    10.863
  11.660        104.17	    11.180
  11.680         95.83	    10.724
  11.700         93.33	    10.583
  11.720        107.50	    11.358
  11.740         98.33	    10.863
  11.760         96.67	    10.770
  11.780        105.00	    11.225
  11.800        105.83	    11.269
  11.820        118.33	    11.916
  11.840        105.00	    11.225
  11.860        114.17	    11.705
  11.880        124.17	    12.207
  11.900        107.50	    11.358
  11.920        105.83	    11.269
  11.940         98.33	    10.863
  11.960        115.00	    11.747
  11.980        114.17	    11.705
  12.000        123.33	    12.166
  12.020        166.67	    14.142
  12.040        162.50	    13.964
  12.060        212.50	    15.969
  12.080        268.33	    17.944
  12.100        376.67	    21.260
  12.120        490.00	    24.249
  12.140        520.83	    25.000
  12.160        391.67	    21.679
  12.180        268.33	    17.944
  12.200        206.67	    15.748
  12.220        179.17	    14.663
  12.240        183.33	    14.832
  12.260        206.67	    15.748
  12.280        187.50	    15.000
  12.300        181.67	    14.765
  12.320        178.33	    14.629
  12.340        188.33	    15.033
  12.360        195.83	    15.330
  12.380        197.50	    15.395
  12.400        250.00	    17.321
  12.420        300.00	    18.974
  12.440        330.83	    19.925
  12.460        293.33	    18.762
  12.480        226.67	    16.492
  12.500        138.33	    12.884
  12.520        124.17	    12.207
  12.540        111.67	    11.576
  12.560        114.17	    11.705
  12.580        110.83	    11.533
  12.600        104.17	    11.180
  12.620         94.17	    10.630
  12.640        105.00	    11.225
  12.660        100.00	    10.954
  12.680        109.17	    11.446
  12.700        113.33	    11.662
  12.720         95.00	    10.677
  12.740         96.67	    10.770
  12.760        104.17	    11.180
  12.780         81.67	     9.899
  12.800         82.50	     9.950
  12.820         99.17	    10.909
  12.840         85.00	    10.100
  12.860         99.17	    10.909
  12.880         90.83	    10.440
  12.900         95.00	    10.677
  12.920         96.67	    10.770
  12.940         92.50	    10.536
  12.960         74.17	     9.434
  12.980         87.50	    10.247
  13.000         81.67	     9.899
  13.020         98.33	    10.863
  13.040         74.17	     9.434
  13.060         80.83	     9.849
  13.080         87.50	    10.247
  13.100         93.33	    10.583
  13.120         89.17	    10.344
  13.140         81.67	     9.899
  13.160         94.17	    10.630
  13.180         78.33	     9.695
  13.200         81.67	     9.899
  13.220         78.33	     9.695
  13.240         92.50	    10.536
  13.260         95.83	    10.724
  13.280        100.00	    10.954
  13.300         97.50	    10.817
  13.320         88.33	    10.296
  13.340         86.67	    10.198
  13.360        100.83	    11.000
  13.380         89.17	    10.344
  13.400         95.83	    10.724
  13.420         95.00	    10.677
  13.440         78.33	     9.695
  13.460         96.67	    10.770
  13.480         84.17	    10.050
  13.500         79.17	     9.747
  13.520         83.33	    10.000
  13.540         79.17	     9.747
  13.560        111.67	    11.576
  13.580         85.00	    10.100
  13.600         83.33	    10.000
  13.620         80.83	     9.849
  13.640         83.33	    10.000
  13.660         93.33	    10.583
  13.680         85.83	    10.149
  13.700         95.00	    10.677
  13.720         86.67	    10.198
  13.740         96.67	    10.770
  13.760        113.33	    11.662
  13.780        111.67	    11.576
  13.800        105.00	    11.225
  13.820        103.33	    11.136
  13.840         80.00	     9.798
  13.860         90.83	    10.440
  13.880        102.50	    11.091
  13.900         81.67	     9.899
  13.920         94.17	    10.630
  13.940         93.33	    10.583
  13.960         78.33	     9.695
  13.980         85.83	    10.149
  14.000         95.00	    10.677
  14.020         89.17	    10.344
  14.040         69.17	     9.110
  14.060         73.33	     9.381
  14.080         75.00	     9.487
  14.100         75.83	     9.539
  14.120         80.83	     9.849
  14.140         87.50	    10.247
  14.160         72.50	     9.327
  14.180         69.17	     9.110
  14.200         74.17	     9.434
  14.220         71.67	     9.274
  14.240         81.67	     9.899
  14.260         69.17	     9.110
  14.280         78.33	     9.695
  14.300         84.17	    10.050
  14.320         75.83	     9.539
  14.340         75.00	     9.487
  14.360         80.00	     9.798
  14.380         73.33	     9.381
  14.400         73.33	     9.381
  14.420         68.33	     9.055
  14.440         87.50	    10.247
  14.460         89.17	    10.344
  14.480         74.17	     9.434
  14.500         79.17	     9.747
  14.520         80.00	     9.798
  14.540         80.83	     9.849
  14.560         84.17	    10.050
  14.580         89.17	    10.344
  14.600         67.50	     9.000
  14.620         68.33	     9.055
  14.640         79.17	     9.747
  14.660         76.67	     9.592
  14.680         85.00	    10.100
  14.700         69.17	     9.110
  14.720         77.50	     9.644
  14.740         75.83	     9.539
  14.760         79.17	     9.747
  14.780         58.33	     8.367
  14.800         91.67	    10.488
  14.820         75.83	     9.539
  14.840         65.83	     8.888
  14.860         70.83	     9.220
  14.880         71.67	     9.274
  14.900         90.00	    10.392
  14.920         92.50	    10.536
  14.940         84.17	    10.050
  14.960         84.17	    10.050
  14.980         95.83	    10.724
  15.000         89.17	    10.344
  15.020         89.17	    10.344
  15.040         68.33	     9.055
  15.060         70.83	     9.220
  15.080         66.67	     8.944
  15.100         62.50	     8.660
  15.120         79.17	     9.747
  15.140         60.00	     8.485
  15.160         76.67	     9.592
  15.180         89.17	    10.344
  15.200         64.17	     8.775
  15.220         64.17	     8.775
  15.240         73.33	     9.381
  15.260         60.83	     8.544
  15.280         68.33	     9.055
  15.300         68.33	     9.055
  15.320         73.33	     9.381
  15.340         64.17	     8.775
  15.360         70.83	     9.220
  15.380         61.67	     8.602
  15.400         64.17	     8.775
  15.420         63.33	     8.718
  15.440         81.67	     9.899
  15.460         70.83	     9.220
  15.480         61.67	     8.602
  15.500         90.00	    10.392
  15.520         85.83	    10.149
  15.540         77.50	     9.644
  15.560         82.50	     9.950
  15.580         71.67	     9.274
  15.600         81.67	     9.899
  15.620         79.17	     9.747
  15.640         72.50	     9.327
  15.660         83.33	    10.000
  15.680         75.83	     9.539
  15.700         74.17	     9.434
  15.720         88.33	    10.296
  15.740         74.17	     9.434
  15.760         78.33	     9.695
  15.780         74.17	     9.434
  15.800         82.50	     9.950
  15.820         81.67	     9.899
  15.840         76.67	     9.592
  15.860         56.67	     8.246
  15.880         74.17	     9.434
  15.900         70.00	     9.165
  15.920         85.00	    10.100
  15.940         78.33	     9.695
  15.960         76.67	     9.592
  15.980         74.17	     9.434
  16.000         65.00	     8.832
  16.020         69.17	     9.110
  16.040         78.33	     9.695
  16.060         62.50	     8.660
  16.080         64.17	     8.775
  16.100         54.17	     8.062
  16.120         69.17	     9.110
  16.140         73.33	     9.381
  16.160         55.83	     8.185
  16.180         74.17	     9.434
  16.200         80.00	     9.798
  16.220         82.50	     9.950
  16.240         68.33	     9.055
  16.260         62.50	     8.660
  16.280         58.33	     8.367
  16.300         68.33	     9.055
  16.320         65.83	     8.888
  16.340         55.00	     8.124
  16.360         70.83	     9.220
  16.380         65.00	     8.832
  16.400         72.50	     9.327
  16.420         62.50	     8.660
  16.440         78.33	     9.695
  16.460         61.67	     8.602
  16.480         60.83	     8.544
  16.500         67.50	     9.000
  16.520         83.33	    10.000
  16.540         73.33	     9.381
  16.560         74.17	     9.434
  16.580         81.67	     9.899
  16.600         62.50	     8.660
  16.620         75.00	     9.487
  16.640         79.17	     9.747
  16.660         80.83	     9.849
  16.680         72.50	     9.327
  16.700         69.17	     9.110
  16.720         66.67	     8.944
  16.740         63.33	     8.718
  16.760         76.67	     9.592
  16.780         73.33	     9.381
  16.800         67.50	     9.000
  16.820         60.83	     8.544
  16.840         54.17	     8.062
  16.860         63.33	     8.718
  16.880         63.33	     8.718
  16.900         70.83	     9.220
  16.920         72.50	     9.327
  16.940         63.33	     8.718
  16.960         68.33	     9.055
  16.980         58.33	     8.367
  17.000         73.33	     9.381
  17.020         58.33	     8.367
  17.040         67.50	     9.000
  17.060         59.17	     8.426
  17.080         71.67	     9.274
  17.100         58.33	     8.367
  17.120         80.83	     9.849
  17.140         76.67	     9.592
  17.160         70.00	     9.165
  17.180         70.83	     9.220
  17.200         65.83	     8.888
  17.220         67.50	     9.000
  17.240         75.83	     9.539
  17.260         67.50	     9.000
  17.280         74.17	     9.434
  17.300         75.83	     9.539
  17.320         76.67	     9.592
  17.340         78.33	     9.695
  17.360         65.00	     8.832
  17.380         82.50	     9.950
  17.400         65.83	     8.888
  17.420         80.00	     9.798
  17.440         70.00	     9.165
  17.460         68.33	     9.055
  17.480         64.17	     8.775
  17.500         71.67	     9.274
  17.520         79.17	     9.747
  17.540         71.67	     9.274
  17.560         68.33	     9.055
  17.580         70.83	     9.220
  17.600         68.33	     9.055
  17.620         79.17	     9.747
  17.640         77.50	     9.644
  17.660         97.50	    10.817
  17.680        105.83	    11.269
  17.700        134.17	    12.689
  17.720        174.17	    14.457
  17.740        195.83	    15.330
  17.760        195.00	    15.297
  17.780        196.67	    15.362
  17.800        145.83	    13.229
  17.820        107.50	    11.358
  17.840        115.00	    11.747
  17.860         85.83	    10.149
  17.880         68.33	     9.055
  17.900         72.50	     9.327
  17.920         81.67	     9.899
  17.940         61.67	     8.602
  17.960         85.83	    10.149
  17.980         71.67	     9.274
  18.000         71.67	     9.274
  18.020         84.17	    10.050
  18.040         76.67	     9.592
  18.060         85.83	    10.149
  18.080         89.17	    10.344
  18.100         75.00	     9.487
  18.120         67.50	     9.000
  18.140         76.67	     9.592
  18.160         76.67	     9.592
  18.180         80.00	     9.798
  18.200         58.33	     8.367
  18.220         69.17	     9.110
  18.240         65.83	     8.888
  18.260         71.67	     9.274
  18.280         75.00	     9.487
  18.300         69.17	     9.110
  18.320         80.00	     9.798
  18.340         75.00	     9.487
  18.360         64.17	     8.775
  18.380         78.33	     9.695
  18.400         90.00	    10.392
  18.420         72.50	     9.327
  18.440         81.67	     9.899
  18.460        107.50	    11.358
  18.480         97.50	    10.817
  18.500         89.17	    10.344
  18.520         90.83	    10.440
  18.540         93.33	    10.583
  18.560         85.83	    10.149
  18.580         85.00	    10.100
  18.600         89.17	    10.344
  18.620         82.50	     9.950
  18.640         95.83	    10.724
  18.660        104.17	    11.180
  18.680        123.33	    12.166
  18.700        131.67	    12.570
  18.720        165.00	    14.071
  18.740        146.67	    13.266
  18.760        122.50	    12.124
  18.780        129.17	    12.450
  18.800        106.67	    11.314
  18.820         65.83	     8.888
  18.840         73.33	     9.381
  18.860         80.00	     9.798
  18.880         75.00	     9.487
  18.900         81.67	     9.899
  18.920         72.50	     9.327
  18.940         82.50	     9.950
  18.960         65.00	     8.832
  18.980         79.17	     9.747
  19.000         67.50	     9.000
  19.020         61.67	     8.602
  19.040         72.50	     9.327
  19.060         71.67	     9.274
  19.080         87.50	    10.247
  19.100         79.17	     9.747
  19.120         75.83	     9.539
  19.140         70.00	     9.165
  19.160         87.50	    10.247
  19.180         78.33	     9.695
  19.200         76.67	     9.592
  19.220         73.33	     9.381
  19.240         85.00	    10.100
  19.260         85.00	    10.100
  19.280         76.67	     9.592
  19.300         73.33	     9.381
  19.320         68.33	     9.055
  19.340         81.67	     9.899
  19.360         84.17	    10.050
  19.380         65.83	     8.888
  19.400         60.83	     8.544
  19.420         72.50	     9.327
  19.440         70.00	     9.165
  19.460         73.33	     9.381
  19.480         85.83	    10.149
  19.500         85.83	    10.149
  19.520         79.17	     9.747
  19.540         76.67	     9.592
  19.560        103.33	    11.136
  19.580         82.50	     9.950
  19.600        107.50	    11.358
  19.620        105.83	    11.269
  19.640        110.83	    11.533
  19.660        101.67	    11.045
  19.680        113.33	    11.662
  19.700         92.50	    10.536
  19.720         97.50	    10.817
  19.740        109.17	    11.446
  19.760        113.33	    11.662
  19.780        105.83	    11.269
  19.800        107.50	    11.358
  19.820         92.50	    10.536
  19.840         92.50	    10.536
  19.860         94.17	    10.630
  19.880         85.00	    10.100
  19.900         85.00	    10.100
  19.920         84.17	    10.050
  19.940         75.83	     9.539
  19.960         77.50	     9.644
  19.980         83.33	    10.000
  20.000         78.33	     9.695
  20.020         70.83	     9.220
  20.040         70.83	     9.220
  20.060         85.00	    10.100
  20.080         79.17	     9.747
  20.100         74.17	     9.434
  20.120         65.00	     8.832
  20.140         65.83	     8.888
  20.160         68.33	     9.055
  20.180         77.50	     9.644
  20.200         75.83	     9.539
  20.220         59.17	     8.426
  20.240         62.50	     8.660
  20.260         65.00	     8.832
  20.280         54.17	     8.062
  20.300         65.00	     8.832
  20.320         63.33	     8.718
  20.340         80.83	     9.849
  20.360         70.83	     9.220
  20.380         70.00	     9.165
  20.400         65.00	     8.832
  20.420         55.83	     8.185
  20.440         81.67	     9.899
  20.460         69.17	     9.110
  20.480         78.33	     9.695
  20.500         75.00	     9.487
  20.520         83.33	    10.000
  20.540         84.17	    10.050
  20.560         90.00	    10.392
  20.580         74.17	     9.434
  20.600         82.50	     9.950
  20.620         71.67	     9.274
  20.640         75.00	     9.487
  20.660         79.17	     9.747
  20.680         84.17	    10.050
  20.700        105.00	    11.225
  20.720        113.33	    11.662
  20.740        178.33	    14.629
  20.760        234.17	    16.763
  20.780        319.17	    19.570
  20.800        361.67	    20.833
  20.820        283.33	    18.439
  20.840        196.67	    15.362
  20.860        180.83	    14.731
  20.880        121.67	    12.083
  20.900        104.17	    11.180
  20.920        113.33	    11.662
  20.940        103.33	    11.136
  20.960        102.50	    11.091
  20.980         83.33	    10.000
  21.000        118.33	    11.916
  21.020         76.67	     9.592
  21.040         80.00	     9.798
  21.060         65.83	     8.888
  21.080         66.67	     8.944
  21.100         69.17	     9.110
  21.120         64.17	     8.775
  21.140         49.17	     7.681
  21.160         59.17	     8.426
  21.180         75.00	     9.487
  21.200         62.50	     8.660
  21.220         55.00	     8.124
  21.240         67.50	     9.000
  21.260         68.33	     9.055
  21.280         66.67	     8.944
  21.300         68.33	     9.055
  21.320         64.17	     8.775
  21.340         49.17	     7.681
  21.360         70.00	     9.165
  21.380         71.67	     9.274
  21.400         60.00	     8.485
  21.420         75.00	     9.487
  21.440         72.50	     9.327
  21.460         69.17	     9.110
  21.480         71.67	     9.274
  21.500         63.33	     8.718
  21.520         72.50	     9.327
  21.540         77.50	     9.644
  21.560         60.00	     8.485
  21.580         64.17	     8.775
  21.600         55.83	     8.185
  21.620         55.83	     8.185
  21.640         60.83	     8.544
  21.660         51.67	     7.874
  21.680         72.50	     9.327
  21.700         73.33	     9.381
  21.720         65.83	     8.888
  21.740         65.83	     8.888
  21.760         68.33	     9.055
  21.780         78.33	     9.695
  21.800         69.17	     9.110
  21.820         59.17	     8.426
  21.840         70.83	     9.220
  21.860         96.67	    10.770
  21.880        115.00	    11.747
  21.900        132.50	    12.610
  21.920        171.67	    14.353
  21.940        186.67	    14.967
  21.960        225.00	    16.432
  21.980        231.67	    16.673
  22.000        241.67	    17.029
  22.020        185.83	    14.933
  22.040        134.17	    12.689
  22.060        117.50	    11.874
  22.080         79.17	     9.747
  22.100         78.33	     9.695
  22.120         63.33	     8.718
  22.140         67.50	     9.000
  22.160         78.33	     9.695
  22.180         82.50	     9.950
  22.200         80.83	     9.849
  22.220         66.67	     8.944
  22.240         76.67	     9.592
  22.260         62.50	     8.660
  22.280         74.17	     9.434
  22.300         75.83	     9.539
  22.320         73.33	     9.381
  22.340         73.33	     9.381
  22.360         60.83	     8.544
  22.380         73.33	     9.381
  22.400         70.83	     9.220
  22.420         70.00	     9.165
  22.440         60.83	     8.544
  22.460         70.83	     9.220
  22.480         71.67	     9.274
  22.500         58.33	     8.367
  22.520         68.33	     9.055
  22.540         68.33	     9.055
  22.560         60.00	     8.485
  22.580         80.83	     9.849
  22.600         73.33	     9.381
  22.620         82.50	     9.950
  22.640         67.50	     9.000
  22.660         81.67	     9.899
  22.680         77.50	     9.644
  22.700         65.83	     8.888
  22.720         75.83	     9.539
  22.740         70.83	     9.220
  22.760         85.83	    10.149
  22.780        107.50	    11.358
  22.800        104.17	    11.180
  22.820         90.00	    10.392
  22.840        100.00	    10.954
  22.860         87.50	    10.247
  22.880        101.67	    11.045
  22.900         87.50	    10.247
  22.920         85.83	    10.149
  22.940         92.50	    10.536
  22.960         97.50	    10.817
  22.980        102.50	    11.091
  23.000         80.00	     9.798
  23.020         83.33	    10.000
  23.040         73.33	     9.381
  23.060         74.17	     9.434
  23.080         87.50	    10.247
  23.100         67.50	     9.000
  23.120         75.83	     9.539
  23.140         50.83	     7.810
  23.160         66.67	     8.944
  23.180         68.33	     9.055
  23.200         70.83	     9.220
  23.220         75.83	     9.539
  23.240         55.83	     8.185
  23.260         70.83	     9.220
  23.280         50.00	     7.746
  23.300         60.83	     8.544
  23.320         69.17	     9.110
  23.340         70.83	     9.220
  23.360         93.33	    10.583
  23.380         89.17	    10.344
  23.400         92.50	    10.536
  23.420        108.33	    11.402
  23.440        145.83	    13.229
  23.460        158.33	    13.784
  23.480        165.00	    14.071
  23.500        144.17	    13.153
  23.520        124.17	    12.207
  23.540        133.33	    12.649
  23.560         95.00	    10.677
  23.580         90.00	    10.392
  23.600        103.33	    11.136
  23.620         94.17	    10.630
  23.640         92.50	    10.536
  23.660         84.17	    10.050
  23.680         95.00	    10.677
  23.700         98.33	    10.863
  23.720        104.17	    11.180
  23.740        115.83	    11.790
  23.760        111.67	    11.576
  23.780        114.17	    11.705
  23.800         90.00	    10.392
  23.820        102.50	    11.091
  23.840        111.67	    11.576
  23.860         90.00	    10.392
  23.880         68.33	     9.055
  23.900         82.50	     9.950
  23.920         79.17	     9.747
  23.940         74.17	     9.434
  23.960         90.83	    10.440
  23.980         71.67	     9.274
  24.000         95.83	    10.724
  24.020         81.67	     9.899
  24.040        100.00	    10.954
  24.060        120.83	    12.042
  24.080         85.00	    10.100
  24.100        112.50	    11.619
  24.120        104.17	    11.180
  24.140        125.83	    12.288
  24.160        103.33	    11.136
  24.180        148.33	    13.342
  24.200        180.00	    14.697
  24.220        167.50	    14.177
  24.240        186.67	    14.967
  24.260        145.83	    13.229
  24.280        128.33	    12.410
  24.300        105.83	    11.269
  24.320        102.50	    11.091
  24.340        100.83	    11.000
  24.360         99.17	    10.909
  24.380         91.67	    10.488
  24.400        105.83	    11.269
  24.420        117.50	    11.874
  24.440        154.17	    13.601
  24.460        207.50	    15.780
  24.480        255.00	    17.493
  24.500        275.00	    18.166
  24.520        309.17	    19.261
  24.540        353.33	    20.591
  24.560        398.33	    21.863
  24.580        350.83	    20.518
  24.600        307.50	    19.209
  24.620        291.67	    18.708
  24.640        244.17	    17.117
  24.660        185.00	    14.900
  24.680        162.50	    13.964
  24.700        139.17	    12.923
  24.720        154.17	    13.601
  24.740        125.83	    12.288
  24.760        119.17	    11.958
  24.780        109.17	    11.446
  24.800        119.17	    11.958
  24.820        121.67	    12.083
  24.840        117.50	    11.874
  24.860        118.33	    11.916
  24.880        108.33	    11.402
  24.900        105.00	    11.225
  24.920         90.00	    10.392
  24.940        112.50	    11.619
  24.960        123.33	    12.166
  24.980        105.83	    11.269
  25.000        116.67	    11.832
  25.020        134.17	    12.689
  25.040        199.17	    15.460
  25.060        218.33	    16.186
  25.080        230.83	    16.643
  25.100        201.67	    15.556
  25.120        210.00	    15.875
  25.140        169.17	    14.248
  25.160        129.17	    12.450
  25.180        111.67	    11.576
  25.200        100.00	    10.954
  25.220         90.00	    10.392
  25.240        106.67	    11.314
  25.260        120.83	    12.042
  25.280        100.00	    10.954
  25.300        124.17	    12.207
  25.320        119.17	    11.958
  25.340        111.67	    11.576
  25.360        138.33	    12.884
  25.380        137.50	    12.845
  25.400        130.83	    12.530
  25.420        150.83	    13.454
  25.440        145.00	    13.191
  25.460        158.33	    13.784
  25.480        141.67	    13.038
  25.500        131.67	    12.570
  25.520        122.50	    12.124
  25.540        153.33	    13.565
  25.560        160.83	    13.892
  25.580        135.83	    12.767
  25.600        128.33	    12.410
  25.620        115.83	    11.790
  25.640        127.50	    12.369
  25.660         91.67	    10.488
  25.680         77.50	     9.644
  25.700         81.67	     9.899
  25.720         81.67	     9.899
  25.740         90.00	    10.392
  25.760         65.00	     8.832
  25.780         72.50	     9.327
  25.800         95.00	    10.677
  25.820         79.17	     9.747
  25.840         51.67	     7.874
  25.860         63.33	     8.718
  25.880         83.33	    10.000
  25.900         72.50	     9.327
  25.920         71.67	     9.274
  25.940         70.00	     9.165
  25.960         70.00	     9.165
  25.980         71.67	     9.274
  26.000         75.00	     9.487
  26.020         63.33	     8.718
  26.040         78.33	     9.695
  26.060         78.33	     9.695
  26.080         80.00	     9.798
  26.100         78.33	     9.695
  26.120         63.33	     8.718
  26.140         76.67	     9.592
  26.160         82.50	     9.950
  26.180         91.67	    10.488
  26.200        116.67	    11.832
  26.220        146.67	    13.266
  26.240        161.67	    13.928
  26.260        123.33	    12.166
  26.280        125.00	    12.247
  26.300        159.17	    13.820
  26.320        160.83	    13.892
  26.340        174.17	    14.457
  26.360        167.50	    14.177
  26.380        170.83	    14.318
  26.400        139.17	    12.923
  26.420        202.50	    15.588
  26.440        215.83	    16.093
  26.460        270.00	    18.000
  26.480        342.50	    20.273
  26.500        535.00	    25.338
  26.520        830.00	    31.559
  26.540       1377.50	    40.657
  26.560       1941.67	    48.270
  26.580       1904.17	    47.802
  26.600       1460.83	    41.869
  26.620       1161.67	    37.336
  26.640       1085.83	    36.097
  26.660        778.33	    30.561
  26.680        399.17	    21.886
  26.700        334.17	    20.025
  26.720        268.33	    17.944
  26.740        332.50	    19.975
  26.760        381.67	    21.401
  26.780        417.50	    22.383
  26.800        451.67	    23.281
  26.820        478.33	    23.958
  26.840        422.50	    22.517
  26.860        314.17	    19.416
  26.880        272.50	    18.083
  26.900        214.17	    16.031
  26.920        173.33	    14.422
  26.940        142.50	    13.077
  26.960        130.00	    12.490
  26.980        129.17	    12.450
  27.000        105.83	    11.269
  27.020         98.33	    10.863
  27.040         95.00	    10.677
  27.060         95.83	    10.724
  27.080        105.83	    11.269
  27.100         90.83	    10.440
  27.120        103.33	    11.136
  27.140         88.33	    10.296
  27.160         75.83	     9.539
  27.180         79.17	     9.747
  27.200         77.50	     9.644
  27.220         80.00	     9.798
  27.240         89.17	    10.344
  27.260         88.33	    10.296
  27.280         88.33	    10.296
  27.300         72.50	     9.327
  27.320         89.17	    10.344
  27.340        110.00	    11.489
  27.360        115.83	    11.790
  27.380        148.33	    13.342
  27.400        233.33	    16.733
  27.420        244.17	    17.117
  27.440        255.83	    17.521
  27.460        225.00	    16.432
  27.480        223.33	    16.371
  27.500        204.17	    15.652
  27.520        175.00	    14.491
  27.540        121.67	    12.083
  27.560        158.33	    13.784
  27.580        120.83	    12.042
  27.600        130.00	    12.490
  27.620        161.67	    13.928
  27.640        210.00	    15.875
  27.660        239.17	    16.941
  27.680        237.50	    16.882
  27.700        223.33	    16.371
  27.720        221.67	    16.310
  27.740        231.67	    16.673
  27.760        237.50	    16.882
  27.780        281.67	    18.385
  27.800        328.33	    19.849
  27.820        382.50	    21.424
  27.840        463.33	    23.580
  27.860        590.83	    26.627
  27.880        594.17	    26.702
  27.900        581.67	    26.420
  27.920        451.67	    23.281
  27.940        362.50	    20.857
  27.960        336.67	    20.100
  27.980        279.17	    18.303
  28.000        178.33	    14.629
  28.020        125.83	    12.288
  28.040        165.83	    14.107
  28.060        170.83	    14.318
  28.080        187.50	    15.000
  28.100        145.00	    13.191
  28.120        138.33	    12.884
  28.140        169.17	    14.248
  28.160        148.33	    13.342
  28.180        129.17	    12.450
  28.200        144.17	    13.153
  28.220        172.50	    14.387
  28.240        140.00	    12.961
  28.260        125.00	    12.247
  28.280        109.17	    11.446
  28.300        111.67	    11.576
  28.320         93.33	    10.583
  28.340         78.33	     9.695
  28.360         60.00	     8.485
  28.380         89.17	    10.344
  28.400         68.33	     9.055
  28.420         65.83	     8.888
  28.440         86.67	    10.198
  28.460         96.67	    10.770
  28.480        109.17	    11.446
  28.500        128.33	    12.410
  28.520        143.33	    13.115
  28.540        170.83	    14.318
  28.560        140.83	    13.000
  28.580        164.17	    14.036
  28.600        130.00	    12.490
  28.620        136.67	    12.806
  28.640        118.33	    11.916
  28.660        114.17	    11.705
  28.680        100.00	    10.954
  28.700         80.83	     9.849
  28.720         85.83	    10.149
  28.740         60.00	     8.485
  28.760         70.00	     9.165
  28.780         66.67	     8.944
  28.800         52.50	     7.937
  28.820         76.67	     9.592
  28.840         63.33	     8.718
  28.860         50.83	     7.810
  28.880         62.50	     8.660
  28.900         61.67	     8.602
  28.920         49.17	     7.681
  28.940         55.83	     8.185
  28.960         50.83	     7.810
  28.980         66.67	     8.944
  29.000         59.17	     8.426
  29.020         57.50	     8.307
  29.040         58.33	     8.367
  29.060         55.00	     8.124
  29.080         35.83	     6.557
  29.100         56.67	     8.246
  29.120         57.50	     8.307
  29.140         58.33	     8.367
  29.160         51.67	     7.874
  29.180         60.00	     8.485
  29.200         60.83	     8.544
  29.220         46.67	     7.483
  29.240         56.67	     8.246
  29.260         50.00	     7.746
  29.280         61.67	     8.602
  29.300         51.67	     7.874
  29.320         47.50	     7.550
  29.340         55.83	     8.185
  29.360         60.00	     8.485
  29.380         53.33	     8.000
  29.400         68.33	     9.055
  29.420         57.50	     8.307
  29.440         62.50	     8.660
  29.460         55.83	     8.185
  29.480         59.17	     8.426
  29.500         55.83	     8.185
  29.520         59.17	     8.426
  29.540         55.83	     8.185
  29.560         77.50	     9.644
  29.580         55.83	     8.185
  29.600         65.00	     8.832
  29.620         77.50	     9.644
  29.640         67.50	     9.000
  29.660         77.50	     9.644
  29.680         86.67	    10.198
  29.700         94.17	    10.630
  29.720        111.67	    11.576
  29.740        110.83	    11.533
  29.760        140.00	    12.961
  29.780        131.67	    12.570
  29.800        135.83	    12.767
  29.820        155.00	    13.638
  29.840        150.00	    13.416
  29.860        122.50	    12.124
  29.880        118.33	    11.916
  29.900        110.00	    11.489
  29.920        100.83	    11.000
  29.940         97.50	    10.817
  29.960         96.67	    10.770
  29.980         88.33	    10.296
  30.000        110.83	    11.533
  30.020        103.33	    11.136
  30.040        121.67	    12.083
  30.060        111.67	    11.576
  30.080        123.33	    12.166
  30.100         96.67	    10.770
  30.120        105.00	    11.225
  30.140        103.33	    11.136
  30.160        104.17	    11.180
  30.180         97.50	    10.817
  30.200        100.00	    10.954
  30.220         71.67	     9.274
  30.240         89.17	    10.344
  30.260         90.00	    10.392
  30.280         90.83	    10.440
  30.300        100.00	    10.954
  30.320        105.83	    11.269
  30.340        115.83	    11.790
  30.360        136.67	    12.806
  30.380        125.83	    12.288
  30.400        110.00	    11.489
  30.420        106.67	    11.314
  30.440        121.67	    12.083
  30.460        102.50	    11.091
  30.480        105.83	    11.269
  30.500         80.83	     9.849
  30.520         72.50	     9.327
  30.540         62.50	     8.660
  30.560         55.83	     8.185
  30.580         48.33	     7.616
  30.600         79.17	     9.747
  30.620         53.33	     8.000
  30.640         73.33	     9.381
  30.660         68.33	     9.055
  30.680         74.17	     9.434
  30.700         94.17	    10.630
  30.720         91.67	    10.488
  30.740         97.50	    10.817
  30.760        111.67	    11.576
  30.780        113.33	    11.662
  30.800         97.50	    10.817
  30.820         95.83	    10.724
  30.840         97.50	    10.817
  30.860         82.50	     9.950
  30.880         60.00	     8.485
  30.900         87.50	    10.247
  30.920         63.33	     8.718
  30.940         66.67	     8.944
  30.960         68.33	     9.055
  30.980         70.83	     9.220
  31.000         70.00	     9.165
  31.020         80.83	     9.849
  31.040         85.83	    10.149
  31.060         75.83	     9.539
  31.080         77.50	     9.644
  31.100         91.67	    10.488
  31.120         93.33	    10.583
  31.140         98.33	    10.863
  31.160        112.50	    11.619
  31.180        115.83	    11.790
  31.200        113.33	    11.662
  31.220         97.50	    10.817
  31.240         79.17	     9.747
  31.260         91.67	    10.488
  31.280         80.83	     9.849
  31.300         85.00	    10.100
  31.320         52.50	     7.937
  31.340         68.33	     9.055
  31.360         64.17	     8.775
  31.380         69.17	     9.110
  31.400         65.00	     8.832
  31.420         75.83	     9.539
  31.440         67.50	     9.000
  31.460         79.17	     9.747
  31.480         75.83	     9.539
  31.500         85.83	    10.149
  31.520         90.83	    10.440
  31.540         81.67	     9.899
  31.560         85.00	    10.100
  31.580         68.33	     9.055
  31.600         62.50	     8.660
  31.620         59.17	     8.426
  31.640         66.67	     8.944
  31.660         54.17	     8.062
  31.680         48.33	     7.616
  31.700         65.00	     8.832
  31.720         39.17	     6.856
  31.740         54.17	     8.062
  31.760         55.83	     8.185
  31.780         75.83	     9.539
  31.800         76.67	     9.592
  31.820         82.50	     9.950
  31.840         70.00	     9.165
  31.860         68.33	     9.055
  31.880         62.50	     8.660
  31.900         63.33	     8.718
  31.920         57.50	     8.307
  31.940         72.50	     9.327
  31.960         71.67	     9.274
  31.980         79.17	     9.747
  32.000         99.17	    10.909
  32.020         73.33	     9.381
  32.040         70.00	     9.165
  32.060         80.83	     9.849
  32.080         90.00	    10.392
  32.100         77.50	     9.644
  32.120         87.50	    10.247
  32.140         67.50	     9.000
  32.160         82.50	     9.950
  32.180         78.33	     9.695
  32.200         70.83	     9.220
  32.220         50.83	     7.810
  32.240         61.67	     8.602
  32.260         60.00	     8.485
  32.280         59.17	     8.426
  32.300         60.00	     8.485
  32.320         49.17	     7.681
  32.340         41.67	     7.071
  32.360         50.83	     7.810
  32.380         48.33	     7.616
  32.400         42.50	     7.141
  32.420         43.33	     7.211
  32.440         43.33	     7.211
  32.460         42.50	     7.141
  32.480         48.33	     7.616
  32.500         47.50	     7.550
  32.520         44.17	     7.280
  32.540         41.67	     7.071
  32.560         40.83	     7.000
  32.580         30.83	     6.083
  32.600         44.17	     7.280
  32.620         41.67	     7.071
  32.640         56.67	     8.246
  32.660         47.50	     7.550
  32.680         54.17	     8.062
  32.700         30.83	     6.083
  32.720         53.33	     8.000
  32.740         48.33	     7.616
  32.760         53.33	     8.000
  32.780         61.67	     8.602
  32.800         64.17	     8.775
  32.820         40.83	     7.000
  32.840         47.50	     7.550
  32.860         64.17	     8.775
  32.880         56.67	     8.246
  32.900         60.00	     8.485
  32.920         64.17	     8.775
  32.940         80.00	     9.798
  32.960         78.33	     9.695
  32.980        103.33	    11.136
  33.000         95.00	    10.677
  33.020        108.33	    11.402
  33.040        101.67	    11.045
  33.060         77.50	     9.644
  33.080         97.50	    10.817
  33.100         80.00	     9.798
  33.120         70.83	     9.220
  33.140         45.83	     7.416
  33.160         45.00	     7.348
  33.180         63.33	     8.718
  33.200         45.83	     7.416
  33.220         58.33	     8.367
  33.240         52.50	     7.937
  33.260         59.17	     8.426
  33.280         70.00	     9.165
  33.300         67.50	     9.000
  33.320         48.33	     7.616
  33.340         48.33	     7.616
  33.360         52.50	     7.937
  33.380         68.33	     9.055
  33.400         56.67	     8.246
  33.420         62.50	     8.660
  33.440         50.83	     7.810
  33.460         49.17	     7.681
  33.480         54.17	     8.062
  33.500         45.83	     7.416
  33.520         53.33	     8.000
  33.540         51.67	     7.874
  33.560         54.17	     8.062
  33.580         54.17	     8.062
  33.600         55.00	     8.124
  33.620         51.67	     7.874
  33.640         75.83	     9.539
  33.660         49.17	     7.681
  33.680         57.50	     8.307
  33.700         70.83	     9.220
  33.720         61.67	     8.602
  33.740         61.67	     8.602
  33.760         46.67	     7.483
  33.780         68.33	     9.055
  33.800         46.67	     7.483
  33.820         65.83	     8.888
  33.840         63.33	     8.718
  33.860         49.17	     7.681
  33.880         74.17	     9.434
  33.900         81.67	     9.899
  33.920         64.17	     8.775
  33.940         58.33	     8.367
  33.960         63.33	     8.718
  33.980         74.17	     9.434
  34.000         75.83	     9.539
  34.020         84.17	    10.050
  34.040         69.17	     9.110
  34.060         59.17	     8.426
  34.080         59.17	     8.426
  34.100         69.17	     9.110
  34.120         63.33	     8.718
  34.140         51.67	     7.874
  34.160         71.67	     9.274
  34.180         66.67	     8.944
  34.200         72.50	     9.327
  34.220         71.67	     9.274
  34.240         67.50	     9.000
  34.260         75.00	     9.487
  34.280         87.50	    10.247
  34.300        117.50	    11.874
  34.320        109.17	    11.446
  34.340        107.50	    11.358
  34.360        104.17	    11.180
  34.380        119.17	    11.958
  34.400        128.33	    12.410
  34.420        123.33	    12.166
  34.440        144.17	    13.153
  34.460        150.00	    13.416
  34.480        111.67	    11.576
  34.500        120.83	    12.042
  34.520        109.17	    11.446
  34.540        120.83	    12.042
  34.560         95.00	    10.677
  34.580        112.50	    11.619
  34.600         98.33	    10.863
  34.620         89.17	    10.344
  34.640         97.50	    10.817
  34.660         87.50	    10.247
  34.680        109.17	    11.446
  34.700         89.17	    10.344
  34.720         72.50	     9.327
  34.740         93.33	    10.583
  34.760        103.33	    11.136
  34.780        101.67	    11.045
  34.800        101.67	    11.045
  34.820        128.33	    12.410
  34.840        137.50	    12.845
  34.860        149.17	    13.379
  34.880        150.00	    13.416
  34.900        149.17	    13.379
  34.920        150.83	    13.454
  34.940        149.17	    13.379
  34.960        166.67	    14.142
  34.980        144.17	    13.153
  35.000        140.00	    12.961
  35.020        119.17	    11.958
  35.040        116.67	    11.832
  35.060        124.17	    12.207
  35.080        111.67	    11.576
  35.100        105.83	    11.269
  35.120        114.17	    11.705
  35.140        118.33	    11.916
  35.160        110.00	    11.489
  35.180        111.67	    11.576
  35.200        120.83	    12.042
  35.220        110.00	    11.489
  35.240        117.50	    11.874
  35.260        102.50	    11.091
  35.280        127.50	    12.369
  35.300        118.33	    11.916
  35.320        130.83	    12.530
  35.340        137.50	    12.845
  35.360        135.83	    12.767
  35.380        135.83	    12.767
  35.400        148.33	    13.342
  35.420        170.00	    14.283
  35.440        184.17	    14.866
  35.460        207.50	    15.780
  35.480        225.00	    16.432
  35.500        169.17	    14.248
  35.520        154.17	    13.601
  35.540        165.00	    14.071
  35.560        162.50	    13.964
  35.580        157.50	    13.748
  35.600        115.00	    11.747
  35.620        121.67	    12.083
  35.640         92.50	    10.536
  35.660         77.50	     9.644
  35.680         83.33	    10.000
  35.700         86.67	    10.198
  35.720         74.17	     9.434
  35.740         80.00	     9.798
  35.760         64.17	     8.775
  35.780         62.50	     8.660
  35.800         79.17	     9.747
  35.820         87.50	    10.247
  35.840         74.17	     9.434
  35.860         68.33	     9.055
  35.880         58.33	     8.367
  35.900         64.17	     8.775
  35.920         59.17	     8.426
  35.940         54.17	     8.062
  35.960         71.67	     9.274
  35.980         93.33	    10.583
  36.000         78.33	     9.695
  36.020         85.83	    10.149
  36.040         77.50	     9.644
  36.060         70.00	     9.165
  36.080         85.83	    10.149
  36.100         75.83	     9.539
  36.120         65.83	     8.888
  36.140         60.83	     8.544
  36.160         65.83	     8.888
  36.180         60.83	     8.544
  36.200         55.00	     8.124
  36.220         51.67	     7.874
  36.240         70.00	     9.165
  36.260         75.00	     9.487
  36.280         66.67	     8.944
  36.300         79.17	     9.747
  36.320        102.50	    11.091
  36.340         80.83	     9.849
  36.360        106.67	    11.314
  36.380        137.50	    12.845
  36.400        162.50	    13.964
  36.420        155.00	    13.638
  36.440        217.50	    16.155
  36.460        278.33	    18.276
  36.480        444.17	    23.087
  36.500        555.83	    25.826
  36.520        520.00	    24.980
  36.540        283.33	    18.439
  36.560        220.83	    16.279
  36.580        294.17	    18.788
  36.600        305.00	    19.131
  36.620        272.50	    18.083
  36.640        151.67	    13.491
  36.660        120.00	    12.000
  36.680        114.17	    11.705
  36.700        103.33	    11.136
  36.720         96.67	    10.770
  36.740         80.83	     9.849
  36.760         85.83	    10.149
  36.780         60.83	     8.544
  36.800         59.17	     8.426
  36.820         59.17	     8.426
  36.840         56.67	     8.246
  36.860         83.33	    10.000
  36.880         85.83	    10.149
  36.900         77.50	     9.644
  36.920         65.83	     8.888
  36.940         71.67	     9.274
  36.960         71.67	     9.274
  36.980         71.67	     9.274
  37.000         80.83	     9.849
  37.020         60.00	     8.485
  37.040         52.50	     7.937
  37.060         70.00	     9.165
  37.080         65.00	     8.832
  37.100         77.50	     9.644
  37.120         82.50	     9.950
  37.140         80.83	     9.849
  37.160         65.00	     8.832
  37.180         78.33	     9.695
  37.200         71.67	     9.274
  37.220         80.00	     9.798
  37.240         92.50	    10.536
  37.260        100.00	    10.954
  37.280         96.67	    10.770
  37.300        100.83	    11.000
  37.320        106.67	    11.314
  37.340        126.67	    12.329
  37.360        141.67	    13.038
  37.380        150.00	    13.416
  37.400        131.67	    12.570
  37.420        132.50	    12.610
  37.440        116.67	    11.832
  37.460        114.17	    11.705
  37.480        130.83	    12.530
  37.500        125.83	    12.288
  37.520        112.50	    11.619
  37.540        105.00	    11.225
  37.560         99.17	    10.909
  37.580        101.67	    11.045
  37.600         73.33	     9.381
  37.620        100.00	    10.954
  37.640         97.50	    10.817
  37.660         80.83	     9.849
  37.680         72.50	     9.327
  37.700         80.00	     9.798
  37.720         80.83	     9.849
  37.740         65.00	     8.832
  37.760         55.00	     8.124
  37.780         58.33	     8.367
  37.800         51.67	     7.874
  37.820         58.33	     8.367
  37.840         69.17	     9.110
  37.860         55.83	     8.185
  37.880         66.67	     8.944
  37.900         56.67	     8.246
  37.920         41.67	     7.071
  37.940         42.50	     7.141
  37.960         45.83	     7.416
  37.980         37.50	     6.708
  38.000         41.67	     7.071
  38.020         43.33	     7.211
  38.040         40.83	     7.000
  38.060         55.00	     8.124
  38.080         44.17	     7.280
  38.100         39.17	     6.856
  38.120         48.33	     7.616
  38.140         46.67	     7.483
  38.160         40.83	     7.000
  38.180         42.50	     7.141
  38.200         50.00	     7.746
  38.220         42.50	     7.141
  38.240         35.83	     6.557
  38.260         51.67	     7.874
  38.280         44.17	     7.280
  38.300         40.00	     6.928
  38.320         50.83	     7.810
  38.340         52.50	     7.937
  38.360         50.83	     7.810
  38.380         46.67	     7.483
  38.400         44.17	     7.280
  38.420         46.67	     7.483
  38.440         50.83	     7.810
  38.460         43.33	     7.211
  38.480         50.83	     7.810
  38.500         45.83	     7.416
  38.520         55.83	     8.185
  38.540         58.33	     8.367
  38.560         50.83	     7.810
  38.580         44.17	     7.280
  38.600         58.33	     8.367
  38.620         42.50	     7.141
  38.640         55.00	     8.124
  38.660         56.67	     8.246
  38.680         60.00	     8.485
  38.700         73.33	     9.381
  38.720         75.83	     9.539
  38.740         75.00	     9.487
  38.760         65.83	     8.888
  38.780         64.17	     8.775
  38.800         56.67	     8.246
  38.820         49.17	     7.681
  38.840         54.17	     8.062
  38.860         52.50	     7.937
  38.880         57.50	     8.307
  38.900         64.17	     8.775
  38.920         50.00	     7.746
  38.940         44.17	     7.280
  38.960         60.00	     8.485
  38.980         47.50	     7.550
  39.000         63.33	     8.718
  39.020         54.17	     8.062
  39.040         47.50	     7.550
  39.060         59.17	     8.426
  39.080         44.17	     7.280
  39.100         44.17	     7.280
  39.120         55.83	     8.185
  39.140         48.33	     7.616
  39.160         55.00	     8.124
  39.180         50.00	     7.746
  39.200         65.00	     8.832
  39.220         53.33	     8.000
  39.240         49.17	     7.681
  39.260         49.17	     7.681
  39.280         65.00	     8.832
  39.300         63.33	     8.718
  39.320         88.33	    10.296
  39.340        105.83	    11.269
  39.360        112.50	    11.619
  39.380        146.67	    13.266
  39.400        140.00	    12.961
  39.420        139.17	    12.923
  39.440         90.83	    10.440
  39.460         93.33	    10.583
  39.480        107.50	    11.358
  39.500        129.17	    12.450
  39.520         96.67	    10.770
  39.540         65.00	     8.832
  39.560         65.00	     8.832
  39.580         74.17	     9.434
  39.600         69.17	     9.110
  39.620         58.33	     8.367
  39.640         73.33	     9.381
  39.660         59.17	     8.426
  39.680         52.50	     7.937
  39.700         56.67	     8.246
  39.720         48.33	     7.616
  39.740         62.50	     8.660
  39.760         56.67	     8.246
  39.780         58.33	     8.367
  39.800         45.00	     7.348
  39.820         60.83	     8.544
  39.840         53.33	     8.000
  39.860         41.67	     7.071
  39.880         57.50	     8.307
  39.900         68.33	     9.055
  39.920         55.00	     8.124
  39.940         48.33	     7.616
  39.960         63.33	     8.718
  39.980         54.17	     8.062
  40.000         53.33	     8.000
  40.020         75.00	     9.487
  40.040         53.33	     8.000
  40.060         54.17	     8.062
  40.080         53.33	     8.000
  40.100         60.00	     8.485
  40.120         62.50	     8.660
  40.140         75.83	     9.539
  40.160         78.33	     9.695
  40.180         77.50	     9.644
  40.200         82.50	     9.950
  40.220        113.33	    11.662
  40.240        109.17	    11.446
  40.260         88.33	    10.296
  40.280         81.67	     9.899
  40.300         97.50	    10.817
  40.320         78.33	     9.695
  40.340         74.17	     9.434
  40.360         75.00	     9.487
  40.380         52.50	     7.937
  40.400         57.50	     8.307
  40.420         60.00	     8.485
  40.440         68.33	     9.055
  40.460         54.17	     8.062
  40.480         52.50	     7.937
  40.500         51.67	     7.874
  40.520         49.17	     7.681
  40.540         65.00	     8.832
  40.560         58.33	     8.367
  40.580         60.00	     8.485
  40.600         58.33	     8.367
  40.620         45.83	     7.416
  40.640         37.50	     6.708
  40.660         62.50	     8.660
  40.680         54.17	     8.062
  40.700         67.50	     9.000
  40.720         58.33	     8.367
  40.740         63.33	     8.718
  40.760         49.17	     7.681
  40.780         53.33	     8.000
  40.800         69.17	     9.110
  40.820         66.67	     8.944
  40.840         58.33	     8.367
  40.860         65.00	     8.832
  40.880         53.33	     8.000
  40.900         70.83	     9.220
  40.920         59.17	     8.426
  40.940         63.33	     8.718
  40.960         70.83	     9.220
  40.980         54.17	     8.062
  41.000         59.17	     8.426
  41.020         58.33	     8.367
  41.040         59.17	     8.426
  41.060         57.50	     8.307
  41.080         63.33	     8.718
  41.100         48.33	     7.616
  41.120         63.33	     8.718
  41.140         60.83	     8.544
  41.160         58.33	     8.367
  41.180         60.83	     8.544
  41.200         61.67	     8.602
  41.220         55.83	     8.185
  41.240         57.50	     8.307
  41.260         50.00	     7.746
  41.280         60.83	     8.544
  41.300         56.67	     8.246
  41.320         63.33	     8.718
  41.340         63.33	     8.718
  41.360         45.00	     7.348
  41.380         56.67	     8.246
  41.400         65.83	     8.888
  41.420         55.00	     8.124
  41.440         58.33	     8.367
  41.460         59.17	     8.426
  41.480         68.33	     9.055
  41.500         73.33	     9.381
  41.520         74.17	     9.434
  41.540         86.67	    10.198
  41.560         88.33	    10.296
  41.580         78.33	     9.695
  41.600         92.50	    10.536
  41.620         94.17	    10.630
  41.640         90.83	    10.440
  41.660         98.33	    10.863
  41.680         98.33	    10.863
  41.700        103.33	    11.136
  41.720         85.00	    10.100
  41.740         96.67	    10.770
  41.760         81.67	     9.899
  41.780         85.00	    10.100
  41.800         97.50	    10.817
  41.820         80.83	     9.849
  41.840         77.50	     9.644
  41.860         97.50	    10.817
  41.880         89.17	    10.344
  41.900         93.33	    10.583
  41.920         83.33	    10.000
  41.940         86.67	    10.198
  41.960         80.83	     9.849
  41.980         75.00	     9.487
  42.000         66.67	     8.944
  42.020         84.17	    10.050
  42.040         60.00	     8.485
  42.060         58.33	     8.367
  42.080         60.83	     8.544
  42.100         60.00	     8.485
  42.120         75.83	     9.539
  42.140         70.83	     9.220
  42.160         86.67	    10.198
  42.180         70.00	     9.165
  42.200         68.33	     9.055
  42.220         82.50	     9.950
  42.240         77.50	     9.644
  42.260         86.67	    10.198
  42.280        106.67	    11.314
  42.300        117.50	    11.874
  42.320        118.33	    11.916
  42.340        120.83	    12.042
  42.360        160.00	    13.856
  42.380        204.17	    15.652
  42.400        205.83	    15.716
  42.420        210.00	    15.875
  42.440        160.00	    13.856
  42.460        137.50	    12.845
  42.480        140.00	    12.961
  42.500        121.67	    12.083
  42.520        143.33	    13.115
  42.540        147.50	    13.304
  42.560         93.33	    10.583
  42.580         79.17	     9.747
  42.600         80.00	     9.798
  42.620         85.00	    10.100
  42.640         80.83	     9.849
  42.660         77.50	     9.644
  42.680         74.17	     9.434
  42.700         78.33	     9.695
  42.720         72.50	     9.327
  42.740         84.17	    10.050
  42.760         85.83	    10.149
  42.780        107.50	    11.358
  42.800        131.67	    12.570
  42.820        107.50	    11.358
  42.840         90.83	    10.440
  42.860         80.83	     9.849
  42.880         98.33	    10.863
  42.900        120.00	    12.000
  42.920        132.50	    12.610
  42.940        131.67	    12.570
  42.960        116.67	    11.832
  42.980        111.67	    11.576
  43.000        108.33	    11.402
  43.020        117.50	    11.874
  43.040        118.33	    11.916
  43.060        105.00	    11.225
  43.080        107.50	    11.358
  43.100        132.50	    12.610
  43.120        125.00	    12.247
  43.140        133.33	    12.649
  43.160        133.33	    12.649
  43.180        132.50	    12.610
  43.200        161.67	    13.928
  43.220        155.83	    13.675
  43.240        167.50	    14.177
  43.260        191.67	    15.166
  43.280        201.67	    15.556
  43.300        192.50	    15.199
  43.320        227.50	    16.523
  43.340        234.17	    16.763
  43.360        250.83	    17.349
  43.380        265.83	    17.861
  43.400        259.17	    17.635
  43.420        278.33	    18.276
  43.440        280.83	    18.358
  43.460        252.50	    17.407
  43.480        282.50	    18.412
  43.500        275.00	    18.166
  43.520        231.67	    16.673
  43.540        270.00	    18.000
  43.560        245.00	    17.146
  43.580        190.00	    15.100
  43.600        230.00	    16.613
  43.620        191.67	    15.166
  43.640        203.33	    15.620
  43.660        191.67	    15.166
  43.680        175.00	    14.491
  43.700        170.00	    14.283
  43.720        155.00	    13.638
  43.740        142.50	    13.077
  43.760        144.17	    13.153
  43.780        125.83	    12.288
  43.800        135.83	    12.767
  43.820        103.33	    11.136
  43.840        101.67	    11.045
  43.860        109.17	    11.446
  43.880        108.33	    11.402
  43.900         99.17	    10.909
  43.920        111.67	    11.576
  43.940        110.00	    11.489
  43.960        100.83	    11.000
  43.980         78.33	     9.695
  44.000         62.50	     8.660
  44.020         87.50	    10.247
  44.040         79.17	     9.747
  44.060         85.83	    10.149
  44.080         87.50	    10.247
  44.100         80.00	     9.798
  44.120         84.17	    10.050
  44.140         80.83	     9.849
  44.160         75.00	     9.487
  44.180         73.33	     9.381
  44.200         70.83	     9.220
  44.220         66.67	     8.944
  44.240        136.67	    12.806
  44.260        198.33	    15.427
  44.280        188.33	    15.033
  44.300        118.33	    11.916
  44.320         65.00	     8.832
  44.340         69.17	     9.110
  44.360         79.17	     9.747
  44.380        127.50	    12.369
  44.400        131.67	    12.570
  44.420         87.50	    10.247
  44.440         71.67	     9.274
  44.460         74.17	     9.434
  44.480         65.00	     8.832
  44.500         56.67	     8.246
  44.520         55.00	     8.124
  44.540         61.67	     8.602
  44.560         56.67	     8.246
  44.580         54.17	     8.062
  44.600         46.67	     7.483
  44.620         55.83	     8.185
  44.640         52.50	     7.937
  44.660         51.67	     7.874
  44.680         60.83	     8.544
  44.700         71.67	     9.274
  44.720         51.67	     7.874
  44.740         55.00	     8.124
  44.760         67.50	     9.000
  44.780         74.17	     9.434
  44.800         55.83	     8.185
  44.820         70.00	     9.165
  44.840         72.50	     9.327
  44.860         86.67	    10.198
  44.880         89.17	    10.344
  44.900         94.17	    10.630
  44.920         75.83	     9.539
  44.940         77.50	     9.644
  44.960         69.17	     9.110
  44.980         73.33	     9.381
  45.000         75.00	     9.487
  45.020         75.00	     9.487
  45.040         86.67	    10.198
  45.060         67.50	     9.000
  45.080         75.00	     9.487
  45.100         80.00	     9.798
  45.120         68.33	     9.055
  45.140         73.33	     9.381
  45.160         85.83	    10.149
  45.180         80.83	     9.849
  45.200         89.17	    10.344
  45.220         75.00	     9.487
  45.240         86.67	    10.198
  45.260         98.33	    10.863
  45.280         84.17	    10.050
  45.300         80.00	     9.798
  45.320         81.67	     9.899
  45.340         90.83	    10.440
  45.360        105.00	    11.225
  45.380         96.67	    10.770
  45.400        129.17	    12.450
  45.420        142.50	    13.077
  45.440        131.67	    12.570
  45.460        160.83	    13.892
  45.480        139.17	    12.923
  45.500        162.50	    13.964
  45.520        159.17	    13.820
  45.540        175.83	    14.526
  45.560        150.83	    13.454
  45.580        133.33	    12.649
  45.600        137.50	    12.845
  45.620        115.83	    11.790
  45.640        119.17	    11.958
  45.660        115.83	    11.790
  45.680        139.17	    12.923
  45.700        156.67	    13.711
  45.720        149.17	    13.379
  45.740        146.67	    13.266
  45.760        111.67	    11.576
  45.780         87.50	    10.247
  45.800         92.50	    10.536
  45.820        103.33	    11.136
  45.840         99.17	    10.909
  45.860         97.50	    10.817
  45.880         92.50	    10.536
  45.900         65.00	     8.832
  45.920         67.50	     9.000
  45.940         56.67	     8.246
  45.960         65.83	     8.888
  45.980         60.00	     8.485
  46.000         53.33	     8.000
  46.020         57.50	     8.307
  46.040         50.00	     7.746
  46.060         46.67	     7.483
  46.080         55.83	     8.185
  46.100         50.00	     7.746
  46.120         50.00	     7.746
  46.140         55.83	     8.185
  46.160         53.33	     8.000
  46.180         52.50	     7.937
  46.200         52.50	     7.937
  46.220         51.67	     7.874
  46.240         47.50	     7.550
  46.260         46.67	     7.483
  46.280         45.00	     7.348
  46.300         42.50	     7.141
  46.320         42.50	     7.141
  46.340         45.83	     7.416
  46.360         35.83	     6.557
  46.380         37.50	     6.708
  46.400         49.17	     7.681
  46.420         55.00	     8.124
  46.440         32.50	     6.245
  46.460         35.00	     6.481
  46.480         42.50	     7.141
  46.500         55.00	     8.124
  46.520         40.00	     6.928
  46.540         39.17	     6.856
  46.560         40.83	     7.000
  46.580         55.00	     8.124
  46.600         46.67	     7.483
  46.620         51.67	     7.874
  46.640         35.00	     6.481
  46.660         48.33	     7.616
  46.680         45.00	     7.348
  46.700         30.00	     6.000
  46.720         40.83	     7.000
  46.740         52.50	     7.937
  46.760         37.50	     6.708
  46.780         30.83	     6.083
  46.800         36.67	     6.633
  46.820         53.33	     8.000
  46.840         47.50	     7.550
  46.860         43.33	     7.211
  46.880         37.50	     6.708
  46.900         46.67	     7.483
  46.920         40.00	     6.928
  46.940         47.50	     7.550
  46.960         45.00	     7.348
  46.980         46.67	     7.483
  47.000         51.67	     7.874
  47.020         50.83	     7.810
  47.040         61.67	     8.602
  47.060         39.17	     6.856
  47.080         43.33	     7.211
  47.100         48.33	     7.616
  47.120         48.33	     7.616
  47.140         48.33	     7.616
  47.160         55.00	     8.124
  47.180         48.33	     7.616
  47.200         45.83	     7.416
  47.220         48.33	     7.616
  47.240         41.67	     7.071
  47.260         42.50	     7.141
  47.280         38.33	     6.782
  47.300         39.17	     6.856
  47.320         28.33	     5.831
  47.340         34.17	     6.403
  47.360         49.17	     7.681
  47.380         45.83	     7.416
  47.400         50.83	     7.810
  47.420         55.00	     8.124
  47.440         33.33	     6.325
  47.460         37.50	     6.708
  47.480         36.67	     6.633
  47.500         37.50	     6.708
  47.520         41.67	     7.071
  47.540         44.17	     7.280
  47.560         33.33	     6.325
  47.580         44.17	     7.280
  47.600         37.50	     6.708
  47.620         32.50	     6.245
  47.640         40.00	     6.928
  47.660         40.00	     6.928
  47.680         36.67	     6.633
  47.700         41.67	     7.071
  47.720         38.33	     6.782
  47.740         40.00	     6.928
  47.760         36.67	     6.633
  47.780         43.33	     7.211
  47.800         45.00	     7.348
  47.820         50.00	     7.746
  47.840         42.50	     7.141
  47.860         50.00	     7.746
  47.880         46.67	     7.483
  47.900         52.50	     7.937
  47.920         53.33	     8.000
  47.940         60.00	     8.485
  47.960         50.83	     7.810
  47.980         56.67	     8.246
  48.000         60.00	     8.485
  48.020         68.33	     9.055
  48.040         66.67	     8.944
  48.060         74.17	     9.434
  48.080         80.83	     9.849
  48.100         80.83	     9.849
  48.120         60.83	     8.544
  48.140         75.83	     9.539
  48.160         45.00	     7.348
  48.180         71.67	     9.274
  48.200         73.33	     9.381
  48.220         76.67	     9.592
  48.240         66.67	     8.944
  48.260         49.17	     7.681
  48.280         57.50	     8.307
  48.300         43.33	     7.211
  48.320         55.83	     8.185
  48.340         44.17	     7.280
  48.360         57.50	     8.307
  48.380         50.00	     7.746
  48.400         43.33	     7.211
  48.420         60.00	     8.485
  48.440         43.33	     7.211
  48.460         55.00	     8.124
  48.480         44.17	     7.280
  48.500         51.67	     7.874
  48.520         43.33	     7.211
  48.540         59.17	     8.426
  48.560         44.17	     7.280
  48.580         54.17	     8.062
  48.600         49.17	     7.681
  48.620         46.67	     7.483
  48.640         44.17	     7.280
  48.660         49.17	     7.681
  48.680         55.83	     8.185
  48.700         49.17	     7.681
  48.720         40.83	     7.000
  48.740         42.50	     7.141
  48.760         40.83	     7.000
  48.780         46.67	     7.483
  48.800         46.67	     7.483
  48.820         38.33	     6.782
  48.840         47.50	     7.550
  48.860         37.50	     6.708
  48.880         42.50	     7.141
  48.900         41.67	     7.071
  48.920         56.67	     8.246
  48.940         56.67	     8.246
  48.960         65.83	     8.888
  48.980         36.67	     6.633
  49.000         46.67	     7.483
  49.020         38.33	     6.782
  49.040         45.00	     7.348
  49.060         46.67	     7.483
  49.080         55.00	     8.124
  49.100         75.83	     9.539
  49.120         72.50	     9.327
  49.140         71.67	     9.274
  49.160         58.33	     8.367
  49.180         65.00	     8.832
  49.200         60.83	     8.544
  49.220         61.67	     8.602
  49.240         55.83	     8.185
  49.260         67.50	     9.000
  49.280         45.83	     7.416
  49.300         59.17	     8.426
  49.320         52.50	     7.937
  49.340         66.67	     8.944
  49.360         43.33	     7.211
  49.380         53.33	     8.000
  49.400         52.50	     7.937
  49.420         43.33	     7.211
  49.440         51.67	     7.874
  49.460         51.67	     7.874
  49.480         56.67	     8.246
  49.500         52.50	     7.937
  49.520         46.67	     7.483
  49.540         60.83	     8.544
  49.560         52.50	     7.937
  49.580         47.50	     7.550
  49.600         54.17	     8.062
  49.620         72.50	     9.327
  49.640         78.33	     9.695
  49.660         72.50	     9.327
  49.680         65.00	     8.832
  49.700         69.17	     9.110
  49.720         75.83	     9.539
  49.740         92.50	    10.536
  49.760         80.00	     9.798
  49.780         88.33	    10.296
  49.800         85.83	    10.149
  49.820         72.50	     9.327
  49.840         93.33	    10.583
  49.860        102.50	    11.091
  49.880        105.00	    11.225
  49.900         96.67	    10.770
  49.920        116.67	    11.832
  49.940        101.67	    11.045
  49.960        130.83	    12.530
  49.980        155.83	    13.675
  50.000        194.17	    15.264
  50.020        246.67	    17.205
  50.040        255.00	    17.493
  50.060        295.83	    18.841
  50.080        260.83	    17.692
  50.100        200.00	    15.492
  50.120        162.50	    13.964
  50.140        160.83	    13.892
  50.160        168.33	    14.213
  50.180        204.17	    15.652
  50.200        193.33	    15.232
  50.220        185.00	    14.900
  50.240        130.00	    12.490
  50.260         96.67	    10.770
  50.280         83.33	    10.000
  50.300         81.67	     9.899
  50.320         82.50	     9.950
  50.340         97.50	    10.817
  50.360         77.50	     9.644
  50.380         74.17	     9.434
  50.400         96.67	    10.770
  50.420         75.00	     9.487
  50.440         89.17	    10.344
  50.460         84.17	    10.050
  50.480         89.17	    10.344
  50.500        104.17	    11.180
  50.520         84.17	    10.050
  50.540        122.50	    12.124
  50.560        105.83	    11.269
  50.580         93.33	    10.583
  50.600         83.33	    10.000
  50.620         70.83	     9.220
  50.640        101.67	    11.045
  50.660         86.67	    10.198
  50.680         70.00	     9.165
  50.700         83.33	    10.000
  50.720         71.67	     9.274
  50.740         73.33	     9.381
  50.760         69.17	     9.110
  50.780         51.67	     7.874
  50.800         58.33	     8.367
  50.820         64.17	     8.775
  50.840         60.83	     8.544
  50.860         63.33	     8.718
  50.880         62.50	     8.660
  50.900         55.83	     8.185
  50.920         51.67	     7.874
  50.940         61.67	     8.602
  50.960         60.00	     8.485
  50.980         58.33	     8.367
  51.000         75.83	     9.539
  51.020         75.00	     9.487
  51.040         73.33	     9.381
  51.060         75.00	     9.487
  51.080         93.33	    10.583
  51.100         79.17	     9.747
  51.120         77.50	     9.644
  51.140         79.17	     9.747
  51.160         68.33	     9.055
  51.180         84.17	    10.050
  51.200         70.00	     9.165
  51.220         75.83	     9.539
  51.240         65.00	     8.832
  51.260         65.83	     8.888
  51.280         60.00	     8.485
  51.300         50.83	     7.810
  51.320         46.67	     7.483
  51.340         58.33	     8.367
  51.360         44.17	     7.280
  51.380         50.83	     7.810
  51.400         42.50	     7.141
  51.420         30.00	     6.000
  51.440         37.50	     6.708
  51.460         56.67	     8.246
  51.480         61.67	     8.602
  51.500         52.50	     7.937
  51.520         36.67	     6.633
  51.540         51.67	     7.874
  51.560         47.50	     7.550
  51.580         41.67	     7.071
  51.600         46.67	     7.483
  51.620         35.00	     6.481
  51.640         35.00	     6.481
  51.660         34.17	     6.403
  51.680         36.67	     6.633
  51.700         47.50	     7.550
  51.720         33.33	     6.325
  51.740         36.67	     6.633
  51.760         43.33	     7.211
  51.780         38.33	     6.782
  51.800         31.67	     6.164
  51.820         44.17	     7.280
  51.840         45.00	     7.348
  51.860         39.17	     6.856
  51.880         27.50	     5.745
  51.900         40.83	     7.000
  51.920         43.33	     7.211
  51.940         55.83	     8.185
  51.960         42.50	     7.141
  51.980         64.17	     8.775
  52.000         69.17	     9.110
  52.020         53.33	     8.000
  52.040         65.00	     8.832
  52.060         56.67	     8.246
  52.080         68.33	     9.055
  52.100         62.50	     8.660
  52.120         56.67	     8.246
  52.140         69.17	     9.110
  52.160         62.50	     8.660
  52.180         68.33	     9.055
  52.200         84.17	    10.050
  52.220         78.33	     9.695
  52.240         70.83	     9.220
  52.260         60.83	     8.544
  52.280         60.83	     8.544
  52.300         79.17	     9.747
  52.320         79.17	     9.747
  52.340         90.00	    10.392
  52.360        105.83	    11.269
  52.380        125.83	    12.288
  52.400         82.50	     9.950
  52.420         77.50	     9.644
  52.440         56.67	     8.246
  52.460         60.00	     8.485
  52.480         58.33	     8.367
  52.500         75.83	     9.539
  52.520         82.50	     9.950
  52.540         57.50	     8.307
  52.560         58.33	     8.367
  52.580         47.50	     7.550
  52.600         52.50	     7.937
  52.620         46.67	     7.483
  52.640         45.00	     7.348
  52.660         55.00	     8.124
  52.680         53.33	     8.000
  52.700         58.33	     8.367
  52.720         45.00	     7.348
  52.740         63.33	     8.718
  52.760         47.50	     7.550
  52.780         48.33	     7.616
  52.800         64.17	     8.775
  52.820         58.33	     8.367
  52.840         59.17	     8.426
  52.860         49.17	     7.681
  52.880         53.33	     8.000
  52.900         32.50	     6.245
  52.920         50.83	     7.810
  52.940         49.17	     7.681
  52.960         48.33	     7.616
  52.980         47.50	     7.550
  53.000         54.17	     8.062
  53.020         58.33	     8.367
  53.040         53.33	     8.000
  53.060         61.67	     8.602
  53.080         60.00	     8.485
  53.100         74.17	     9.434
  53.120         80.00	     9.798
  53.140         53.33	     8.000
  53.160         52.50	     7.937
  53.180         50.00	     7.746
  53.200         79.17	     9.747
  53.220         57.50	     8.307
  53.240         48.33	     7.616
  53.260         50.00	     7.746
  53.280         52.50	     7.937
  53.300         45.83	     7.416
  53.320         53.33	     8.000
  53.340         48.33	     7.616
  53.360         51.67	     7.874
  53.380         43.33	     7.211
  53.400         45.00	     7.348
  53.420         40.83	     7.000
  53.440         40.00	     6.928
  53.460         39.17	     6.856
  53.480         55.83	     8.185
  53.500         40.00	     6.928
  53.520         46.67	     7.483
  53.540         35.83	     6.557
  53.560         41.67	     7.071
  53.580         42.50	     7.141
  53.600         45.83	     7.416
  53.620         50.00	     7.746
  53.640         59.17	     8.426
  53.660         50.00	     7.746
  53.680         55.83	     8.185
  53.700         42.50	     7.141
  53.720         37.50	     6.708
  53.740         60.00	     8.485
  53.760         37.50	     6.708
  53.780         59.17	     8.426
  53.800         40.83	     7.000
  53.820         53.33	     8.000
  53.840         60.00	     8.485
  53.860         44.17	     7.280
  53.880         36.67	     6.633
  53.900         46.67	     7.483
  53.920         46.67	     7.483
  53.940         41.67	     7.071
  53.960         45.83	     7.416
  53.980         51.67	     7.874
  54.000         32.50	     6.245
  54.020         46.67	     7.483
  54.040         49.17	     7.681
  54.060         45.83	     7.416
  54.080         33.33	     6.325
  54.100         52.50	     7.937
  54.120         55.00	     8.124
  54.140         41.67	     7.071
  54.160         45.00	     7.348
  54.180         51.67	     7.874
  54.200         39.17	     6.856
  54.220         53.33	     8.000
  54.240         41.67	     7.071
  54.260         52.50	     7.937
  54.280         61.67	     8.602
  54.300         52.50	     7.937
  54.320         66.67	     8.944
  54.340         51.67	     7.874
  54.360         55.00	     8.124
  54.380         67.50	     9.000
  54.400         57.50	     8.307
  54.420         53.33	     8.000
  54.440         45.00	     7.348
  54.460         57.50	     8.307
  54.480         49.17	     7.681
  54.500         46.67	     7.483
  54.520         54.17	     8.062
  54.540         58.33	     8.367
  54.560         59.17	     8.426
  54.580         65.00	     8.832
  54.600         59.17	     8.426
  54.620         62.50	     8.660
  54.640         69.17	     9.110
  54.660         68.33	     9.055
  54.680         51.67	     7.874
  54.700         68.33	     9.055
  54.720         69.17	     9.110
  54.740         71.67	     9.274
  54.760         87.50	    10.247
  54.780        121.67	    12.083
  54.800        133.33	    12.649
  54.820        122.50	    12.124
  54.840         98.33	    10.863
  54.860         91.67	    10.488
  54.880         63.33	     8.718
  54.900         76.67	     9.592
  54.920         89.17	    10.344
  54.940         96.67	    10.770
  54.960         90.83	    10.440
  54.980         95.00	    10.677
  55.000         61.67	     8.602
  55.020         67.50	     9.000
  55.040         68.33	     9.055
  55.060         45.00	     7.348
  55.080         56.67	     8.246
  55.100         61.67	     8.602
  55.120         54.17	     8.062
  55.140         56.67	     8.246
  55.160         65.83	     8.888
  55.180         64.17	     8.775
  55.200         73.33	     9.381
  55.220         96.67	    10.770
  55.240         95.00	    10.677
  55.260         92.50	    10.536
  55.280         77.50	     9.644
  55.300         64.17	     8.775
  55.320         51.67	     7.874
  55.340         68.33	     9.055
  55.360         59.17	     8.426
  55.380         56.67	     8.246
  55.400         74.17	     9.434
  55.420         50.00	     7.746
  55.440         48.33	     7.616
  55.460         58.33	     8.367
  55.480         48.33	     7.616
  55.500         54.17	     8.062
  55.520         48.33	     7.616
  55.540         55.83	     8.185
  55.560         50.00	     7.746
  55.580         65.83	     8.888
  55.600         56.67	     8.246
  55.620         73.33	     9.381
  55.640         62.50	     8.660
  55.660         60.00	     8.485
  55.680         60.83	     8.544
  55.700         54.17	     8.062
  55.720         83.33	    10.000
  55.740         74.17	     9.434
  55.760         65.00	     8.832
  55.780         61.67	     8.602
  55.800         65.83	     8.888
  55.820         61.67	     8.602
  55.840         63.33	     8.718
  55.860         72.50	     9.327
  55.880         65.83	     8.888
  55.900         62.50	     8.660
  55.920         66.67	     8.944
  55.940         67.50	     9.000
  55.960         65.00	     8.832
  55.980         48.33	     7.616
  56.000         45.83	     7.416
  56.020         54.17	     8.062
  56.040         52.50	     7.937
  56.060         52.50	     7.937
  56.080         58.33	     8.367
  56.100         55.00	     8.124
  56.120         67.50	     9.000
  56.140         56.67	     8.246
  56.160         54.17	     8.062
  56.180         57.50	     8.307
  56.200         43.33	     7.211
  56.220         55.83	     8.185
  56.240         44.17	     7.280
  56.260         54.17	     8.062
  56.280         48.33	     7.616
  56.300         50.83	     7.810
  56.320         40.83	     7.000
  56.340         35.83	     6.557
  56.360         37.50	     6.708
  56.380         51.67	     7.874
  56.400         45.00	     7.348
  56.420         41.67	     7.071
  56.440         43.33	     7.211
  56.460         52.50	     7.937
  56.480         41.67	     7.071
  56.500         48.33	     7.616
  56.520         54.17	     8.062
  56.540         55.83	     8.185
  56.560         45.00	     7.348
  56.580         50.00	     7.746
  56.600         47.50	     7.550
  56.620         41.67	     7.071
  56.640         43.33	     7.211
  56.660         44.17	     7.280
  56.680         49.17	     7.681
  56.700         49.17	     7.681
  56.720         39.17	     6.856
  56.740         42.50	     7.141
  56.760         63.33	     8.718
  56.780         35.83	     6.557
  56.800         54.17	     8.062
  56.820         45.00	     7.348
  56.840         50.00	     7.746
  56.860         59.17	     8.426
  56.880         41.67	     7.071
  56.900         45.83	     7.416
  56.920         49.17	     7.681
  56.940         54.17	     8.062
  56.960         57.50	     8.307
  56.980         49.17	     7.681
  57.000         55.00	     8.124
  57.020         42.50	     7.141
  57.040         55.83	     8.185
  57.060         37.50	     6.708
  57.080         40.00	     6.928
  57.100         54.17	     8.062
  57.120         48.33	     7.616
  57.140         54.17	     8.062
  57.160         32.50	     6.245
  57.180         42.50	     7.141
  57.200         35.83	     6.557
  57.220         45.00	     7.348
  57.240         25.00	     5.477
  57.260         30.83	     6.083
  57.280         45.00	     7.348
  57.300         45.83	     7.416
  57.320         39.17	     6.856
  57.340         36.67	     6.633
  57.360         27.50	     5.745
  57.380         41.67	     7.071
  57.400         46.67	     7.483
  57.420         45.00	     7.348
  57.440         46.67	     7.483
  57.460         38.33	     6.782
  57.480         46.67	     7.483
  57.500         45.83	     7.416
  57.520         32.50	     6.245
  57.540         25.83	     5.568
  57.560         46.67	     7.483
  57.580         48.33	     7.616
  57.600         44.17	     7.280
  57.620         36.67	     6.633
  57.640         51.67	     7.874
  57.660         59.17	     8.426
  57.680         52.50	     7.937
  57.700         78.33	     9.695
  57.720         80.00	     9.798
  57.740         70.00	     9.165
  57.760         54.17	     8.062
  57.780         46.67	     7.483
  57.800         50.83	     7.810
  57.820         46.67	     7.483
  57.840         52.50	     7.937
  57.860         37.50	     6.708
  57.880         56.67	     8.246
  57.900         54.17	     8.062
  57.920         51.67	     7.874
  57.940         45.00	     7.348
  57.960         31.67	     6.164
  57.980         37.50	     6.708
  58.000         38.33	     6.782
  58.020         43.33	     7.211
  58.040         47.50	     7.550
  58.060         52.50	     7.937
  58.080         43.33	     7.211
  58.100         44.17	     7.280
  58.120         42.50	     7.141
  58.140         40.00	     6.928
  58.160         43.33	     7.211
  58.180         36.67	     6.633
  58.200         43.33	     7.211
  58.220         34.17	     6.403
  58.240         43.33	     7.211
  58.260         43.33	     7.211
  58.280         49.17	     7.681
  58.300         65.83	     8.888
  58.320         46.67	     7.483
  58.340         45.00	     7.348
  58.360         40.83	     7.000
  58.380         41.67	     7.071
  58.400         57.50	     8.307
  58.420         55.00	     8.124
  58.440         48.33	     7.616
  58.460         58.33	     8.367
  58.480         52.50	     7.937
  58.500         64.17	     8.775
  58.520         63.33	     8.718
  58.540         60.83	     8.544
  58.560         75.83	     9.539
  58.580         64.17	     8.775
  58.600         58.33	     8.367
  58.620         66.67	     8.944
  58.640         60.83	     8.544
  58.660         66.67	     8.944
  58.680         68.33	     9.055
  58.700         69.17	     9.110
  58.720         60.00	     8.485
  58.740         63.33	     8.718
  58.760         53.33	     8.000
  58.780         48.33	     7.616
  58.800         50.00	     7.746
  58.820         40.83	     7.000
  58.840         60.83	     8.544
  58.860         54.17	     8.062
  58.880         57.50	     8.307
  58.900         60.00	     8.485
  58.920         64.17	     8.775
  58.940         63.33	     8.718
  58.960         54.17	     8.062
  58.980         64.17	     8.775
  59.000         68.33	     9.055
  59.020         67.50	     9.000
  59.040         60.83	     8.544
  59.060         63.33	     8.718
  59.080         73.33	     9.381
  59.100         85.00	    10.100
  59.120         82.50	     9.950
  59.140         83.33	    10.000
  59.160         75.83	     9.539
  59.180         69.17	     9.110
  59.200         64.17	     8.775
  59.220         56.67	     8.246
  59.240         60.00	     8.485
  59.260         64.17	     8.775
  59.280         60.83	     8.544
  59.300         62.50	     8.660
  59.320         50.83	     7.810
  59.340         51.67	     7.874
  59.360         53.33	     8.000
  59.380         40.00	     6.928
  59.400         45.00	     7.348
  59.420         40.00	     6.928
  59.440         43.33	     7.211
  59.460         55.00	     8.124
  59.480         55.83	     8.185
  59.500         46.67	     7.483
  59.520         45.00	     7.348
  59.540         50.00	     7.746
  59.560         61.67	     8.602
  59.580         59.17	     8.426
  59.600         49.17	     7.681
  59.620         54.17	     8.062
  59.640         56.67	     8.246
  59.660         56.67	     8.246
  59.680         60.83	     8.544
  59.700         64.17	     8.775
  59.720         68.33	     9.055
  59.740         55.00	     8.124
  59.760         79.17	     9.747
  59.780        108.33	    11.402
  59.800        124.17	    12.207
  59.820        160.83	    13.892
  59.840        161.67	    13.928
  59.860        230.00	    16.613
  59.880        254.17	    17.464
  59.900        202.50	    15.588
  59.920        190.00	    15.100
  59.940        134.17	    12.689
  59.960        116.67	    11.832
  59.980        141.67	    13.038
  60.000        132.50	    12.610
  60.020        158.33	    13.784
  60.040        177.50	    14.595
  60.060        154.17	    13.601
  60.080        135.00	    12.728
  60.100        116.67	    11.832
  60.120         89.17	    10.344
  60.140         81.67	     9.899
  60.160         66.67	     8.944
  60.180         64.17	     8.775
  60.200         70.00	     9.165
  60.220         64.17	     8.775
  60.240         73.33	     9.381
  60.260         81.67	     9.899
  60.280         61.67	     8.602
  60.300         59.17	     8.426
  60.320         60.83	     8.544
  60.340         68.33	     9.055
  60.360         59.17	     8.426
  60.380         62.50	     8.660
  60.400         67.50	     9.000
  60.420         50.83	     7.810
  60.440         53.33	     8.000
  60.460         62.50	     8.660
  60.480         61.67	     8.602
  60.500         53.33	     8.000
  60.520         60.83	     8.544
  60.540         69.17	     9.110
  60.560         80.83	     9.849
  60.580         59.17	     8.426
  60.600         59.17	     8.426
  60.620         58.33	     8.367
  60.640         47.50	     7.550
  60.660         66.67	     8.944
  60.680         64.17	     8.775
  60.700         54.17	     8.062
  60.720         65.00	     8.832
  60.740         69.17	     9.110
  60.760         68.33	     9.055
  60.780         76.67	     9.592
  60.800         74.17	     9.434
  60.820         53.33	     8.000
  60.840         69.17	     9.110
  60.860         55.00	     8.124
  60.880         59.17	     8.426
  60.900         58.33	     8.367
  60.920         51.67	     7.874
  60.940         70.00	     9.165
  60.960         52.50	     7.937
  60.980         50.83	     7.810
  61.000         68.33	     9.055
  61.020         59.17	     8.426
  61.040         64.17	     8.775
  61.060         66.67	     8.944
  61.080         62.50	     8.660
  61.100         55.00	     8.124
  61.120         54.17	     8.062
  61.140         59.17	     8.426
  61.160         50.00	     7.746
  61.180         55.00	     8.124
  61.200         68.33	     9.055
  61.220         68.33	     9.055
  61.240         55.83	     8.185
  61.260         78.33	     9.695
  61.280         83.33	    10.000
  61.300         69.17	     9.110
  61.320         70.00	     9.165
  61.340         89.17	    10.344
  61.360         84.17	    10.050
  61.380         90.83	    10.440
  61.400         94.17	    10.630
  61.420         81.67	     9.899
  61.440         76.67	     9.592
  61.460         82.50	     9.950
  61.480         83.33	    10.000
  61.500         75.83	     9.539
  61.520         77.50	     9.644
  61.540         85.00	    10.100
  61.560         86.67	    10.198
  61.580         74.17	     9.434
  61.600         70.83	     9.220
  61.620         54.17	     8.062
  61.640         65.00	     8.832
  61.660         71.67	     9.274
  61.680         74.17	     9.434
  61.700         60.83	     8.544
  61.720         58.33	     8.367
  61.740         52.50	     7.937
  61.760         66.67	     8.944
  61.780         71.67	     9.274
  61.800         51.67	     7.874
  61.820         50.83	     7.810
  61.840         52.50	     7.937
  61.860         45.83	     7.416
  61.880         61.67	     8.602
  61.900         56.67	     8.246
  61.920         54.17	     8.062
  61.940         52.50	     7.937
  61.960         55.00	     8.124
  61.980         44.17	     7.280
  62.000         54.17	     8.062
  62.020         51.67	     7.874
  62.040         49.17	     7.681
  62.060         44.17	     7.280
  62.080         45.00	     7.348
  62.100         45.00	     7.348
  62.120         42.50	     7.141
  62.140         51.67	     7.874
  62.160         46.67	     7.483
  62.180         48.33	     7.616
  62.200         39.17	     6.856
  62.220         31.67	     6.164
  62.240         51.67	     7.874
  62.260         61.67	     8.602
  62.280         55.83	     8.185
  62.300         36.67	     6.633
  62.320         38.33	     6.782
  62.340         36.67	     6.633
  62.360         32.50	     6.245
  62.380         39.17	     6.856
  62.400         45.83	     7.416
  62.420         50.00	     7.746
  62.440         47.50	     7.550
  62.460         53.33	     8.000
  62.480         42.50	     7.141
  62.500         47.50	     7.550
  62.520         43.33	     7.211
  62.540         35.00	     6.481
  62.560         37.50	     6.708
  62.580         54.17	     8.062
  62.600         45.00	     7.348
  62.620         49.17	     7.681
  62.640         41.67	     7.071
  62.660         50.00	     7.746
  62.680         40.83	     7.000
  62.700         40.83	     7.000
  62.720         61.67	     8.602
  62.740         45.83	     7.416
  62.760         40.83	     7.000
  62.780         46.67	     7.483
  62.800         50.00	     7.746
  62.820         36.67	     6.633
  62.840         44.17	     7.280
  62.860         30.83	     6.083
  62.880         32.50	     6.245
  62.900         45.00	     7.348
  62.920         45.83	     7.416
  62.940         41.67	     7.071
  62.960         35.83	     6.557
  62.980         39.17	     6.856
  63.000         36.67	     6.633
  63.020         39.17	     6.856
  63.040         33.33	     6.325
  63.060         45.83	     7.416
  63.080         45.00	     7.348
  63.100         54.17	     8.062
  63.120         39.17	     6.856
  63.140         45.83	     7.416
  63.160         44.17	     7.280
  63.180         35.83	     6.557
  63.200         37.50	     6.708
  63.220         47.50	     7.550
  63.240         59.17	     8.426
  63.260         50.83	     7.810
  63.280         34.17	     6.403
  63.300         51.67	     7.874
  63.320         43.33	     7.211
  63.340         58.33	     8.367
  63.360         42.50	     7.141
  63.380         50.00	     7.746
  63.400         64.17	     8.775
  63.420         55.83	     8.185
  63.440         42.50	     7.141
  63.460         58.33	     8.367
  63.480         51.67	     7.874
  63.500         63.33	     8.718
  63.520         56.67	     8.246
  63.540         66.67	     8.944
  63.560         65.00	     8.832
  63.580         69.17	     9.110
  63.600         70.00	     9.165
  63.620         60.83	     8.544
  63.640         66.67	     8.944
  63.660         80.00	     9.798
  63.680         84.17	    10.050
  63.700         70.83	     9.220
  63.720         58.33	     8.367
  63.740         59.17	     8.426
  63.760         70.83	     9.220
  63.780         65.00	     8.832
  63.800         60.83	     8.544
  63.820         69.17	     9.110
  63.840         74.17	     9.434
  63.860         73.33	     9.381
  63.880         65.00	     8.832
  63.900         60.83	     8.544
  63.920         63.33	     8.718
  63.940         84.17	    10.050
  63.960         88.33	    10.296
  63.980         80.00	     9.798
  64.000         72.50	     9.327
  64.020         65.00	     8.832
  64.040         61.67	     8.602
  64.060         80.00	     9.798
  64.080         60.83	     8.544
  64.100         50.83	     7.810
  64.120         66.67	     8.944
  64.140         67.50	     9.000
  64.160         67.50	     9.000
  64.180         65.83	     8.888
  64.200         64.17	     8.775
  64.220         50.00	     7.746
  64.240         44.17	     7.280
  64.260         37.50	     6.708
  64.280         35.83	     6.557
  64.300         42.50	     7.141
  64.320         44.17	     7.280
  64.340         35.00	     6.481
  64.360         41.67	     7.071
  64.380         44.17	     7.280
  64.400         44.17	     7.280
  64.420         34.17	     6.403
  64.440         36.67	     6.633
  64.460         40.83	     7.000
  64.480         40.83	     7.000
  64.500         45.00	     7.348
  64.520         41.67	     7.071
  64.540         45.83	     7.416
  64.560         48.33	     7.616
  64.580         60.00	     8.485
  64.600         49.17	     7.681
  64.620         55.83	     8.185
  64.640         59.17	     8.426
  64.660         45.00	     7.348
  64.680         37.50	     6.708
  64.700         49.17	     7.681
  64.720         54.17	     8.062
  64.740         52.50	     7.937
  64.760         45.00	     7.348
  64.780         59.17	     8.426
  64.800         50.83	     7.810
  64.820         40.83	     7.000
  64.840         50.83	     7.810
  64.860         38.33	     6.782
  64.880         50.00	     7.746
  64.900         53.33	     8.000
  64.920         65.00	     8.832
  64.940         49.17	     7.681
  64.960         72.50	     9.327
  64.980         72.50	     9.327
  65.000         90.00	    10.392
