
Filename:
	C:\Program Files\Thermo Electron\WinXRD\Datafiles\F_HERMAN\GEO\G44_RT.raw

File Created:
	February 19, 2020 - 07:46 PM

Specimen Id:
	G44_RT

Specimen Name:
	

Specimen Description:
	

Comment:
Scan Type: 2Theta Scan
Start Angle: 3 deg.
Stop Angle: 65 deg.
Num Points: 3101
Step Size: 0.02 deg.
Scan Rate: 1.000000
Scan Mode: Continuous
Wavelength: 1.540562
\Kalpha1: 1.540562	\Kalpha2: 1.544390	\Kbeta: 1.392218

Optics:
		Detector:
			 Type: Fixed Slits
		Tube: 
			 Type: Fixed Slits


Datas:
 Pos [deg]       Rate [CPS]      ESD [-]

Range 1 ---> Iteration 1
   3.000        466.67	    23.664
   3.020        405.83	    22.068
   3.040        410.00	    22.181
   3.060        419.17	    22.428
   3.080        402.50	    21.977
   3.100        413.33	    22.271
   3.120        396.67	    21.817
   3.140        414.17	    22.293
   3.160        392.50	    21.703
   3.180        400.00	    21.909
   3.200        405.00	    22.045
   3.220        390.83	    21.656
   3.240        385.83	    21.517
   3.260        386.67	    21.541
   3.280        378.33	    21.307
   3.300        366.67	    20.976
   3.320        391.67	    21.679
   3.340        359.17	    20.761
   3.360        374.17	    21.190
   3.380        375.83	    21.237
   3.400        369.17	    21.048
   3.420        352.50	    20.567
   3.440        373.33	    21.166
   3.460        364.17	    20.905
   3.480        366.67	    20.976
   3.500        370.83	    21.095
   3.520        353.33	    20.591
   3.540        336.67	    20.100
   3.560        332.50	    19.975
   3.580        338.33	    20.149
   3.600        343.33	    20.298
   3.620        329.17	    19.875
   3.640        358.33	    20.736
   3.660        310.00	    19.287
   3.680        341.67	    20.248
   3.700        327.50	    19.824
   3.720        321.67	    19.647
   3.740        345.00	    20.347
   3.760        295.83	    18.841
   3.780        303.33	    19.079
   3.800        330.83	    19.925
   3.820        307.50	    19.209
   3.840        340.83	    20.224
   3.860        299.17	    18.947
   3.880        283.33	    18.439
   3.900        299.17	    18.947
   3.920        308.33	    19.235
   3.940        333.33	    20.000
   3.960        313.33	    19.391
   3.980        278.33	    18.276
   4.000        297.50	    18.894
   4.020        308.33	    19.235
   4.040        283.33	    18.439
   4.060        310.83	    19.313
   4.080        317.50	    19.519
   4.100        280.83	    18.358
   4.120        278.33	    18.276
   4.140        266.67	    17.889
   4.160        288.33	    18.601
   4.180        267.50	    17.916
   4.200        298.33	    18.921
   4.220        295.83	    18.841
   4.240        290.00	    18.655
   4.260        292.50	    18.735
   4.280        296.67	    18.868
   4.300        294.17	    18.788
   4.320        270.00	    18.000
   4.340        252.50	    17.407
   4.360        282.50	    18.412
   4.380        286.67	    18.547
   4.400        261.67	    17.720
   4.420        268.33	    17.944
   4.440        282.50	    18.412
   4.460        251.67	    17.378
   4.480        264.17	    17.804
   4.500        253.33	    17.436
   4.520        262.50	    17.748
   4.540        239.17	    16.941
   4.560        262.50	    17.748
   4.580        251.67	    17.378
   4.600        244.17	    17.117
   4.620        267.50	    17.916
   4.640        234.17	    16.763
   4.660        257.50	    17.578
   4.680        230.00	    16.613
   4.700        233.33	    16.733
   4.720        238.33	    16.912
   4.740        223.33	    16.371
   4.760        254.17	    17.464
   4.780        225.83	    16.462
   4.800        245.83	    17.176
   4.820        232.50	    16.703
   4.840        258.33	    17.607
   4.860        239.17	    16.941
   4.880        231.67	    16.673
   4.900        254.17	    17.464
   4.920        257.50	    17.578
   4.940        240.00	    16.971
   4.960        244.17	    17.117
   4.980        229.17	    16.583
   5.000        240.00	    16.971
   5.020        250.00	    17.321
   5.040        217.50	    16.155
   5.060        225.83	    16.462
   5.080        210.83	    15.906
   5.100        225.00	    16.432
   5.120        238.33	    16.912
   5.140        218.33	    16.186
   5.160        200.00	    15.492
   5.180        205.83	    15.716
   5.200        231.67	    16.673
   5.220        237.50	    16.882
   5.240        209.17	    15.843
   5.260        234.17	    16.763
   5.280        216.67	    16.125
   5.300        220.83	    16.279
   5.320        221.67	    16.310
   5.340        202.50	    15.588
   5.360        214.17	    16.031
   5.380        221.67	    16.310
   5.400        216.67	    16.125
   5.420        215.83	    16.093
   5.440        186.67	    14.967
   5.460        216.67	    16.125
   5.480        207.50	    15.780
   5.500        218.33	    16.186
   5.520        239.17	    16.941
   5.540        210.00	    15.875
   5.560        206.67	    15.748
   5.580        215.00	    16.062
   5.600        217.50	    16.155
   5.620        195.00	    15.297
   5.640        232.50	    16.703
   5.660        190.00	    15.100
   5.680        203.33	    15.620
   5.700        220.00	    16.248
   5.720        206.67	    15.748
   5.740        215.00	    16.062
   5.760        200.00	    15.492
   5.780        235.83	    16.823
   5.800        221.67	    16.310
   5.820        212.50	    15.969
   5.840        215.83	    16.093
   5.860        250.83	    17.349
   5.880        242.50	    17.059
   5.900        254.17	    17.464
   5.920        283.33	    18.439
   5.940        269.17	    17.972
   5.960        266.67	    17.889
   5.980        253.33	    17.436
   6.000        253.33	    17.436
   6.020        231.67	    16.673
   6.040        226.67	    16.492
   6.060        256.67	    17.550
   6.080        252.50	    17.407
   6.100        259.17	    17.635
   6.120        235.00	    16.793
   6.140        252.50	    17.407
   6.160        277.50	    18.248
   6.180        250.83	    17.349
   6.200        246.67	    17.205
   6.220        240.00	    16.971
   6.240        253.33	    17.436
   6.260        230.00	    16.613
   6.280        206.67	    15.748
   6.300        183.33	    14.832
   6.320        181.67	    14.765
   6.340        193.33	    15.232
   6.360        184.17	    14.866
   6.380        195.00	    15.297
   6.400        181.67	    14.765
   6.420        184.17	    14.866
   6.440        162.50	    13.964
   6.460        178.33	    14.629
   6.480        177.50	    14.595
   6.500        201.67	    15.556
   6.520        162.50	    13.964
   6.540        177.50	    14.595
   6.560        170.83	    14.318
   6.580        180.83	    14.731
   6.600        175.83	    14.526
   6.620        177.50	    14.595
   6.640        189.17	    15.067
   6.660        173.33	    14.422
   6.680        170.00	    14.283
   6.700        178.33	    14.629
   6.720        179.17	    14.663
   6.740        173.33	    14.422
   6.760        189.17	    15.067
   6.780        165.83	    14.107
   6.800        168.33	    14.213
   6.820        180.83	    14.731
   6.840        165.00	    14.071
   6.860        161.67	    13.928
   6.880        195.83	    15.330
   6.900        150.00	    13.416
   6.920        164.17	    14.036
   6.940        161.67	    13.928
   6.960        176.67	    14.560
   6.980        179.17	    14.663
   7.000        146.67	    13.266
   7.020        167.50	    14.177
   7.040        162.50	    13.964
   7.060        155.00	    13.638
   7.080        145.83	    13.229
   7.100        155.83	    13.675
   7.120        137.50	    12.845
   7.140        159.17	    13.820
   7.160        153.33	    13.565
   7.180        172.50	    14.387
   7.200        150.83	    13.454
   7.220        161.67	    13.928
   7.240        156.67	    13.711
   7.260        145.00	    13.191
   7.280        163.33	    14.000
   7.300        144.17	    13.153
   7.320        145.83	    13.229
   7.340        161.67	    13.928
   7.360        141.67	    13.038
   7.380        134.17	    12.689
   7.400        151.67	    13.491
   7.420        135.83	    12.767
   7.440        147.50	    13.304
   7.460        148.33	    13.342
   7.480        148.33	    13.342
   7.500        140.83	    13.000
   7.520        155.00	    13.638
   7.540        141.67	    13.038
   7.560        137.50	    12.845
   7.580        147.50	    13.304
   7.600        126.67	    12.329
   7.620        140.83	    13.000
   7.640        157.50	    13.748
   7.660        147.50	    13.304
   7.680        159.17	    13.820
   7.700        145.83	    13.229
   7.720        155.83	    13.675
   7.740        145.83	    13.229
   7.760        152.50	    13.528
   7.780        150.83	    13.454
   7.800        129.17	    12.450
   7.820        149.17	    13.379
   7.840        146.67	    13.266
   7.860        137.50	    12.845
   7.880        150.83	    13.454
   7.900        138.33	    12.884
   7.920        131.67	    12.570
   7.940        145.00	    13.191
   7.960        133.33	    12.649
   7.980        115.83	    11.790
   8.000        155.00	    13.638
   8.020        155.00	    13.638
   8.040        138.33	    12.884
   8.060        145.83	    13.229
   8.080        138.33	    12.884
   8.100        135.00	    12.728
   8.120        115.00	    11.747
   8.140        147.50	    13.304
   8.160        134.17	    12.689
   8.180        137.50	    12.845
   8.200        135.00	    12.728
   8.220        127.50	    12.369
   8.240        140.83	    13.000
   8.260        130.83	    12.530
   8.280        140.83	    13.000
   8.300        145.83	    13.229
   8.320        132.50	    12.610
   8.340        125.00	    12.247
   8.360        147.50	    13.304
   8.380        138.33	    12.884
   8.400        160.00	    13.856
   8.420        137.50	    12.845
   8.440        141.67	    13.038
   8.460        148.33	    13.342
   8.480        158.33	    13.784
   8.500        146.67	    13.266
   8.520        162.50	    13.964
   8.540        145.83	    13.229
   8.560        180.00	    14.697
   8.580        169.17	    14.248
   8.600        157.50	    13.748
   8.620        197.50	    15.395
   8.640        183.33	    14.832
   8.660        200.00	    15.492
   8.680        203.33	    15.620
   8.700        190.00	    15.100
   8.720        272.50	    18.083
   8.740        291.67	    18.708
   8.760        312.50	    19.365
   8.780        341.67	    20.248
   8.800        484.17	    24.104
   8.820        629.17	    27.477
   8.840        797.50	    30.935
   8.860        795.83	    30.903
   8.880        644.17	    27.803
   8.900        408.33	    22.136
   8.920        255.00	    17.493
   8.940        167.50	    14.177
   8.960        167.50	    14.177
   8.980        161.67	    13.928
   9.000        134.17	    12.689
   9.020        128.33	    12.410
   9.040        129.17	    12.450
   9.060        156.67	    13.711
   9.080        131.67	    12.570
   9.100        132.50	    12.610
   9.120        132.50	    12.610
   9.140        146.67	    13.266
   9.160        130.83	    12.530
   9.180        144.17	    13.153
   9.200        117.50	    11.874
   9.220        128.33	    12.410
   9.240        119.17	    11.958
   9.260        134.17	    12.689
   9.280        121.67	    12.083
   9.300        135.00	    12.728
   9.320        135.83	    12.767
   9.340        120.00	    12.000
   9.360        121.67	    12.083
   9.380        120.83	    12.042
   9.400        137.50	    12.845
   9.420        125.83	    12.288
   9.440        115.00	    11.747
   9.460        115.00	    11.747
   9.480        115.00	    11.747
   9.500        110.00	    11.489
   9.520        116.67	    11.832
   9.540         95.00	    10.677
   9.560        110.83	    11.533
   9.580        110.00	    11.489
   9.600        107.50	    11.358
   9.620        109.17	    11.446
   9.640        108.33	    11.402
   9.660        106.67	    11.314
   9.680         83.33	    10.000
   9.700        100.83	    11.000
   9.720        112.50	    11.619
   9.740        109.17	    11.446
   9.760        110.83	    11.533
   9.780        109.17	    11.446
   9.800        102.50	    11.091
   9.820        110.83	    11.533
   9.840        102.50	    11.091
   9.860         99.17	    10.909
   9.880        110.00	    11.489
   9.900         90.83	    10.440
   9.920        114.17	    11.705
   9.940        103.33	    11.136
   9.960        112.50	    11.619
   9.980         95.83	    10.724
  10.000         95.83	    10.724
  10.020         95.00	    10.677
  10.040        116.67	    11.832
  10.060         96.67	    10.770
  10.080        101.67	    11.045
  10.100         90.83	    10.440
  10.120        103.33	    11.136
  10.140        101.67	    11.045
  10.160        102.50	    11.091
  10.180         93.33	    10.583
  10.200        117.50	    11.874
  10.220        113.33	    11.662
  10.240        112.50	    11.619
  10.260        104.17	    11.180
  10.280        106.67	    11.314
  10.300        115.00	    11.747
  10.320        103.33	    11.136
  10.340        105.83	    11.269
  10.360         82.50	     9.950
  10.380        113.33	    11.662
  10.400        109.17	    11.446
  10.420        123.33	    12.166
  10.440        143.33	    13.115
  10.460        125.83	    12.288
  10.480        136.67	    12.806
  10.500        172.50	    14.387
  10.520        143.33	    13.115
  10.540        129.17	    12.450
  10.560        102.50	    11.091
  10.580         90.83	    10.440
  10.600        117.50	    11.874
  10.620        105.00	    11.225
  10.640         90.00	    10.392
  10.660         88.33	    10.296
  10.680         95.83	    10.724
  10.700         82.50	     9.950
  10.720         90.00	    10.392
  10.740         90.83	    10.440
  10.760         88.33	    10.296
  10.780         85.00	    10.100
  10.800         94.17	    10.630
  10.820         92.50	    10.536
  10.840         85.83	    10.149
  10.860         73.33	     9.381
  10.880         81.67	     9.899
  10.900        105.00	    11.225
  10.920        104.17	    11.180
  10.940        110.00	    11.489
  10.960         90.00	    10.392
  10.980         96.67	    10.770
  11.000         88.33	    10.296
  11.020         92.50	    10.536
  11.040         94.17	    10.630
  11.060         79.17	     9.747
  11.080         89.17	    10.344
  11.100         80.83	     9.849
  11.120         77.50	     9.644
  11.140         91.67	    10.488
  11.160         99.17	    10.909
  11.180         86.67	    10.198
  11.200         89.17	    10.344
  11.220         85.00	    10.100
  11.240         85.00	    10.100
  11.260         81.67	     9.899
  11.280        105.00	    11.225
  11.300         95.00	    10.677
  11.320         90.00	    10.392
  11.340         90.83	    10.440
  11.360         89.17	    10.344
  11.380         81.67	     9.899
  11.400         80.83	     9.849
  11.420         97.50	    10.817
  11.440         89.17	    10.344
  11.460         96.67	    10.770
  11.480         92.50	    10.536
  11.500         99.17	    10.909
  11.520         92.50	    10.536
  11.540         90.00	    10.392
  11.560         86.67	    10.198
  11.580        110.83	    11.533
  11.600         95.00	    10.677
  11.620         89.17	    10.344
  11.640         85.83	    10.149
  11.660         87.50	    10.247
  11.680         94.17	    10.630
  11.700         80.83	     9.849
  11.720         76.67	     9.592
  11.740         84.17	    10.050
  11.760         95.00	    10.677
  11.780         93.33	    10.583
  11.800        105.83	    11.269
  11.820        105.00	    11.225
  11.840         96.67	    10.770
  11.860         83.33	    10.000
  11.880         96.67	    10.770
  11.900        108.33	    11.402
  11.920        105.00	    11.225
  11.940         86.67	    10.198
  11.960         99.17	    10.909
  11.980         99.17	    10.909
  12.000        102.50	    11.091
  12.020        120.00	    12.000
  12.040        115.83	    11.790
  12.060        149.17	    13.379
  12.080        174.17	    14.457
  12.100        174.17	    14.457
  12.120        212.50	    15.969
  12.140        245.00	    17.146
  12.160        295.83	    18.841
  12.180        261.67	    17.720
  12.200        210.00	    15.875
  12.220        164.17	    14.036
  12.240        139.17	    12.923
  12.260        131.67	    12.570
  12.280        160.00	    13.856
  12.300        149.17	    13.379
  12.320        158.33	    13.784
  12.340        164.17	    14.036
  12.360        143.33	    13.115
  12.380        169.17	    14.248
  12.400        177.50	    14.595
  12.420        209.17	    15.843
  12.440        258.33	    17.607
  12.460        308.33	    19.235
  12.480        300.83	    19.000
  12.500        281.67	    18.385
  12.520        210.00	    15.875
  12.540        137.50	    12.845
  12.560        118.33	    11.916
  12.580        117.50	    11.874
  12.600         99.17	    10.909
  12.620         89.17	    10.344
  12.640         85.00	    10.100
  12.660         83.33	    10.000
  12.680         75.83	     9.539
  12.700         85.00	    10.100
  12.720         80.00	     9.798
  12.740         80.00	     9.798
  12.760         81.67	     9.899
  12.780         89.17	    10.344
  12.800         82.50	     9.950
  12.820         68.33	     9.055
  12.840         75.83	     9.539
  12.860         86.67	    10.198
  12.880         80.00	     9.798
  12.900         71.67	     9.274
  12.920         87.50	    10.247
  12.940         71.67	     9.274
  12.960         83.33	    10.000
  12.980         82.50	     9.950
  13.000         92.50	    10.536
  13.020         83.33	    10.000
  13.040         84.17	    10.050
  13.060         71.67	     9.274
  13.080         70.00	     9.165
  13.100         76.67	     9.592
  13.120         70.00	     9.165
  13.140         77.50	     9.644
  13.160         55.83	     8.185
  13.180         68.33	     9.055
  13.200         70.00	     9.165
  13.220         65.00	     8.832
  13.240         79.17	     9.747
  13.260         81.67	     9.899
  13.280         75.83	     9.539
  13.300         71.67	     9.274
  13.320         94.17	    10.630
  13.340         80.83	     9.849
  13.360         72.50	     9.327
  13.380         70.00	     9.165
  13.400         69.17	     9.110
  13.420         79.17	     9.747
  13.440         76.67	     9.592
  13.460         88.33	    10.296
  13.480         82.50	     9.950
  13.500         63.33	     8.718
  13.520         66.67	     8.944
  13.540         70.83	     9.220
  13.560         94.17	    10.630
  13.580        106.67	    11.314
  13.600         89.17	    10.344
  13.620         59.17	     8.426
  13.640         64.17	     8.775
  13.660         86.67	    10.198
  13.680         85.83	    10.149
  13.700         65.00	     8.832
  13.720         99.17	    10.909
  13.740         70.00	     9.165
  13.760         85.83	    10.149
  13.780         79.17	     9.747
  13.800         89.17	    10.344
  13.820        121.67	    12.083
  13.840         81.67	     9.899
  13.860         90.00	    10.392
  13.880         74.17	     9.434
  13.900         90.00	    10.392
  13.920         69.17	     9.110
  13.940         85.83	    10.149
  13.960         77.50	     9.644
  13.980         79.17	     9.747
  14.000         76.67	     9.592
  14.020         72.50	     9.327
  14.040         60.00	     8.485
  14.060         73.33	     9.381
  14.080         63.33	     8.718
  14.100         73.33	     9.381
  14.120         65.00	     8.832
  14.140         75.00	     9.487
  14.160         67.50	     9.000
  14.180         75.83	     9.539
  14.200         72.50	     9.327
  14.220         76.67	     9.592
  14.240         84.17	    10.050
  14.260         68.33	     9.055
  14.280         82.50	     9.950
  14.300         66.67	     8.944
  14.320         62.50	     8.660
  14.340         65.83	     8.888
  14.360         76.67	     9.592
  14.380         73.33	     9.381
  14.400         56.67	     8.246
  14.420         65.00	     8.832
  14.440         63.33	     8.718
  14.460         66.67	     8.944
  14.480         68.33	     9.055
  14.500         61.67	     8.602
  14.520         66.67	     8.944
  14.540         68.33	     9.055
  14.560         64.17	     8.775
  14.580         73.33	     9.381
  14.600         70.83	     9.220
  14.620         75.00	     9.487
  14.640         65.83	     8.888
  14.660         67.50	     9.000
  14.680         62.50	     8.660
  14.700         65.83	     8.888
  14.720         54.17	     8.062
  14.740         70.00	     9.165
  14.760         59.17	     8.426
  14.780         50.83	     7.810
  14.800         65.83	     8.888
  14.820         74.17	     9.434
  14.840         60.83	     8.544
  14.860         65.00	     8.832
  14.880         74.17	     9.434
  14.900         56.67	     8.246
  14.920         77.50	     9.644
  14.940         77.50	     9.644
  14.960         82.50	     9.950
  14.980         68.33	     9.055
  15.000         80.00	     9.798
  15.020         69.17	     9.110
  15.040         88.33	    10.296
  15.060         64.17	     8.775
  15.080         75.00	     9.487
  15.100         76.67	     9.592
  15.120         70.00	     9.165
  15.140         77.50	     9.644
  15.160         72.50	     9.327
  15.180         60.83	     8.544
  15.200         57.50	     8.307
  15.220         62.50	     8.660
  15.240         75.00	     9.487
  15.260         65.83	     8.888
  15.280         66.67	     8.944
  15.300         57.50	     8.307
  15.320         64.17	     8.775
  15.340         65.83	     8.888
  15.360         56.67	     8.246
  15.380         66.67	     8.944
  15.400         70.83	     9.220
  15.420         52.50	     7.937
  15.440         64.17	     8.775
  15.460         59.17	     8.426
  15.480         60.83	     8.544
  15.500         60.00	     8.485
  15.520         60.83	     8.544
  15.540         56.67	     8.246
  15.560         59.17	     8.426
  15.580         58.33	     8.367
  15.600         53.33	     8.000
  15.620         70.83	     9.220
  15.640         50.00	     7.746
  15.660         63.33	     8.718
  15.680         80.83	     9.849
  15.700         49.17	     7.681
  15.720         54.17	     8.062
  15.740         52.50	     7.937
  15.760         60.83	     8.544
  15.780         56.67	     8.246
  15.800         57.50	     8.307
  15.820         61.67	     8.602
  15.840         75.00	     9.487
  15.860         50.00	     7.746
  15.880         61.67	     8.602
  15.900         61.67	     8.602
  15.920         62.50	     8.660
  15.940         54.17	     8.062
  15.960         75.00	     9.487
  15.980         56.67	     8.246
  16.000         67.50	     9.000
  16.020         56.67	     8.246
  16.040         66.67	     8.944
  16.060         60.83	     8.544
  16.080         68.33	     9.055
  16.100         45.83	     7.416
  16.120         59.17	     8.426
  16.140         50.00	     7.746
  16.160         55.00	     8.124
  16.180         50.83	     7.810
  16.200         45.83	     7.416
  16.220         65.83	     8.888
  16.240         68.33	     9.055
  16.260         56.67	     8.246
  16.280         58.33	     8.367
  16.300         73.33	     9.381
  16.320         50.00	     7.746
  16.340         75.00	     9.487
  16.360         64.17	     8.775
  16.380         50.83	     7.810
  16.400         49.17	     7.681
  16.420         52.50	     7.937
  16.440         61.67	     8.602
  16.460         56.67	     8.246
  16.480         59.17	     8.426
  16.500         55.83	     8.185
  16.520         68.33	     9.055
  16.540         61.67	     8.602
  16.560         56.67	     8.246
  16.580         53.33	     8.000
  16.600         55.00	     8.124
  16.620         51.67	     7.874
  16.640         56.67	     8.246
  16.660         54.17	     8.062
  16.680         70.00	     9.165
  16.700         66.67	     8.944
  16.720         65.83	     8.888
  16.740         73.33	     9.381
  16.760         57.50	     8.307
  16.780         60.83	     8.544
  16.800         51.67	     7.874
  16.820         65.00	     8.832
  16.840         47.50	     7.550
  16.860         54.17	     8.062
  16.880         59.17	     8.426
  16.900         51.67	     7.874
  16.920         49.17	     7.681
  16.940         39.17	     6.856
  16.960         52.50	     7.937
  16.980         62.50	     8.660
  17.000         60.83	     8.544
  17.020         70.00	     9.165
  17.040         65.83	     8.888
  17.060         65.83	     8.888
  17.080         47.50	     7.550
  17.100         53.33	     8.000
  17.120         57.50	     8.307
  17.140         60.83	     8.544
  17.160         54.17	     8.062
  17.180         54.17	     8.062
  17.200         58.33	     8.367
  17.220         62.50	     8.660
  17.240         54.17	     8.062
  17.260         78.33	     9.695
  17.280         67.50	     9.000
  17.300         86.67	    10.198
  17.320         69.17	     9.110
  17.340         73.33	     9.381
  17.360         60.00	     8.485
  17.380         56.67	     8.246
  17.400         57.50	     8.307
  17.420         61.67	     8.602
  17.440         51.67	     7.874
  17.460         60.83	     8.544
  17.480         54.17	     8.062
  17.500         56.67	     8.246
  17.520         62.50	     8.660
  17.540         63.33	     8.718
  17.560         74.17	     9.434
  17.580         68.33	     9.055
  17.600         69.17	     9.110
  17.620         78.33	     9.695
  17.640         62.50	     8.660
  17.660         84.17	    10.050
  17.680        102.50	    11.091
  17.700        141.67	    13.038
  17.720        145.83	    13.229
  17.740        232.50	    16.703
  17.760        266.67	    17.889
  17.780        305.00	    19.131
  17.800        370.00	    21.071
  17.820        297.50	    18.894
  17.840        223.33	    16.371
  17.860        161.67	    13.928
  17.880        137.50	    12.845
  17.900         81.67	     9.899
  17.920         78.33	     9.695
  17.940         66.67	     8.944
  17.960         65.83	     8.888
  17.980         68.33	     9.055
  18.000         69.17	     9.110
  18.020         73.33	     9.381
  18.040         60.83	     8.544
  18.060         55.00	     8.124
  18.080         55.83	     8.185
  18.100         52.50	     7.937
  18.120         55.00	     8.124
  18.140         57.50	     8.307
  18.160         55.83	     8.185
  18.180         51.67	     7.874
  18.200         55.00	     8.124
  18.220         63.33	     8.718
  18.240         48.33	     7.616
  18.260         52.50	     7.937
  18.280         55.00	     8.124
  18.300         57.50	     8.307
  18.320         70.00	     9.165
  18.340         58.33	     8.367
  18.360         70.83	     9.220
  18.380         69.17	     9.110
  18.400         56.67	     8.246
  18.420         62.50	     8.660
  18.440         81.67	     9.899
  18.460         78.33	     9.695
  18.480         75.83	     9.539
  18.500         65.00	     8.832
  18.520         95.00	    10.677
  18.540         66.67	     8.944
  18.560         80.00	     9.798
  18.580         68.33	     9.055
  18.600         64.17	     8.775
  18.620         50.00	     7.746
  18.640         72.50	     9.327
  18.660         65.83	     8.888
  18.680         74.17	     9.434
  18.700         68.33	     9.055
  18.720         94.17	    10.630
  18.740        130.00	    12.490
  18.760        154.17	    13.601
  18.780        137.50	    12.845
  18.800        117.50	    11.874
  18.820        114.17	    11.705
  18.840         74.17	     9.434
  18.860         70.83	     9.220
  18.880         67.50	     9.000
  18.900         52.50	     7.937
  18.920         61.67	     8.602
  18.940         76.67	     9.592
  18.960         60.83	     8.544
  18.980         57.50	     8.307
  19.000         55.00	     8.124
  19.020         61.67	     8.602
  19.040         60.00	     8.485
  19.060         52.50	     7.937
  19.080         62.50	     8.660
  19.100         66.67	     8.944
  19.120         57.50	     8.307
  19.140         55.83	     8.185
  19.160         69.17	     9.110
  19.180         72.50	     9.327
  19.200         76.67	     9.592
  19.220         60.83	     8.544
  19.240         70.00	     9.165
  19.260         65.83	     8.888
  19.280         71.67	     9.274
  19.300         56.67	     8.246
  19.320         60.83	     8.544
  19.340         58.33	     8.367
  19.360         60.00	     8.485
  19.380         53.33	     8.000
  19.400         58.33	     8.367
  19.420         64.17	     8.775
  19.440         54.17	     8.062
  19.460         63.33	     8.718
  19.480         61.67	     8.602
  19.500         50.83	     7.810
  19.520         47.50	     7.550
  19.540         56.67	     8.246
  19.560         74.17	     9.434
  19.580         60.00	     8.485
  19.600         80.83	     9.849
  19.620         70.83	     9.220
  19.640         75.83	     9.539
  19.660         80.00	     9.798
  19.680         74.17	     9.434
  19.700         93.33	    10.583
  19.720         77.50	     9.644
  19.740         84.17	    10.050
  19.760        105.83	    11.269
  19.780         90.00	    10.392
  19.800        111.67	    11.576
  19.820         92.50	    10.536
  19.840         91.67	    10.488
  19.860         91.67	    10.488
  19.880         79.17	     9.747
  19.900         69.17	     9.110
  19.920         69.17	     9.110
  19.940         63.33	     8.718
  19.960         63.33	     8.718
  19.980         57.50	     8.307
  20.000         60.00	     8.485
  20.020         47.50	     7.550
  20.040         72.50	     9.327
  20.060         70.83	     9.220
  20.080         61.67	     8.602
  20.100         57.50	     8.307
  20.120         57.50	     8.307
  20.140         76.67	     9.592
  20.160         60.83	     8.544
  20.180         58.33	     8.367
  20.200         58.33	     8.367
  20.220         57.50	     8.307
  20.240         54.17	     8.062
  20.260         60.83	     8.544
  20.280         60.00	     8.485
  20.300         51.67	     7.874
  20.320         44.17	     7.280
  20.340         61.67	     8.602
  20.360         56.67	     8.246
  20.380         50.83	     7.810
  20.400         52.50	     7.937
  20.420         66.67	     8.944
  20.440         50.00	     7.746
  20.460         50.00	     7.746
  20.480         54.17	     8.062
  20.500         50.83	     7.810
  20.520         42.50	     7.141
  20.540         55.83	     8.185
  20.560         75.83	     9.539
  20.580         61.67	     8.602
  20.600         69.17	     9.110
  20.620         63.33	     8.718
  20.640         61.67	     8.602
  20.660         70.00	     9.165
  20.680         52.50	     7.937
  20.700         77.50	     9.644
  20.720         75.83	     9.539
  20.740        104.17	    11.180
  20.760        163.33	    14.000
  20.780        245.00	    17.146
  20.800        298.33	    18.921
  20.820        331.67	    19.950
  20.840        279.17	    18.303
  20.860        220.83	    16.279
  20.880        183.33	    14.832
  20.900        138.33	    12.884
  20.920        120.00	    12.000
  20.940        113.33	    11.662
  20.960        109.17	    11.446
  20.980         96.67	    10.770
  21.000        110.83	    11.533
  21.020         89.17	    10.344
  21.040         60.83	     8.544
  21.060         70.83	     9.220
  21.080         60.83	     8.544
  21.100         59.17	     8.426
  21.120         52.50	     7.937
  21.140         40.00	     6.928
  21.160         57.50	     8.307
  21.180         38.33	     6.782
  21.200         66.67	     8.944
  21.220         49.17	     7.681
  21.240         54.17	     8.062
  21.260         37.50	     6.708
  21.280         51.67	     7.874
  21.300         45.83	     7.416
  21.320         50.83	     7.810
  21.340         53.33	     8.000
  21.360         40.83	     7.000
  21.380         64.17	     8.775
  21.400         59.17	     8.426
  21.420         35.83	     6.557
  21.440         65.00	     8.832
  21.460         46.67	     7.483
  21.480         65.83	     8.888
  21.500         52.50	     7.937
  21.520         54.17	     8.062
  21.540         55.83	     8.185
  21.560         63.33	     8.718
  21.580         67.50	     9.000
  21.600         65.00	     8.832
  21.620         48.33	     7.616
  21.640         46.67	     7.483
  21.660         61.67	     8.602
  21.680         59.17	     8.426
  21.700         41.67	     7.071
  21.720         59.17	     8.426
  21.740         43.33	     7.211
  21.760         46.67	     7.483
  21.780         40.83	     7.000
  21.800         52.50	     7.937
  21.820         48.33	     7.616
  21.840         54.17	     8.062
  21.860         53.33	     8.000
  21.880         62.50	     8.660
  21.900         55.83	     8.185
  21.920         67.50	     9.000
  21.940         88.33	    10.296
  21.960        128.33	    12.410
  21.980        160.00	    13.856
  22.000        166.67	    14.142
  22.020        169.17	    14.248
  22.040        152.50	    13.528
  22.060        130.83	    12.530
  22.080        125.00	    12.247
  22.100         88.33	    10.296
  22.120         73.33	     9.381
  22.140         52.50	     7.937
  22.160         65.83	     8.888
  22.180         47.50	     7.550
  22.200         55.83	     8.185
  22.220         62.50	     8.660
  22.240         50.83	     7.810
  22.260         55.83	     8.185
  22.280         63.33	     8.718
  22.300         50.83	     7.810
  22.320         70.83	     9.220
  22.340         73.33	     9.381
  22.360         46.67	     7.483
  22.380         55.00	     8.124
  22.400         60.83	     8.544
  22.420         60.83	     8.544
  22.440         52.50	     7.937
  22.460         72.50	     9.327
  22.480         61.67	     8.602
  22.500         67.50	     9.000
  22.520         73.33	     9.381
  22.540         66.67	     8.944
  22.560         50.00	     7.746
  22.580         50.00	     7.746
  22.600         50.83	     7.810
  22.620         47.50	     7.550
  22.640         52.50	     7.937
  22.660         55.83	     8.185
  22.680         50.00	     7.746
  22.700         49.17	     7.681
  22.720         53.33	     8.000
  22.740         51.67	     7.874
  22.760         50.83	     7.810
  22.780         63.33	     8.718
  22.800         60.00	     8.485
  22.820         80.83	     9.849
  22.840         65.83	     8.888
  22.860         78.33	     9.695
  22.880         80.00	     9.798
  22.900         80.00	     9.798
  22.920         86.67	    10.198
  22.940         71.67	     9.274
  22.960         71.67	     9.274
  22.980         83.33	    10.000
  23.000         89.17	    10.344
  23.020         89.17	    10.344
  23.040         69.17	     9.110
  23.060         75.00	     9.487
  23.080         70.00	     9.165
  23.100         56.67	     8.246
  23.120         51.67	     7.874
  23.140         60.00	     8.485
  23.160         58.33	     8.367
  23.180         51.67	     7.874
  23.200         53.33	     8.000
  23.220         55.83	     8.185
  23.240         69.17	     9.110
  23.260         55.00	     8.124
  23.280         69.17	     9.110
  23.300         56.67	     8.246
  23.320         72.50	     9.327
  23.340         70.00	     9.165
  23.360         84.17	    10.050
  23.380         78.33	     9.695
  23.400         91.67	    10.488
  23.420        117.50	    11.874
  23.440        130.83	    12.530
  23.460        174.17	    14.457
  23.480        251.67	    17.378
  23.500        225.00	    16.432
  23.520        217.50	    16.155
  23.540        210.83	    15.906
  23.560        174.17	    14.457
  23.580        129.17	    12.450
  23.600        107.50	    11.358
  23.620         94.17	    10.630
  23.640         83.33	    10.000
  23.660         85.83	    10.149
  23.680         71.67	     9.274
  23.700         86.67	    10.198
  23.720         71.67	     9.274
  23.740         64.17	     8.775
  23.760         85.83	    10.149
  23.780         81.67	     9.899
  23.800         82.50	     9.950
  23.820         72.50	     9.327
  23.840         86.67	    10.198
  23.860         91.67	    10.488
  23.880        115.00	    11.747
  23.900         96.67	    10.770
  23.920         98.33	    10.863
  23.940         99.17	    10.909
  23.960        109.17	    11.446
  23.980         80.83	     9.849
  24.000         82.50	     9.950
  24.020         82.50	     9.950
  24.040         77.50	     9.644
  24.060         91.67	    10.488
  24.080        130.00	    12.490
  24.100        126.67	    12.329
  24.120        123.33	    12.166
  24.140        120.00	    12.000
  24.160        122.50	    12.124
  24.180        131.67	    12.570
  24.200        149.17	    13.379
  24.220        164.17	    14.036
  24.240        213.33	    16.000
  24.260        270.83	    18.028
  24.280        287.50	    18.574
  24.300        235.00	    16.793
  24.320        184.17	    14.866
  24.340        152.50	    13.528
  24.360        135.83	    12.767
  24.380         90.83	    10.440
  24.400         76.67	     9.592
  24.420         83.33	    10.000
  24.440         72.50	     9.327
  24.460         90.00	    10.392
  24.480         99.17	    10.909
  24.500        130.00	    12.490
  24.520        140.83	    13.000
  24.540        175.00	    14.491
  24.560        189.17	    15.067
  24.580        195.00	    15.297
  24.600        197.50	    15.395
  24.620        182.50	    14.799
  24.640        159.17	    13.820
  24.660        135.83	    12.767
  24.680        115.83	    11.790
  24.700        127.50	    12.369
  24.720        115.00	    11.747
  24.740        101.67	    11.045
  24.760         91.67	    10.488
  24.780         99.17	    10.909
  24.800         96.67	    10.770
  24.820         78.33	     9.695
  24.840         93.33	    10.583
  24.860         96.67	    10.770
  24.880         75.83	     9.539
  24.900         78.33	     9.695
  24.920         86.67	    10.198
  24.940         94.17	    10.630
  24.960         71.67	     9.274
  24.980         81.67	     9.899
  25.000        101.67	    11.045
  25.020        105.00	    11.225
  25.040        110.00	    11.489
  25.060        145.83	    13.229
  25.080        180.00	    14.697
  25.100        198.33	    15.427
  25.120        219.17	    16.217
  25.140        224.17	    16.401
  25.160        220.00	    16.248
  25.180        189.17	    15.067
  25.200        158.33	    13.784
  25.220        128.33	    12.410
  25.240        118.33	    11.916
  25.260         81.67	     9.899
  25.280         71.67	     9.274
  25.300        100.83	    11.000
  25.320         95.00	    10.677
  25.340        140.83	    13.000
  25.360        140.00	    12.961
  25.380        130.83	    12.530
  25.400        160.83	    13.892
  25.420        139.17	    12.923
  25.440        146.67	    13.266
  25.460        156.67	    13.711
  25.480        165.00	    14.071
  25.500        152.50	    13.528
  25.520        135.00	    12.728
  25.540        145.00	    13.191
  25.560        115.00	    11.747
  25.580        117.50	    11.874
  25.600        117.50	    11.874
  25.620        151.67	    13.491
  25.640        161.67	    13.928
  25.660        123.33	    12.166
  25.680        136.67	    12.806
  25.700        120.83	    12.042
  25.720        105.00	    11.225
  25.740         77.50	     9.644
  25.760         81.67	     9.899
  25.780         71.67	     9.274
  25.800         73.33	     9.381
  25.820         57.50	     8.307
  25.840         75.83	     9.539
  25.860         67.50	     9.000
  25.880         65.83	     8.888
  25.900         72.50	     9.327
  25.920         54.17	     8.062
  25.940         74.17	     9.434
  25.960         64.17	     8.775
  25.980         72.50	     9.327
  26.000         70.83	     9.220
  26.020         55.00	     8.124
  26.040         64.17	     8.775
  26.060         57.50	     8.307
  26.080         74.17	     9.434
  26.100         71.67	     9.274
  26.120         79.17	     9.747
  26.140         82.50	     9.950
  26.160         79.17	     9.747
  26.180         70.83	     9.220
  26.200         75.83	     9.539
  26.220         86.67	    10.198
  26.240         86.67	    10.198
  26.260        102.50	    11.091
  26.280        100.83	    11.000
  26.300        122.50	    12.124
  26.320        116.67	    11.832
  26.340        130.83	    12.530
  26.360        145.83	    13.229
  26.380        185.00	    14.900
  26.400        184.17	    14.866
  26.420        211.67	    15.937
  26.440        211.67	    15.937
  26.460        240.83	    17.000
  26.480        330.83	    19.925
  26.500        606.67	    26.981
  26.520        957.50	    33.897
  26.540       1128.33	    36.797
  26.560       1625.00	    44.159
  26.580       2715.00	    57.079
  26.600       2826.67	    58.241
  26.620       2089.17	    50.070
  26.640       1855.00	    47.181
  26.660       1623.33	    44.136
  26.680       1206.67	    38.053
  26.700        740.00	    29.799
  26.720        543.33	    25.534
  26.740        450.00	    23.238
  26.760        534.17	    25.318
  26.780        576.67	    26.306
  26.800        749.17	    29.983
  26.820        794.17	    30.871
  26.840        904.17	    32.939
  26.860        906.67	    32.985
  26.880        766.67	    30.332
  26.900        619.17	    27.258
  26.920        558.33	    25.884
  26.940        411.67	    22.226
  26.960        325.83	    19.774
  26.980        262.50	    17.748
  27.000        217.50	    16.155
  27.020        201.67	    15.556
  27.040        189.17	    15.067
  27.060        158.33	    13.784
  27.080        162.50	    13.964
  27.100        152.50	    13.528
  27.120        134.17	    12.689
  27.140        124.17	    12.207
  27.160         99.17	    10.909
  27.180         79.17	     9.747
  27.200        101.67	    11.045
  27.220         99.17	    10.909
  27.240         98.33	    10.863
  27.260        104.17	    11.180
  27.280        113.33	    11.662
  27.300        144.17	    13.153
  27.320        155.83	    13.675
  27.340        185.83	    14.933
  27.360        172.50	    14.387
  27.380        180.83	    14.731
  27.400        172.50	    14.387
  27.420        186.67	    14.967
  27.440        202.50	    15.588
  27.460        160.00	    13.856
  27.480        253.33	    17.436
  27.500        227.50	    16.523
  27.520        165.83	    14.107
  27.540        158.33	    13.784
  27.560        140.00	    12.961
  27.580        136.67	    12.806
  27.600        117.50	    11.874
  27.620        125.00	    12.247
  27.640        141.67	    13.038
  27.660        167.50	    14.177
  27.680        204.17	    15.652
  27.700        229.17	    16.583
  27.720        221.67	    16.310
  27.740        223.33	    16.371
  27.760        219.17	    16.217
  27.780        231.67	    16.673
  27.800        238.33	    16.912
  27.820        229.17	    16.583
  27.840        275.83	    18.193
  27.860        389.17	    21.610
  27.880        417.50	    22.383
  27.900        406.67	    22.091
  27.920        389.17	    21.610
  27.940        318.33	    19.545
  27.960        291.67	    18.708
  27.980        243.33	    17.088
  28.000        188.33	    15.033
  28.020        139.17	    12.923
  28.040        169.17	    14.248
  28.060        145.83	    13.229
  28.080        170.83	    14.318
  28.100        179.17	    14.663
  28.120        162.50	    13.964
  28.140        165.00	    14.071
  28.160        143.33	    13.115
  28.180        106.67	    11.314
  28.200        115.83	    11.790
  28.220        130.00	    12.490
  28.240        118.33	    11.916
  28.260        125.00	    12.247
  28.280        115.83	    11.790
  28.300        111.67	    11.576
  28.320        118.33	    11.916
  28.340         74.17	     9.434
  28.360         94.17	    10.630
  28.380         85.83	    10.149
  28.400         66.67	     8.944
  28.420         55.00	     8.124
  28.440         60.83	     8.544
  28.460         81.67	     9.899
  28.480         70.83	     9.220
  28.500         69.17	     9.110
  28.520         77.50	     9.644
  28.540         80.00	     9.798
  28.560        106.67	    11.314
  28.580        115.83	    11.790
  28.600        125.00	    12.247
  28.620         96.67	    10.770
  28.640        122.50	    12.124
  28.660        105.83	    11.269
  28.680        107.50	    11.358
  28.700        101.67	    11.045
  28.720         83.33	    10.000
  28.740         77.50	     9.644
  28.760         71.67	     9.274
  28.780         83.33	    10.000
  28.800         74.17	     9.434
  28.820         66.67	     8.944
  28.840         58.33	     8.367
  28.860         59.17	     8.426
  28.880         54.17	     8.062
  28.900         67.50	     9.000
  28.920         60.83	     8.544
  28.940         53.33	     8.000
  28.960         44.17	     7.280
  28.980         53.33	     8.000
  29.000         46.67	     7.483
  29.020         60.00	     8.485
  29.040         50.83	     7.810
  29.060         58.33	     8.367
  29.080         47.50	     7.550
  29.100         45.00	     7.348
  29.120         35.00	     6.481
  29.140         43.33	     7.211
  29.160         54.17	     8.062
  29.180         55.00	     8.124
  29.200         55.83	     8.185
  29.220         50.00	     7.746
  29.240         32.50	     6.245
  29.260         45.83	     7.416
  29.280         40.83	     7.000
  29.300         55.00	     8.124
  29.320         41.67	     7.071
  29.340         53.33	     8.000
  29.360         43.33	     7.211
  29.380         51.67	     7.874
  29.400         54.17	     8.062
  29.420         48.33	     7.616
  29.440         52.50	     7.937
  29.460         55.83	     8.185
  29.480         56.67	     8.246
  29.500         58.33	     8.367
  29.520         48.33	     7.616
  29.540         51.67	     7.874
  29.560         61.67	     8.602
  29.580         45.83	     7.416
  29.600         62.50	     8.660
  29.620         53.33	     8.000
  29.640         52.50	     7.937
  29.660         49.17	     7.681
  29.680         66.67	     8.944
  29.700         67.50	     9.000
  29.720         95.00	    10.677
  29.740         85.83	    10.149
  29.760        104.17	    11.180
  29.780        138.33	    12.884
  29.800        130.00	    12.490
  29.820        184.17	    14.866
  29.840        161.67	    13.928
  29.860        155.83	    13.675
  29.880        136.67	    12.806
  29.900        125.00	    12.247
  29.920        110.00	    11.489
  29.940        113.33	    11.662
  29.960        105.83	    11.269
  29.980         98.33	    10.863
  30.000         87.50	    10.247
  30.020        104.17	    11.180
  30.040        101.67	    11.045
  30.060         83.33	    10.000
  30.080         97.50	    10.817
  30.100         91.67	    10.488
  30.120        100.83	    11.000
  30.140         94.17	    10.630
  30.160         75.83	     9.539
  30.180         70.00	     9.165
  30.200        105.00	    11.225
  30.220         93.33	    10.583
  30.240         75.00	     9.487
  30.260         83.33	    10.000
  30.280         79.17	     9.747
  30.300         83.33	    10.000
  30.320         85.00	    10.100
  30.340         75.00	     9.487
  30.360         71.67	     9.274
  30.380        101.67	    11.045
  30.400        100.83	    11.000
  30.420         85.83	    10.149
  30.440        107.50	    11.358
  30.460        125.83	    12.288
  30.480         94.17	    10.630
  30.500         80.83	     9.849
  30.520         80.83	     9.849
  30.540         74.17	     9.434
  30.560         48.33	     7.616
  30.580         55.83	     8.185
  30.600         50.83	     7.810
  30.620         56.67	     8.246
  30.640         49.17	     7.681
  30.660         54.17	     8.062
  30.680         54.17	     8.062
  30.700         65.83	     8.888
  30.720         58.33	     8.367
  30.740         63.33	     8.718
  30.760         70.83	     9.220
  30.780         82.50	     9.950
  30.800        110.83	    11.533
  30.820        109.17	    11.446
  30.840         84.17	    10.050
  30.860         71.67	     9.274
  30.880         83.33	    10.000
  30.900         87.50	    10.247
  30.920         62.50	     8.660
  30.940         54.17	     8.062
  30.960         65.83	     8.888
  30.980         62.50	     8.660
  31.000         63.33	     8.718
  31.020         53.33	     8.000
  31.040         60.00	     8.485
  31.060         66.67	     8.944
  31.080         60.83	     8.544
  31.100         67.50	     9.000
  31.120         88.33	    10.296
  31.140         97.50	    10.817
  31.160         85.83	    10.149
  31.180        101.67	    11.045
  31.200        124.17	    12.207
  31.220        110.00	    11.489
  31.240        103.33	    11.136
  31.260        115.00	    11.747
  31.280         90.00	    10.392
  31.300         93.33	    10.583
  31.320         93.33	    10.583
  31.340         79.17	     9.747
  31.360         65.83	     8.888
  31.380         64.17	     8.775
  31.400         52.50	     7.937
  31.420         66.67	     8.944
  31.440         64.17	     8.775
  31.460         56.67	     8.246
  31.480         60.83	     8.544
  31.500         74.17	     9.434
  31.520         69.17	     9.110
  31.540         90.83	    10.440
  31.560         66.67	     8.944
  31.580         69.17	     9.110
  31.600         75.00	     9.487
  31.620         74.17	     9.434
  31.640         57.50	     8.307
  31.660         53.33	     8.000
  31.680         52.50	     7.937
  31.700         60.83	     8.544
  31.720         51.67	     7.874
  31.740         57.50	     8.307
  31.760         59.17	     8.426
  31.780         52.50	     7.937
  31.800         60.83	     8.544
  31.820         59.17	     8.426
  31.840         54.17	     8.062
  31.860         60.83	     8.544
  31.880         79.17	     9.747
  31.900         65.00	     8.832
  31.920         68.33	     9.055
  31.940         67.50	     9.000
  31.960         68.33	     9.055
  31.980         60.83	     8.544
  32.000         79.17	     9.747
  32.020         87.50	    10.247
  32.040         81.67	     9.899
  32.060         89.17	    10.344
  32.080         70.00	     9.165
  32.100         75.00	     9.487
  32.120         76.67	     9.592
  32.140         75.83	     9.539
  32.160         82.50	     9.950
  32.180         70.00	     9.165
  32.200         50.00	     7.746
  32.220         66.67	     8.944
  32.240         55.83	     8.185
  32.260         47.50	     7.550
  32.280         45.83	     7.416
  32.300         59.17	     8.426
  32.320         50.00	     7.746
  32.340         41.67	     7.071
  32.360         46.67	     7.483
  32.380         48.33	     7.616
  32.400         48.33	     7.616
  32.420         45.00	     7.348
  32.440         43.33	     7.211
  32.460         40.00	     6.928
  32.480         35.00	     6.481
  32.500         45.00	     7.348
  32.520         43.33	     7.211
  32.540         34.17	     6.403
  32.560         38.33	     6.782
  32.580         48.33	     7.616
  32.600         39.17	     6.856
  32.620         36.67	     6.633
  32.640         27.50	     5.745
  32.660         34.17	     6.403
  32.680         39.17	     6.856
  32.700         45.83	     7.416
  32.720         48.33	     7.616
  32.740         41.67	     7.071
  32.760         50.83	     7.810
  32.780         36.67	     6.633
  32.800         41.67	     7.071
  32.820         35.83	     6.557
  32.840         41.67	     7.071
  32.860         30.00	     6.000
  32.880         48.33	     7.616
  32.900         52.50	     7.937
  32.920         39.17	     6.856
  32.940         44.17	     7.280
  32.960         47.50	     7.550
  32.980         69.17	     9.110
  33.000         66.67	     8.944
  33.020         50.00	     7.746
  33.040         54.17	     8.062
  33.060         55.00	     8.124
  33.080         56.67	     8.246
  33.100         47.50	     7.550
  33.120         50.83	     7.810
  33.140         40.83	     7.000
  33.160         55.83	     8.185
  33.180         45.83	     7.416
  33.200         45.83	     7.416
  33.220         42.50	     7.141
  33.240         45.00	     7.348
  33.260         52.50	     7.937
  33.280         32.50	     6.245
  33.300         45.00	     7.348
  33.320         35.83	     6.557
  33.340         40.83	     7.000
  33.360         41.67	     7.071
  33.380         35.83	     6.557
  33.400         47.50	     7.550
  33.420         41.67	     7.071
  33.440         34.17	     6.403
  33.460         33.33	     6.325
  33.480         44.17	     7.280
  33.500         30.00	     6.000
  33.520         42.50	     7.141
  33.540         44.17	     7.280
  33.560         49.17	     7.681
  33.580         35.00	     6.481
  33.600         40.00	     6.928
  33.620         45.00	     7.348
  33.640         41.67	     7.071
  33.660         60.00	     8.485
  33.680         50.00	     7.746
  33.700         45.00	     7.348
  33.720         44.17	     7.280
  33.740         49.17	     7.681
  33.760         52.50	     7.937
  33.780         57.50	     8.307
  33.800         58.33	     8.367
  33.820         47.50	     7.550
  33.840         44.17	     7.280
  33.860         60.83	     8.544
  33.880         69.17	     9.110
  33.900         60.83	     8.544
  33.920         62.50	     8.660
  33.940         54.17	     8.062
  33.960         57.50	     8.307
  33.980         57.50	     8.307
  34.000         61.67	     8.602
  34.020         70.83	     9.220
  34.040         56.67	     8.246
  34.060         68.33	     9.055
  34.080         60.00	     8.485
  34.100         64.17	     8.775
  34.120         78.33	     9.695
  34.140         58.33	     8.367
  34.160         51.67	     7.874
  34.180         60.00	     8.485
  34.200         41.67	     7.071
  34.220         57.50	     8.307
  34.240         53.33	     8.000
  34.260         47.50	     7.550
  34.280         58.33	     8.367
  34.300         55.83	     8.185
  34.320         49.17	     7.681
  34.340         65.00	     8.832
  34.360         60.00	     8.485
  34.380         48.33	     7.616
  34.400         60.83	     8.544
  34.420         67.50	     9.000
  34.440         65.83	     8.888
  34.460         81.67	     9.899
  34.480         73.33	     9.381
  34.500         75.83	     9.539
  34.520         92.50	    10.536
  34.540         86.67	    10.198
  34.560         84.17	    10.050
  34.580         88.33	    10.296
  34.600         92.50	    10.536
  34.620        102.50	    11.091
  34.640         97.50	    10.817
  34.660         82.50	     9.950
  34.680         85.83	    10.149
  34.700         78.33	     9.695
  34.720         78.33	     9.695
  34.740         77.50	     9.644
  34.760         87.50	    10.247
  34.780         82.50	     9.950
  34.800         95.83	    10.724
  34.820        113.33	    11.662
  34.840        103.33	    11.136
  34.860        124.17	    12.207
  34.880        110.00	    11.489
  34.900        130.83	    12.530
  34.920        124.17	    12.207
  34.940        127.50	    12.369
  34.960        135.00	    12.728
  34.980        138.33	    12.884
  35.000        121.67	    12.083
  35.020        112.50	    11.619
  35.040        128.33	    12.410
  35.060        115.83	    11.790
  35.080         97.50	    10.817
  35.100         92.50	    10.536
  35.120         72.50	     9.327
  35.140         82.50	     9.950
  35.160         52.50	     7.937
  35.180         67.50	     9.000
  35.200         69.17	     9.110
  35.220         55.00	     8.124
  35.240         61.67	     8.602
  35.260         80.83	     9.849
  35.280         65.83	     8.888
  35.300         84.17	    10.050
  35.320         74.17	     9.434
  35.340         66.67	     8.944
  35.360         75.00	     9.487
  35.380         89.17	    10.344
  35.400        100.00	    10.954
  35.420         84.17	    10.050
  35.440         87.50	    10.247
  35.460        104.17	    11.180
  35.480        101.67	    11.045
  35.500        109.17	    11.446
  35.520        125.83	    12.288
  35.540        102.50	    11.091
  35.560        107.50	    11.358
  35.580         96.67	    10.770
  35.600         81.67	     9.899
  35.620         90.83	    10.440
  35.640         68.33	     9.055
  35.660         59.17	     8.426
  35.680         65.83	     8.888
  35.700         74.17	     9.434
  35.720         60.83	     8.544
  35.740         66.67	     8.944
  35.760         67.50	     9.000
  35.780         62.50	     8.660
  35.800         58.33	     8.367
  35.820         62.50	     8.660
  35.840         67.50	     9.000
  35.860         75.00	     9.487
  35.880         65.00	     8.832
  35.900         65.00	     8.832
  35.920         58.33	     8.367
  35.940         63.33	     8.718
  35.960         58.33	     8.367
  35.980         89.17	    10.344
  36.000         83.33	    10.000
  36.020        101.67	    11.045
  36.040         95.00	    10.677
  36.060         85.00	    10.100
  36.080        103.33	    11.136
  36.100         98.33	    10.863
  36.120         88.33	    10.296
  36.140         79.17	     9.747
  36.160         64.17	     8.775
  36.180         67.50	     9.000
  36.200         58.33	     8.367
  36.220         65.00	     8.832
  36.240         48.33	     7.616
  36.260         46.67	     7.483
  36.280         53.33	     8.000
  36.300         58.33	     8.367
  36.320         54.17	     8.062
  36.340         61.67	     8.602
  36.360         50.00	     7.746
  36.380         64.17	     8.775
  36.400         66.67	     8.944
  36.420         94.17	    10.630
  36.440         98.33	    10.863
  36.460        140.83	    13.000
  36.480        159.17	    13.820
  36.500        192.50	    15.199
  36.520        176.67	    14.560
  36.540        159.17	    13.820
  36.560        149.17	    13.379
  36.580        133.33	    12.649
  36.600        139.17	    12.923
  36.620        105.00	    11.225
  36.640         91.67	    10.488
  36.660         81.67	     9.899
  36.680         82.50	     9.950
  36.700         81.67	     9.899
  36.720         85.00	    10.100
  36.740         90.83	    10.440
  36.760         90.00	    10.392
  36.780         66.67	     8.944
  36.800         65.00	     8.832
  36.820         55.00	     8.124
  36.840         60.83	     8.544
  36.860         45.83	     7.416
  36.880         51.67	     7.874
  36.900         54.17	     8.062
  36.920         52.50	     7.937
  36.940         56.67	     8.246
  36.960         45.00	     7.348
  36.980         50.00	     7.746
  37.000         53.33	     8.000
  37.020         56.67	     8.246
  37.040         59.17	     8.426
  37.060         50.00	     7.746
  37.080         51.67	     7.874
  37.100         52.50	     7.937
  37.120         43.33	     7.211
  37.140         55.83	     8.185
  37.160         57.50	     8.307
  37.180         45.83	     7.416
  37.200         69.17	     9.110
  37.220         50.00	     7.746
  37.240         69.17	     9.110
  37.260         99.17	    10.909
  37.280        188.33	    15.033
  37.300        246.67	    17.205
  37.320        200.83	    15.524
  37.340        132.50	    12.610
  37.360        143.33	    13.115
  37.380        170.00	    14.283
  37.400        180.83	    14.731
  37.420        158.33	    13.784
  37.440        113.33	    11.662
  37.460         85.00	    10.100
  37.480         91.67	    10.488
  37.500         78.33	     9.695
  37.520         94.17	    10.630
  37.540         80.00	     9.798
  37.560         80.00	     9.798
  37.580         69.17	     9.110
  37.600         86.67	    10.198
  37.620         80.00	     9.798
  37.640         93.33	    10.583
  37.660         93.33	    10.583
  37.680         81.67	     9.899
  37.700        104.17	    11.180
  37.720         75.00	     9.487
  37.740         68.33	     9.055
  37.760         70.00	     9.165
  37.780         62.50	     8.660
  37.800         70.00	     9.165
  37.820         56.67	     8.246
  37.840         45.83	     7.416
  37.860         58.33	     8.367
  37.880         67.50	     9.000
  37.900         40.00	     6.928
  37.920         46.67	     7.483
  37.940         39.17	     6.856
  37.960         30.00	     6.000
  37.980         40.83	     7.000
  38.000         35.83	     6.557
  38.020         25.83	     5.568
  38.040         39.17	     6.856
  38.060         38.33	     6.782
  38.080         42.50	     7.141
  38.100         31.67	     6.164
  38.120         31.67	     6.164
  38.140         45.00	     7.348
  38.160         38.33	     6.782
  38.180         44.17	     7.280
  38.200         44.17	     7.280
  38.220         31.67	     6.164
  38.240         38.33	     6.782
  38.260         23.33	     5.292
  38.280         27.50	     5.745
  38.300         38.33	     6.782
  38.320         37.50	     6.708
  38.340         36.67	     6.633
  38.360         34.17	     6.403
  38.380         33.33	     6.325
  38.400         34.17	     6.403
  38.420         44.17	     7.280
  38.440         30.00	     6.000
  38.460         40.00	     6.928
  38.480         46.67	     7.483
  38.500         55.00	     8.124
  38.520         35.83	     6.557
  38.540         37.50	     6.708
  38.560         47.50	     7.550
  38.580         41.67	     7.071
  38.600         47.50	     7.550
  38.620         51.67	     7.874
  38.640         41.67	     7.071
  38.660         47.50	     7.550
  38.680         50.00	     7.746
  38.700         40.00	     6.928
  38.720         65.00	     8.832
  38.740         56.67	     8.246
  38.760         42.50	     7.141
  38.780         43.33	     7.211
  38.800         51.67	     7.874
  38.820         49.17	     7.681
  38.840         54.17	     8.062
  38.860         41.67	     7.071
  38.880         56.67	     8.246
  38.900         38.33	     6.782
  38.920         43.33	     7.211
  38.940         30.83	     6.083
  38.960         42.50	     7.141
  38.980         34.17	     6.403
  39.000         35.00	     6.481
  39.020         40.83	     7.000
  39.040         35.00	     6.481
  39.060         35.00	     6.481
  39.080         33.33	     6.325
  39.100         35.00	     6.481
  39.120         37.50	     6.708
  39.140         30.83	     6.083
  39.160         23.33	     5.292
  39.180         46.67	     7.483
  39.200         35.83	     6.557
  39.220         43.33	     7.211
  39.240         42.50	     7.141
  39.260         43.33	     7.211
  39.280         50.83	     7.810
  39.300         55.83	     8.185
  39.320         64.17	     8.775
  39.340         45.00	     7.348
  39.360         60.00	     8.485
  39.380        101.67	    11.045
  39.400        105.00	    11.225
  39.420        118.33	    11.916
  39.440        124.17	    12.207
  39.460        120.00	    12.000
  39.480        107.50	    11.358
  39.500        108.33	    11.402
  39.520        106.67	    11.314
  39.540        105.00	    11.225
  39.560         82.50	     9.950
  39.580         78.33	     9.695
  39.600         73.33	     9.381
  39.620         55.83	     8.185
  39.640         49.17	     7.681
  39.660         55.00	     8.124
  39.680         60.00	     8.485
  39.700         65.83	     8.888
  39.720         59.17	     8.426
  39.740         55.83	     8.185
  39.760         56.67	     8.246
  39.780         45.00	     7.348
  39.800         44.17	     7.280
  39.820         50.83	     7.810
  39.840         50.83	     7.810
  39.860         55.83	     8.185
  39.880         45.83	     7.416
  39.900         56.67	     8.246
  39.920         55.00	     8.124
  39.940         56.67	     8.246
  39.960         56.67	     8.246
  39.980         66.67	     8.944
  40.000         62.50	     8.660
  40.020         75.83	     9.539
  40.040         60.83	     8.544
  40.060         51.67	     7.874
  40.080         47.50	     7.550
  40.100         55.00	     8.124
  40.120         62.50	     8.660
  40.140         61.67	     8.602
  40.160         50.00	     7.746
  40.180         68.33	     9.055
  40.200         74.17	     9.434
  40.220         90.00	    10.392
  40.240         96.67	    10.770
  40.260        106.67	    11.314
  40.280         84.17	    10.050
  40.300         74.17	     9.434
  40.320         72.50	     9.327
  40.340         81.67	     9.899
  40.360         70.00	     9.165
  40.380         75.00	     9.487
  40.400         60.00	     8.485
  40.420         50.83	     7.810
  40.440         41.67	     7.071
  40.460         45.83	     7.416
  40.480         35.00	     6.481
  40.500         38.33	     6.782
  40.520         40.83	     7.000
  40.540         40.00	     6.928
  40.560         46.67	     7.483
  40.580         37.50	     6.708
  40.600         43.33	     7.211
  40.620         55.83	     8.185
  40.640         50.00	     7.746
  40.660         28.33	     5.831
  40.680         37.50	     6.708
  40.700         45.00	     7.348
  40.720         56.67	     8.246
  40.740         41.67	     7.071
  40.760         54.17	     8.062
  40.780         41.67	     7.071
  40.800         46.67	     7.483
  40.820         39.17	     6.856
  40.840         37.50	     6.708
  40.860         52.50	     7.937
  40.880         39.17	     6.856
  40.900         40.00	     6.928
  40.920         50.00	     7.746
  40.940         60.00	     8.485
  40.960         54.17	     8.062
  40.980         30.83	     6.083
  41.000         57.50	     8.307
  41.020         44.17	     7.280
  41.040         48.33	     7.616
  41.060         29.17	     5.916
  41.080         45.00	     7.348
  41.100         42.50	     7.141
  41.120         45.00	     7.348
  41.140         40.83	     7.000
  41.160         54.17	     8.062
  41.180         70.83	     9.220
  41.200         66.67	     8.944
  41.220         57.50	     8.307
  41.240         60.00	     8.485
  41.260         60.83	     8.544
  41.280         50.83	     7.810
  41.300         58.33	     8.367
  41.320         48.33	     7.616
  41.340         54.17	     8.062
  41.360         47.50	     7.550
  41.380         51.67	     7.874
  41.400         40.83	     7.000
  41.420         54.17	     8.062
  41.440         40.00	     6.928
  41.460         48.33	     7.616
  41.480         43.33	     7.211
  41.500         44.17	     7.280
  41.520         44.17	     7.280
  41.540         54.17	     8.062
  41.560         47.50	     7.550
  41.580         47.50	     7.550
  41.600         52.50	     7.937
  41.620         49.17	     7.681
  41.640         55.83	     8.185
  41.660         64.17	     8.775
  41.680         50.00	     7.746
  41.700         72.50	     9.327
  41.720         69.17	     9.110
  41.740         65.83	     8.888
  41.760         48.33	     7.616
  41.780         70.00	     9.165
  41.800         60.83	     8.544
  41.820         66.67	     8.944
  41.840         59.17	     8.426
  41.860         73.33	     9.381
  41.880         55.00	     8.124
  41.900         66.67	     8.944
  41.920         65.00	     8.832
  41.940         64.17	     8.775
  41.960         58.33	     8.367
  41.980         54.17	     8.062
  42.000         52.50	     7.937
  42.020         49.17	     7.681
  42.040         55.00	     8.124
  42.060         47.50	     7.550
  42.080         57.50	     8.307
  42.100         50.00	     7.746
  42.120         52.50	     7.937
  42.140         50.83	     7.810
  42.160         55.00	     8.124
  42.180         56.67	     8.246
  42.200         65.00	     8.832
  42.220         68.33	     9.055
  42.240         68.33	     9.055
  42.260         69.17	     9.110
  42.280         80.00	     9.798
  42.300         93.33	    10.583
  42.320        103.33	    11.136
  42.340        106.67	    11.314
  42.360        187.50	    15.000
  42.380        166.67	    14.142
  42.400        219.17	    16.217
  42.420        238.33	    16.912
  42.440        179.17	    14.663
  42.460        138.33	    12.884
  42.480        121.67	    12.083
  42.500        147.50	    13.304
  42.520        145.83	    13.229
  42.540        129.17	    12.450
  42.560        107.50	    11.358
  42.580         76.67	     9.592
  42.600         85.00	    10.100
  42.620         68.33	     9.055
  42.640         64.17	     8.775
  42.660         70.83	     9.220
  42.680         59.17	     8.426
  42.700         61.67	     8.602
  42.720         74.17	     9.434
  42.740         75.00	     9.487
  42.760         76.67	     9.592
  42.780         62.50	     8.660
  42.800         59.17	     8.426
  42.820         50.83	     7.810
  42.840         61.67	     8.602
  42.860         46.67	     7.483
  42.880         58.33	     8.367
  42.900         45.00	     7.348
  42.920         53.33	     8.000
  42.940         41.67	     7.071
  42.960         43.33	     7.211
  42.980         54.17	     8.062
  43.000         45.83	     7.416
  43.020         35.83	     6.557
  43.040         55.83	     8.185
  43.060         42.50	     7.141
  43.080         43.33	     7.211
  43.100         56.67	     8.246
  43.120         52.50	     7.937
  43.140         43.33	     7.211
  43.160         46.67	     7.483
  43.180         55.00	     8.124
  43.200         50.83	     7.810
  43.220         44.17	     7.280
  43.240         50.83	     7.810
  43.260         43.33	     7.211
  43.280         40.83	     7.000
  43.300         50.00	     7.746
  43.320         55.83	     8.185
  43.340         53.33	     8.000
  43.360         53.33	     8.000
  43.380         60.83	     8.544
  43.400         73.33	     9.381
  43.420         71.67	     9.274
  43.440         71.67	     9.274
  43.460         75.83	     9.539
  43.480         74.17	     9.434
  43.500         78.33	     9.695
  43.520         64.17	     8.775
  43.540         80.00	     9.798
  43.560         91.67	    10.488
  43.580         99.17	    10.909
  43.600         90.83	    10.440
  43.620         93.33	    10.583
  43.640         96.67	    10.770
  43.660        110.83	    11.533
  43.680         90.00	    10.392
  43.700         85.00	    10.100
  43.720         86.67	    10.198
  43.740        100.00	    10.954
  43.760         99.17	    10.909
  43.780        104.17	    11.180
  43.800         92.50	    10.536
  43.820        119.17	    11.958
  43.840         87.50	    10.247
  43.860         82.50	     9.950
  43.880         87.50	    10.247
  43.900         95.83	    10.724
  43.920         89.17	    10.344
  43.940         85.00	    10.100
  43.960         82.50	     9.950
  43.980         84.17	    10.050
  44.000         98.33	    10.863
  44.020         84.17	    10.050
  44.040         92.50	    10.536
  44.060         82.50	     9.950
  44.080         94.17	    10.630
  44.100         99.17	    10.909
  44.120        101.67	    11.045
  44.140         90.00	    10.392
  44.160        100.83	    11.000
  44.180        110.00	    11.489
  44.200        120.00	    12.000
  44.220        129.17	    12.450
  44.240        151.67	    13.491
  44.260        145.83	    13.229
  44.280        135.00	    12.728
  44.300        168.33	    14.213
  44.320        155.00	    13.638
  44.340        195.83	    15.330
  44.360        190.00	    15.100
  44.380        185.00	    14.900
  44.400        201.67	    15.556
  44.420        210.00	    15.875
  44.440        204.17	    15.652
  44.460        200.00	    15.492
  44.480        196.67	    15.362
  44.500        210.83	    15.906
  44.520        201.67	    15.556
  44.540        219.17	    16.217
  44.560        227.50	    16.523
  44.580        216.67	    16.125
  44.600        200.00	    15.492
  44.620        196.67	    15.362
  44.640        170.83	    14.318
  44.660        213.33	    16.000
  44.680        160.00	    13.856
  44.700        154.17	    13.601
  44.720        144.17	    13.153
  44.740        165.83	    14.107
  44.760        143.33	    13.115
  44.780        150.83	    13.454
  44.800        116.67	    11.832
  44.820        118.33	    11.916
  44.840        115.83	    11.790
  44.860        123.33	    12.166
  44.880        111.67	    11.576
  44.900        130.83	    12.530
  44.920        105.00	    11.225
  44.940        119.17	    11.958
  44.960        108.33	    11.402
  44.980        104.17	    11.180
  45.000        108.33	    11.402
  45.020        105.83	    11.269
  45.040         86.67	    10.198
  45.060         86.67	    10.198
  45.080         79.17	     9.747
  45.100         89.17	    10.344
  45.120         77.50	     9.644
  45.140         70.83	     9.220
  45.160         70.83	     9.220
  45.180         72.50	     9.327
  45.200         80.00	     9.798
  45.220         85.00	    10.100
  45.240         84.17	    10.050
  45.260         89.17	    10.344
  45.280         88.33	    10.296
  45.300         91.67	    10.488
  45.320        116.67	    11.832
  45.340        114.17	    11.705
  45.360        110.83	    11.533
  45.380        135.00	    12.728
  45.400        131.67	    12.570
  45.420        157.50	    13.748
  45.440        189.17	    15.067
  45.460        235.83	    16.823
  45.480        222.50	    16.340
  45.500        233.33	    16.733
  45.520        286.67	    18.547
  45.540        289.17	    18.628
  45.560        279.17	    18.303
  45.580        296.67	    18.868
  45.600        242.50	    17.059
  45.620        229.17	    16.583
  45.640        204.17	    15.652
  45.660        195.00	    15.297
  45.680        174.17	    14.457
  45.700        182.50	    14.799
  45.720        159.17	    13.820
  45.740        152.50	    13.528
  45.760        148.33	    13.342
  45.780        113.33	    11.662
  45.800        100.83	    11.000
  45.820         85.00	    10.100
  45.840         83.33	    10.000
  45.860         85.00	    10.100
  45.880         88.33	    10.296
  45.900         73.33	     9.381
  45.920         60.00	     8.485
  45.940         64.17	     8.775
  45.960         66.67	     8.944
  45.980         68.33	     9.055
  46.000         51.67	     7.874
  46.020         51.67	     7.874
  46.040         54.17	     8.062
  46.060         56.67	     8.246
  46.080         59.17	     8.426
  46.100         41.67	     7.071
  46.120         50.00	     7.746
  46.140         47.50	     7.550
  46.160         55.83	     8.185
  46.180         42.50	     7.141
  46.200         51.67	     7.874
  46.220         38.33	     6.782
  46.240         39.17	     6.856
  46.260         38.33	     6.782
  46.280         47.50	     7.550
  46.300         32.50	     6.245
  46.320         36.67	     6.633
  46.340         28.33	     5.831
  46.360         29.17	     5.916
  46.380         34.17	     6.403
  46.400         35.83	     6.557
  46.420         36.67	     6.633
  46.440         40.00	     6.928
  46.460         37.50	     6.708
  46.480         37.50	     6.708
  46.500         43.33	     7.211
  46.520         35.00	     6.481
  46.540         36.67	     6.633
  46.560         38.33	     6.782
  46.580         33.33	     6.325
  46.600         42.50	     7.141
  46.620         33.33	     6.325
  46.640         32.50	     6.245
  46.660         41.67	     7.071
  46.680         27.50	     5.745
  46.700         30.83	     6.083
  46.720         32.50	     6.245
  46.740         45.83	     7.416
  46.760         38.33	     6.782
  46.780         38.33	     6.782
  46.800         44.17	     7.280
  46.820         40.00	     6.928
  46.840         42.50	     7.141
  46.860         41.67	     7.071
  46.880         39.17	     6.856
  46.900         46.67	     7.483
  46.920         45.00	     7.348
  46.940         48.33	     7.616
  46.960         49.17	     7.681
  46.980         53.33	     8.000
  47.000         50.83	     7.810
  47.020         57.50	     8.307
  47.040         46.67	     7.483
  47.060         51.67	     7.874
  47.080         49.17	     7.681
  47.100         59.17	     8.426
  47.120         55.83	     8.185
  47.140         58.33	     8.367
  47.160         46.67	     7.483
  47.180         53.33	     8.000
  47.200         52.50	     7.937
  47.220         43.33	     7.211
  47.240         54.17	     8.062
  47.260         37.50	     6.708
  47.280         37.50	     6.708
  47.300         40.83	     7.000
  47.320         40.00	     6.928
  47.340         32.50	     6.245
  47.360         37.50	     6.708
  47.380         33.33	     6.325
  47.400         40.00	     6.928
  47.420         25.83	     5.568
  47.440         35.00	     6.481
  47.460         30.00	     6.000
  47.480         36.67	     6.633
  47.500         35.00	     6.481
  47.520         42.50	     7.141
  47.540         24.17	     5.385
  47.560         36.67	     6.633
  47.580         40.00	     6.928
  47.600         31.67	     6.164
  47.620         28.33	     5.831
  47.640         29.17	     5.916
  47.660         37.50	     6.708
  47.680         30.83	     6.083
  47.700         31.67	     6.164
  47.720         29.17	     5.916
  47.740         25.83	     5.568
  47.760         30.00	     6.000
  47.780         29.17	     5.916
  47.800         41.67	     7.071
  47.820         39.17	     6.856
  47.840         44.17	     7.280
  47.860         65.83	     8.888
  47.880         54.17	     8.062
  47.900         54.17	     8.062
  47.920         55.00	     8.124
  47.940         75.83	     9.539
  47.960         49.17	     7.681
  47.980         43.33	     7.211
  48.000         51.67	     7.874
  48.020         49.17	     7.681
  48.040         52.50	     7.937
  48.060         49.17	     7.681
  48.080         64.17	     8.775
  48.100         72.50	     9.327
  48.120         51.67	     7.874
  48.140         64.17	     8.775
  48.160         56.67	     8.246
  48.180         50.83	     7.810
  48.200         47.50	     7.550
  48.220         59.17	     8.426
  48.240         43.33	     7.211
  48.260         60.00	     8.485
  48.280         46.67	     7.483
  48.300         50.00	     7.746
  48.320         45.00	     7.348
  48.340         42.50	     7.141
  48.360         42.50	     7.141
  48.380         43.33	     7.211
  48.400         43.33	     7.211
  48.420         37.50	     6.708
  48.440         42.50	     7.141
  48.460         46.67	     7.483
  48.480         38.33	     6.782
  48.500         48.33	     7.616
  48.520         36.67	     6.633
  48.540         25.83	     5.568
  48.560         35.83	     6.557
  48.580         43.33	     7.211
  48.600         49.17	     7.681
  48.620         47.50	     7.550
  48.640         39.17	     6.856
  48.660         36.67	     6.633
  48.680         47.50	     7.550
  48.700         54.17	     8.062
  48.720         38.33	     6.782
  48.740         39.17	     6.856
  48.760         46.67	     7.483
  48.780         36.67	     6.633
  48.800         39.17	     6.856
  48.820         45.00	     7.348
  48.840         36.67	     6.633
  48.860         38.33	     6.782
  48.880         35.00	     6.481
  48.900         44.17	     7.280
  48.920         42.50	     7.141
  48.940         36.67	     6.633
  48.960         39.17	     6.856
  48.980         37.50	     6.708
  49.000         40.00	     6.928
  49.020         42.50	     7.141
  49.040         37.50	     6.708
  49.060         32.50	     6.245
  49.080         30.00	     6.000
  49.100         46.67	     7.483
  49.120         42.50	     7.141
  49.140         46.67	     7.483
  49.160         45.83	     7.416
  49.180         46.67	     7.483
  49.200         55.83	     8.185
  49.220         49.17	     7.681
  49.240         55.00	     8.124
  49.260         40.83	     7.000
  49.280         48.33	     7.616
  49.300         51.67	     7.874
  49.320         44.17	     7.280
  49.340         45.83	     7.416
  49.360         48.33	     7.616
  49.380         50.00	     7.746
  49.400         49.17	     7.681
  49.420         42.50	     7.141
  49.440         37.50	     6.708
  49.460         52.50	     7.937
  49.480         38.33	     6.782
  49.500         44.17	     7.280
  49.520         39.17	     6.856
  49.540         44.17	     7.280
  49.560         41.67	     7.071
  49.580         48.33	     7.616
  49.600         48.33	     7.616
  49.620         39.17	     6.856
  49.640         40.83	     7.000
  49.660         52.50	     7.937
  49.680         53.33	     8.000
  49.700         40.83	     7.000
  49.720         59.17	     8.426
  49.740         65.00	     8.832
  49.760         73.33	     9.381
  49.780         49.17	     7.681
  49.800         57.50	     8.307
  49.820         63.33	     8.718
  49.840         67.50	     9.000
  49.860         73.33	     9.381
  49.880         81.67	     9.899
  49.900         78.33	     9.695
  49.920         74.17	     9.434
  49.940         79.17	     9.747
  49.960        100.00	    10.954
  49.980         99.17	    10.909
  50.000        125.83	    12.288
  50.020        155.83	    13.675
  50.040        216.67	    16.125
  50.060        332.50	    19.975
  50.080        482.50	    24.062
  50.100        534.17	    25.318
  50.120        545.00	    25.573
  50.140        423.33	    22.539
  50.160        250.00	    17.321
  50.180        218.33	    16.186
  50.200        248.33	    17.263
  50.220        287.50	    18.574
  50.240        341.67	    20.248
  50.260        265.00	    17.833
  50.280        207.50	    15.780
  50.300        105.00	    11.225
  50.320         95.00	    10.677
  50.340         77.50	     9.644
  50.360         73.33	     9.381
  50.380         72.50	     9.327
  50.400         68.33	     9.055
  50.420         49.17	     7.681
  50.440         62.50	     8.660
  50.460         50.00	     7.746
  50.480         67.50	     9.000
  50.500         70.00	     9.165
  50.520         90.83	    10.440
  50.540         87.50	    10.247
  50.560         89.17	    10.344
  50.580         85.00	    10.100
  50.600         77.50	     9.644
  50.620         80.00	     9.798
  50.640         64.17	     8.775
  50.660         77.50	     9.644
  50.680         60.00	     8.485
  50.700         57.50	     8.307
  50.720         74.17	     9.434
  50.740         70.00	     9.165
  50.760         55.83	     8.185
  50.780         49.17	     7.681
  50.800         53.33	     8.000
  50.820         53.33	     8.000
  50.840         50.00	     7.746
  50.860         33.33	     6.325
  50.880         50.00	     7.746
  50.900         40.00	     6.928
  50.920         44.17	     7.280
  50.940         46.67	     7.483
  50.960         58.33	     8.367
  50.980         50.83	     7.810
  51.000         45.83	     7.416
  51.020         68.33	     9.055
  51.040        105.00	    11.225
  51.060        265.00	    17.833
  51.080        349.17	    20.469
  51.100        265.83	    17.861
  51.120        175.83	    14.526
  51.140        130.83	    12.530
  51.160        121.67	    12.083
  51.180        110.83	    11.533
  51.200        189.17	    15.067
  51.220        205.83	    15.716
  51.240        163.33	    14.000
  51.260        133.33	    12.649
  51.280         94.17	    10.630
  51.300         91.67	    10.488
  51.320         62.50	     8.660
  51.340         50.00	     7.746
  51.360         53.33	     8.000
  51.380         46.67	     7.483
  51.400         44.17	     7.280
  51.420         59.17	     8.426
  51.440         42.50	     7.141
  51.460         39.17	     6.856
  51.480         38.33	     6.782
  51.500         43.33	     7.211
  51.520         28.33	     5.831
  51.540         39.17	     6.856
  51.560         30.00	     6.000
  51.580         41.67	     7.071
  51.600         38.33	     6.782
  51.620         33.33	     6.325
  51.640         45.00	     7.348
  51.660         25.00	     5.477
  51.680         43.33	     7.211
  51.700         35.83	     6.557
  51.720         40.00	     6.928
  51.740         37.50	     6.708
  51.760         29.17	     5.916
  51.780         43.33	     7.211
  51.800         32.50	     6.245
  51.820         25.00	     5.477
  51.840         45.83	     7.416
  51.860         26.67	     5.657
  51.880         30.00	     6.000
  51.900         35.83	     6.557
  51.920         30.83	     6.083
  51.940         34.17	     6.403
  51.960         40.00	     6.928
  51.980         34.17	     6.403
  52.000         40.83	     7.000
  52.020         45.00	     7.348
  52.040         46.67	     7.483
  52.060         55.83	     8.185
  52.080         54.17	     8.062
  52.100         60.00	     8.485
  52.120         54.17	     8.062
  52.140         40.83	     7.000
  52.160         60.83	     8.544
  52.180         70.00	     9.165
  52.200         32.50	     6.245
  52.220         38.33	     6.782
  52.240         40.00	     6.928
  52.260         54.17	     8.062
  52.280         45.00	     7.348
  52.300         45.83	     7.416
  52.320         56.67	     8.246
  52.340         53.33	     8.000
  52.360         52.50	     7.937
  52.380         47.50	     7.550
  52.400         41.67	     7.071
  52.420         47.50	     7.550
  52.440         48.33	     7.616
  52.460         47.50	     7.550
  52.480         54.17	     8.062
  52.500         42.50	     7.141
  52.520         55.00	     8.124
  52.540         44.17	     7.280
  52.560         37.50	     6.708
  52.580         40.00	     6.928
  52.600         35.00	     6.481
  52.620         41.67	     7.071
  52.640         40.83	     7.000
  52.660         52.50	     7.937
  52.680         56.67	     8.246
  52.700         40.00	     6.928
  52.720         43.33	     7.211
  52.740         40.83	     7.000
  52.760         44.17	     7.280
  52.780         43.33	     7.211
  52.800         55.83	     8.185
  52.820         34.17	     6.403
  52.840         45.83	     7.416
  52.860         48.33	     7.616
  52.880         49.17	     7.681
  52.900         60.00	     8.485
  52.920         45.83	     7.416
  52.940         55.00	     8.124
  52.960         50.00	     7.746
  52.980         53.33	     8.000
  53.000         42.50	     7.141
  53.020         37.50	     6.708
  53.040         41.67	     7.071
  53.060         41.67	     7.071
  53.080         49.17	     7.681
  53.100         43.33	     7.211
  53.120         50.00	     7.746
  53.140         34.17	     6.403
  53.160         52.50	     7.937
  53.180         58.33	     8.367
  53.200         59.17	     8.426
  53.220         65.00	     8.832
  53.240         62.50	     8.660
  53.260         44.17	     7.280
  53.280         45.00	     7.348
  53.300         55.83	     8.185
  53.320         44.17	     7.280
  53.340         42.50	     7.141
  53.360         58.33	     8.367
  53.380         49.17	     7.681
  53.400         35.83	     6.557
  53.420         36.67	     6.633
  53.440         36.67	     6.633
  53.460         39.17	     6.856
  53.480         31.67	     6.164
  53.500         45.83	     7.416
  53.520         52.50	     7.937
  53.540         31.67	     6.164
  53.560         32.50	     6.245
  53.580         26.67	     5.657
  53.600         34.17	     6.403
  53.620         44.17	     7.280
  53.640         25.00	     5.477
  53.660         38.33	     6.782
  53.680         42.50	     7.141
  53.700         37.50	     6.708
  53.720         45.83	     7.416
  53.740         41.67	     7.071
  53.760         40.00	     6.928
  53.780         38.33	     6.782
  53.800         44.17	     7.280
  53.820         43.33	     7.211
  53.840         41.67	     7.071
  53.860         42.50	     7.141
  53.880         35.83	     6.557
  53.900         41.67	     7.071
  53.920         36.67	     6.633
  53.940         36.67	     6.633
  53.960         44.17	     7.280
  53.980         40.00	     6.928
  54.000         38.33	     6.782
  54.020         38.33	     6.782
  54.040         50.00	     7.746
  54.060         38.33	     6.782
  54.080         50.00	     7.746
  54.100         45.83	     7.416
  54.120         41.67	     7.071
  54.140         41.67	     7.071
  54.160         41.67	     7.071
  54.180         41.67	     7.071
  54.200         34.17	     6.403
  54.220         35.00	     6.481
  54.240         33.33	     6.325
  54.260         37.50	     6.708
  54.280         44.17	     7.280
  54.300         48.33	     7.616
  54.320         47.50	     7.550
  54.340         62.50	     8.660
  54.360         45.83	     7.416
  54.380         45.00	     7.348
  54.400         50.00	     7.746
  54.420         42.50	     7.141
  54.440         50.00	     7.746
  54.460         46.67	     7.483
  54.480         40.00	     6.928
  54.500         46.67	     7.483
  54.520         42.50	     7.141
  54.540         54.17	     8.062
  54.560         51.67	     7.874
  54.580         40.83	     7.000
  54.600         65.83	     8.888
  54.620         44.17	     7.280
  54.640         40.83	     7.000
  54.660         49.17	     7.681
  54.680         67.50	     9.000
  54.700         85.00	    10.100
  54.720         55.00	     8.124
  54.740         70.00	     9.165
  54.760         80.00	     9.798
  54.780         99.17	    10.909
  54.800        108.33	    11.402
  54.820         98.33	    10.863
  54.840        106.67	    11.314
  54.860         77.50	     9.644
  54.880         80.83	     9.849
  54.900         70.83	     9.220
  54.920         79.17	     9.747
  54.940         75.00	     9.487
  54.960         80.00	     9.798
  54.980         78.33	     9.695
  55.000         87.50	    10.247
  55.020         73.33	     9.381
  55.040         68.33	     9.055
  55.060         62.50	     8.660
  55.080         52.50	     7.937
  55.100         58.33	     8.367
  55.120         49.17	     7.681
  55.140         50.00	     7.746
  55.160         60.00	     8.485
  55.180         64.17	     8.775
  55.200         60.00	     8.485
  55.220         66.67	     8.944
  55.240         81.67	     9.899
  55.260         82.50	     9.950
  55.280        102.50	    11.091
  55.300         75.83	     9.539
  55.320         61.67	     8.602
  55.340         60.83	     8.544
  55.360         53.33	     8.000
  55.380         56.67	     8.246
  55.400         59.17	     8.426
  55.420         73.33	     9.381
  55.440         71.67	     9.274
  55.460         65.00	     8.832
  55.480         65.83	     8.888
  55.500         50.83	     7.810
  55.520         56.67	     8.246
  55.540         50.83	     7.810
  55.560         50.83	     7.810
  55.580         52.50	     7.937
  55.600         49.17	     7.681
  55.620         44.17	     7.280
  55.640         53.33	     8.000
  55.660         58.33	     8.367
  55.680         57.50	     8.307
  55.700         74.17	     9.434
  55.720         58.33	     8.367
  55.740         86.67	    10.198
  55.760         80.00	     9.798
  55.780         70.00	     9.165
  55.800         83.33	    10.000
  55.820         82.50	     9.950
  55.840         66.67	     8.944
  55.860         75.00	     9.487
  55.880         65.00	     8.832
  55.900         70.83	     9.220
  55.920         55.83	     8.185
  55.940         70.00	     9.165
  55.960         54.17	     8.062
  55.980         54.17	     8.062
  56.000         75.00	     9.487
  56.020         41.67	     7.071
  56.040         49.17	     7.681
  56.060         43.33	     7.211
  56.080         45.83	     7.416
  56.100         40.00	     6.928
  56.120         39.17	     6.856
  56.140         29.17	     5.916
  56.160         45.83	     7.416
  56.180         45.00	     7.348
  56.200         31.67	     6.164
  56.220         35.83	     6.557
  56.240         52.50	     7.937
  56.260         60.00	     8.485
  56.280         34.17	     6.403
  56.300         36.67	     6.633
  56.320         42.50	     7.141
  56.340         38.33	     6.782
  56.360         43.33	     7.211
  56.380         40.00	     6.928
  56.400         49.17	     7.681
  56.420         46.67	     7.483
  56.440         33.33	     6.325
  56.460         35.00	     6.481
  56.480         36.67	     6.633
  56.500         42.50	     7.141
  56.520         40.83	     7.000
  56.540         41.67	     7.071
  56.560         37.50	     6.708
  56.580         45.83	     7.416
  56.600         50.00	     7.746
  56.620         30.00	     6.000
  56.640         33.33	     6.325
  56.660         42.50	     7.141
  56.680         38.33	     6.782
  56.700         44.17	     7.280
  56.720         26.67	     5.657
  56.740         35.83	     6.557
  56.760         39.17	     6.856
  56.780         40.00	     6.928
  56.800         41.67	     7.071
  56.820         35.00	     6.481
  56.840         33.33	     6.325
  56.860         45.83	     7.416
  56.880         41.67	     7.071
  56.900         51.67	     7.874
  56.920         80.83	     9.849
  56.940         62.50	     8.660
  56.960         40.83	     7.000
  56.980         46.67	     7.483
  57.000         41.67	     7.071
  57.020         35.83	     6.557
  57.040         52.50	     7.937
  57.060         44.17	     7.280
  57.080         48.33	     7.616
  57.100         50.00	     7.746
  57.120         40.83	     7.000
  57.140         53.33	     8.000
  57.160         53.33	     8.000
  57.180         42.50	     7.141
  57.200         45.83	     7.416
  57.220         31.67	     6.164
  57.240         37.50	     6.708
  57.260         35.00	     6.481
  57.280         40.83	     7.000
  57.300         41.67	     7.071
  57.320         40.00	     6.928
  57.340         33.33	     6.325
  57.360         40.83	     7.000
  57.380         27.50	     5.745
  57.400         34.17	     6.403
  57.420         27.50	     5.745
  57.440         37.50	     6.708
  57.460         40.83	     7.000
  57.480         44.17	     7.280
  57.500         31.67	     6.164
  57.520         34.17	     6.403
  57.540         52.50	     7.937
  57.560         34.17	     6.403
  57.580         40.00	     6.928
  57.600         35.83	     6.557
  57.620         55.00	     8.124
  57.640         58.33	     8.367
  57.660         41.67	     7.071
  57.680         47.50	     7.550
  57.700         40.00	     6.928
  57.720         33.33	     6.325
  57.740         44.17	     7.280
  57.760         41.67	     7.071
  57.780         35.00	     6.481
  57.800         40.00	     6.928
  57.820         45.00	     7.348
  57.840         40.00	     6.928
  57.860         38.33	     6.782
  57.880         36.67	     6.633
  57.900         35.83	     6.557
  57.920         38.33	     6.782
  57.940         39.17	     6.856
  57.960         33.33	     6.325
  57.980         33.33	     6.325
  58.000         36.67	     6.633
  58.020         32.50	     6.245
  58.040         45.83	     7.416
  58.060         40.83	     7.000
  58.080         40.83	     7.000
  58.100         30.83	     6.083
  58.120         38.33	     6.782
  58.140         34.17	     6.403
  58.160         29.17	     5.916
  58.180         49.17	     7.681
  58.200         40.00	     6.928
  58.220         35.83	     6.557
  58.240         35.00	     6.481
  58.260         45.83	     7.416
  58.280         40.83	     7.000
  58.300         41.67	     7.071
  58.320         45.00	     7.348
  58.340         40.00	     6.928
  58.360         40.00	     6.928
  58.380         31.67	     6.164
  58.400         44.17	     7.280
  58.420         47.50	     7.550
  58.440         35.00	     6.481
  58.460         37.50	     6.708
  58.480         39.17	     6.856
  58.500         51.67	     7.874
  58.520         55.83	     8.185
  58.540         45.83	     7.416
  58.560         70.00	     9.165
  58.580         78.33	     9.695
  58.600         70.00	     9.165
  58.620         42.50	     7.141
  58.640         69.17	     9.110
  58.660         54.17	     8.062
  58.680         59.17	     8.426
  58.700         60.83	     8.544
  58.720         60.00	     8.485
  58.740         52.50	     7.937
  58.760         62.50	     8.660
  58.780         58.33	     8.367
  58.800         43.33	     7.211
  58.820         52.50	     7.937
  58.840         44.17	     7.280
  58.860         57.50	     8.307
  58.880         50.00	     7.746
  58.900         60.00	     8.485
  58.920         43.33	     7.211
  58.940         47.50	     7.550
  58.960         50.83	     7.810
  58.980         38.33	     6.782
  59.000         50.83	     7.810
  59.020         49.17	     7.681
  59.040         52.50	     7.937
  59.060         68.33	     9.055
  59.080         50.00	     7.746
  59.100         48.33	     7.616
  59.120         46.67	     7.483
  59.140         61.67	     8.602
  59.160         53.33	     8.000
  59.180         54.17	     8.062
  59.200         60.00	     8.485
  59.220         50.00	     7.746
  59.240         50.83	     7.810
  59.260         45.83	     7.416
  59.280         51.67	     7.874
  59.300         43.33	     7.211
  59.320         52.50	     7.937
  59.340         48.33	     7.616
  59.360         47.50	     7.550
  59.380         46.67	     7.483
  59.400         35.00	     6.481
  59.420         49.17	     7.681
  59.440         36.67	     6.633
  59.460         44.17	     7.280
  59.480         47.50	     7.550
  59.500         46.67	     7.483
  59.520         45.83	     7.416
  59.540         43.33	     7.211
  59.560         46.67	     7.483
  59.580         40.83	     7.000
  59.600         47.50	     7.550
  59.620         35.00	     6.481
  59.640         43.33	     7.211
  59.660         45.83	     7.416
  59.680         52.50	     7.937
  59.700         42.50	     7.141
  59.720         62.50	     8.660
  59.740         46.67	     7.483
  59.760         50.00	     7.746
  59.780         68.33	     9.055
  59.800         65.00	     8.832
  59.820         83.33	    10.000
  59.840        140.83	    13.000
  59.860        175.00	    14.491
  59.880        240.83	    17.000
  59.900        298.33	    18.921
  59.920        390.00	    21.633
  59.940        340.83	    20.224
  59.960        241.67	    17.029
  59.980        172.50	    14.387
  60.000        154.17	    13.601
  60.020        135.83	    12.767
  60.040        137.50	    12.845
  60.060        168.33	    14.213
  60.080        215.83	    16.093
  60.100        231.67	    16.673
  60.120        175.83	    14.526
  60.140        145.00	    13.191
  60.160         85.83	    10.149
  60.180         65.00	     8.832
  60.200         70.00	     9.165
  60.220         53.33	     8.000
  60.240         59.17	     8.426
  60.260         50.00	     7.746
  60.280         56.67	     8.246
  60.300         45.83	     7.416
  60.320         53.33	     8.000
  60.340         64.17	     8.775
  60.360         57.50	     8.307
  60.380         47.50	     7.550
  60.400         55.83	     8.185
  60.420         51.67	     7.874
  60.440         50.00	     7.746
  60.460         58.33	     8.367
  60.480         51.67	     7.874
  60.500         38.33	     6.782
  60.520         44.17	     7.280
  60.540         45.83	     7.416
  60.560         51.67	     7.874
  60.580         55.00	     8.124
  60.600         56.67	     8.246
  60.620         70.00	     9.165
  60.640         63.33	     8.718
  60.660         64.17	     8.775
  60.680         68.33	     9.055
  60.700         58.33	     8.367
  60.720         52.50	     7.937
  60.740         57.50	     8.307
  60.760         56.67	     8.246
  60.780         61.67	     8.602
  60.800         74.17	     9.434
  60.820         61.67	     8.602
  60.840         49.17	     7.681
  60.860         59.17	     8.426
  60.880         49.17	     7.681
  60.900         60.00	     8.485
  60.920         57.50	     8.307
  60.940         56.67	     8.246
  60.960         50.83	     7.810
  60.980         65.83	     8.888
  61.000         70.83	     9.220
  61.020         53.33	     8.000
  61.040         56.67	     8.246
  61.060         56.67	     8.246
  61.080         55.00	     8.124
  61.100         50.00	     7.746
  61.120         55.83	     8.185
  61.140         44.17	     7.280
  61.160         40.00	     6.928
  61.180         43.33	     7.211
  61.200         52.50	     7.937
  61.220         54.17	     8.062
  61.240         55.83	     8.185
  61.260         46.67	     7.483
  61.280         60.83	     8.544
  61.300         64.17	     8.775
  61.320         56.67	     8.246
  61.340         54.17	     8.062
  61.360         45.83	     7.416
  61.380         65.83	     8.888
  61.400         60.00	     8.485
  61.420         76.67	     9.592
  61.440         68.33	     9.055
  61.460         86.67	    10.198
  61.480         69.17	     9.110
  61.500         60.00	     8.485
  61.520         76.67	     9.592
  61.540         68.33	     9.055
  61.560         77.50	     9.644
  61.580         80.00	     9.798
  61.600         78.33	     9.695
  61.620         75.00	     9.487
  61.640         66.67	     8.944
  61.660         80.00	     9.798
  61.680         71.67	     9.274
  61.700         69.17	     9.110
  61.720         65.00	     8.832
  61.740         70.00	     9.165
  61.760         71.67	     9.274
  61.780         71.67	     9.274
  61.800         77.50	     9.644
  61.820         60.83	     8.544
  61.840         68.33	     9.055
  61.860         66.67	     8.944
  61.880         52.50	     7.937
  61.900         55.83	     8.185
  61.920         44.17	     7.280
  61.940         46.67	     7.483
  61.960         41.67	     7.071
  61.980         43.33	     7.211
  62.000         54.17	     8.062
  62.020         53.33	     8.000
  62.040         47.50	     7.550
  62.060         42.50	     7.141
  62.080         45.00	     7.348
  62.100         45.83	     7.416
  62.120         41.67	     7.071
  62.140         40.00	     6.928
  62.160         37.50	     6.708
  62.180         38.33	     6.782
  62.200         49.17	     7.681
  62.220         35.00	     6.481
  62.240         32.50	     6.245
  62.260         33.33	     6.325
  62.280         35.00	     6.481
  62.300         40.00	     6.928
  62.320         29.17	     5.916
  62.340         40.00	     6.928
  62.360         35.00	     6.481
  62.380         34.17	     6.403
  62.400         33.33	     6.325
  62.420         44.17	     7.280
  62.440         43.33	     7.211
  62.460         31.67	     6.164
  62.480         38.33	     6.782
  62.500         31.67	     6.164
  62.520         43.33	     7.211
  62.540         37.50	     6.708
  62.560         42.50	     7.141
  62.580         35.00	     6.481
  62.600         35.00	     6.481
  62.620         38.33	     6.782
  62.640         36.67	     6.633
  62.660         39.17	     6.856
  62.680         37.50	     6.708
  62.700         46.67	     7.483
  62.720         35.00	     6.481
  62.740         43.33	     7.211
  62.760         55.83	     8.185
  62.780         38.33	     6.782
  62.800         34.17	     6.403
  62.820         32.50	     6.245
  62.840         44.17	     7.280
  62.860         43.33	     7.211
  62.880         48.33	     7.616
  62.900         45.00	     7.348
  62.920         40.00	     6.928
  62.940         49.17	     7.681
  62.960         35.00	     6.481
  62.980         35.83	     6.557
  63.000         37.50	     6.708
  63.020         33.33	     6.325
  63.040         36.67	     6.633
  63.060         40.00	     6.928
  63.080         47.50	     7.550
  63.100         29.17	     5.916
  63.120         30.00	     6.000
  63.140         40.83	     7.000
  63.160         51.67	     7.874
  63.180         45.83	     7.416
  63.200         38.33	     6.782
  63.220         46.67	     7.483
  63.240         37.50	     6.708
  63.260         39.17	     6.856
  63.280         32.50	     6.245
  63.300         46.67	     7.483
  63.320         40.00	     6.928
  63.340         45.00	     7.348
  63.360         46.67	     7.483
  63.380         60.83	     8.544
  63.400         55.83	     8.185
  63.420         45.00	     7.348
  63.440         49.17	     7.681
  63.460         54.17	     8.062
  63.480         50.83	     7.810
  63.500         45.00	     7.348
  63.520         50.00	     7.746
  63.540         43.33	     7.211
  63.560         53.33	     8.000
  63.580         55.00	     8.124
  63.600         49.17	     7.681
  63.620         52.50	     7.937
  63.640         48.33	     7.616
  63.660         50.00	     7.746
  63.680         60.00	     8.485
  63.700         46.67	     7.483
  63.720         32.50	     6.245
  63.740         37.50	     6.708
  63.760         35.83	     6.557
  63.780         55.83	     8.185
  63.800         50.00	     7.746
  63.820         46.67	     7.483
  63.840         50.00	     7.746
  63.860         49.17	     7.681
  63.880         58.33	     8.367
  63.900         59.17	     8.426
  63.920         72.50	     9.327
  63.940         56.67	     8.246
  63.960         79.17	     9.747
  63.980        102.50	    11.091
  64.000         99.17	    10.909
  64.020        120.00	    12.000
  64.040        103.33	    11.136
  64.060         82.50	     9.950
  64.080         55.83	     8.185
  64.100         54.17	     8.062
  64.120         70.83	     9.220
  64.140         70.83	     9.220
  64.160         82.50	     9.950
  64.180         70.83	     9.220
  64.200         70.00	     9.165
  64.220         65.00	     8.832
  64.240         69.17	     9.110
  64.260         57.50	     8.307
  64.280         49.17	     7.681
  64.300         40.00	     6.928
  64.320         50.00	     7.746
  64.340         52.50	     7.937
  64.360         47.50	     7.550
  64.380         55.83	     8.185
  64.400         48.33	     7.616
  64.420         42.50	     7.141
  64.440         52.50	     7.937
  64.460         43.33	     7.211
  64.480         41.67	     7.071
  64.500         38.33	     6.782
  64.520         42.50	     7.141
  64.540         41.67	     7.071
  64.560         50.00	     7.746
  64.580         61.67	     8.602
  64.600         70.00	     9.165
  64.620         89.17	    10.344
  64.640         94.17	    10.630
  64.660        106.67	    11.314
  64.680         72.50	     9.327
  64.700         57.50	     8.307
  64.720         66.67	     8.944
  64.740         60.00	     8.485
  64.760         59.17	     8.426
  64.780         65.83	     8.888
  64.800         76.67	     9.592
  64.820         79.17	     9.747
  64.840         75.83	     9.539
  64.860         58.33	     8.367
  64.880         48.33	     7.616
  64.900         53.33	     8.000
  64.920         49.17	     7.681
  64.940         49.17	     7.681
  64.960         44.17	     7.280
  64.980         65.00	     8.832
  65.000         45.83	     7.416
