
Filename:
	C:\Program Files\Thermo Electron\WinXRD\Datafiles\F_HERMAN\GEO\G46_RT.raw

File Created:
	February 18, 2020 - 11:23 PM

Specimen Id:
	G46_RT

Specimen Name:
	

Specimen Description:
	

Comment:
Scan Type: 2Theta Scan
Start Angle: 3 deg.
Stop Angle: 65 deg.
Num Points: 3101
Step Size: 0.02 deg.
Scan Rate: 1.000000
Scan Mode: Continuous
Wavelength: 1.540562
\Kalpha1: 1.540562	\Kalpha2: 1.544390	\Kbeta: 1.392218

Optics:
		Detector:
			 Type: Fixed Slits
		Tube: 
			 Type: Fixed Slits


Datas:
 Pos [deg]       Rate [CPS]      ESD [-]

Range 1 ---> Iteration 1
   3.000        441.67	    23.022
   3.020        445.83	    23.130
   3.040        448.33	    23.195
   3.060        398.33	    21.863
   3.080        460.83	    23.516
   3.100        420.00	    22.450
   3.120        406.67	    22.091
   3.140        431.67	    22.760
   3.160        399.17	    21.886
   3.180        416.67	    22.361
   3.200        414.17	    22.293
   3.220        409.17	    22.159
   3.240        398.33	    21.863
   3.260        405.00	    22.045
   3.280        407.50	    22.113
   3.300        413.33	    22.271
   3.320        365.83	    20.952
   3.340        372.50	    21.142
   3.360        367.50	    21.000
   3.380        396.67	    21.817
   3.400        404.17	    22.023
   3.420        384.17	    21.471
   3.440        363.33	    20.881
   3.460        363.33	    20.881
   3.480        340.83	    20.224
   3.500        360.00	    20.785
   3.520        374.17	    21.190
   3.540        362.50	    20.857
   3.560        365.00	    20.928
   3.580        363.33	    20.881
   3.600        342.50	    20.273
   3.620        356.67	    20.688
   3.640        331.67	    19.950
   3.660        365.83	    20.952
   3.680        353.33	    20.591
   3.700        343.33	    20.298
   3.720        378.33	    21.307
   3.740        332.50	    19.975
   3.760        352.50	    20.567
   3.780        356.67	    20.688
   3.800        342.50	    20.273
   3.820        360.00	    20.785
   3.840        305.00	    19.131
   3.860        330.00	    19.900
   3.880        325.00	    19.748
   3.900        352.50	    20.567
   3.920        350.00	    20.494
   3.940        342.50	    20.273
   3.960        307.50	    19.209
   3.980        333.33	    20.000
   4.000        318.33	    19.545
   4.020        315.83	    19.468
   4.040        275.83	    18.193
   4.060        322.50	    19.672
   4.080        310.00	    19.287
   4.100        311.67	    19.339
   4.120        285.83	    18.520
   4.140        315.83	    19.468
   4.160        276.67	    18.221
   4.180        304.17	    19.105
   4.200        311.67	    19.339
   4.220        279.17	    18.303
   4.240        278.33	    18.276
   4.260        310.00	    19.287
   4.280        324.17	    19.723
   4.300        308.33	    19.235
   4.320        302.50	    19.053
   4.340        291.67	    18.708
   4.360        274.17	    18.138
   4.380        334.17	    20.025
   4.400        285.83	    18.520
   4.420        275.83	    18.193
   4.440        303.33	    19.079
   4.460        309.17	    19.261
   4.480        284.17	    18.466
   4.500        276.67	    18.221
   4.520        255.00	    17.493
   4.540        265.00	    17.833
   4.560        298.33	    18.921
   4.580        284.17	    18.466
   4.600        268.33	    17.944
   4.620        298.33	    18.921
   4.640        287.50	    18.574
   4.660        275.00	    18.166
   4.680        247.50	    17.234
   4.700        248.33	    17.263
   4.720        263.33	    17.776
   4.740        248.33	    17.263
   4.760        225.00	    16.432
   4.780        240.83	    17.000
   4.800        253.33	    17.436
   4.820        250.83	    17.349
   4.840        275.00	    18.166
   4.860        240.00	    16.971
   4.880        246.67	    17.205
   4.900        250.83	    17.349
   4.920        232.50	    16.703
   4.940        262.50	    17.748
   4.960        265.00	    17.833
   4.980        266.67	    17.889
   5.000        245.00	    17.146
   5.020        246.67	    17.205
   5.040        223.33	    16.371
   5.060        225.00	    16.432
   5.080        245.00	    17.146
   5.100        227.50	    16.523
   5.120        249.17	    17.292
   5.140        239.17	    16.941
   5.160        224.17	    16.401
   5.180        226.67	    16.492
   5.200        223.33	    16.371
   5.220        220.00	    16.248
   5.240        230.00	    16.613
   5.260        225.00	    16.432
   5.280        230.83	    16.643
   5.300        217.50	    16.155
   5.320        232.50	    16.703
   5.340        213.33	    16.000
   5.360        243.33	    17.088
   5.380        230.00	    16.613
   5.400        235.83	    16.823
   5.420        225.00	    16.432
   5.440        228.33	    16.553
   5.460        237.50	    16.882
   5.480        234.17	    16.763
   5.500        245.00	    17.146
   5.520        253.33	    17.436
   5.540        217.50	    16.155
   5.560        207.50	    15.780
   5.580        217.50	    16.155
   5.600        215.00	    16.062
   5.620        188.33	    15.033
   5.640        215.00	    16.062
   5.660        209.17	    15.843
   5.680        210.83	    15.906
   5.700        210.83	    15.906
   5.720        195.00	    15.297
   5.740        223.33	    16.371
   5.760        225.00	    16.432
   5.780        219.17	    16.217
   5.800        206.67	    15.748
   5.820        208.33	    15.811
   5.840        255.00	    17.493
   5.860        242.50	    17.059
   5.880        211.67	    15.937
   5.900        217.50	    16.155
   5.920        220.00	    16.248
   5.940        229.17	    16.583
   5.960        231.67	    16.673
   5.980        255.83	    17.521
   6.000        259.17	    17.635
   6.020        285.83	    18.520
   6.040        251.67	    17.378
   6.060        230.83	    16.643
   6.080        245.83	    17.176
   6.100        258.33	    17.607
   6.120        290.00	    18.655
   6.140        264.17	    17.804
   6.160        309.17	    19.261
   6.180        295.00	    18.815
   6.200        266.67	    17.889
   6.220        218.33	    16.186
   6.240        223.33	    16.371
   6.260        196.67	    15.362
   6.280        206.67	    15.748
   6.300        198.33	    15.427
   6.320        200.83	    15.524
   6.340        211.67	    15.937
   6.360        211.67	    15.937
   6.380        210.83	    15.906
   6.400        210.83	    15.906
   6.420        190.83	    15.133
   6.440        203.33	    15.620
   6.460        185.00	    14.900
   6.480        178.33	    14.629
   6.500        202.50	    15.588
   6.520        210.00	    15.875
   6.540        210.83	    15.906
   6.560        214.17	    16.031
   6.580        193.33	    15.232
   6.600        183.33	    14.832
   6.620        188.33	    15.033
   6.640        213.33	    16.000
   6.660        195.00	    15.297
   6.680        190.83	    15.133
   6.700        195.00	    15.297
   6.720        191.67	    15.166
   6.740        185.00	    14.900
   6.760        198.33	    15.427
   6.780        200.83	    15.524
   6.800        186.67	    14.967
   6.820        210.00	    15.875
   6.840        186.67	    14.967
   6.860        184.17	    14.866
   6.880        193.33	    15.232
   6.900        233.33	    16.733
   6.920        170.00	    14.283
   6.940        216.67	    16.125
   6.960        188.33	    15.033
   6.980        187.50	    15.000
   7.000        184.17	    14.866
   7.020        211.67	    15.937
   7.040        173.33	    14.422
   7.060        171.67	    14.353
   7.080        192.50	    15.199
   7.100        174.17	    14.457
   7.120        179.17	    14.663
   7.140        177.50	    14.595
   7.160        175.00	    14.491
   7.180        195.83	    15.330
   7.200        170.83	    14.318
   7.220        175.83	    14.526
   7.240        180.83	    14.731
   7.260        165.83	    14.107
   7.280        208.33	    15.811
   7.300        158.33	    13.784
   7.320        177.50	    14.595
   7.340        172.50	    14.387
   7.360        195.00	    15.297
   7.380        147.50	    13.304
   7.400        156.67	    13.711
   7.420        168.33	    14.213
   7.440        148.33	    13.342
   7.460        158.33	    13.784
   7.480        167.50	    14.177
   7.500        128.33	    12.410
   7.520        168.33	    14.213
   7.540        170.83	    14.318
   7.560        144.17	    13.153
   7.580        142.50	    13.077
   7.600        143.33	    13.115
   7.620        161.67	    13.928
   7.640        162.50	    13.964
   7.660        144.17	    13.153
   7.680        155.83	    13.675
   7.700        165.00	    14.071
   7.720        151.67	    13.491
   7.740        138.33	    12.884
   7.760        165.83	    14.107
   7.780        157.50	    13.748
   7.800        180.00	    14.697
   7.820        138.33	    12.884
   7.840        158.33	    13.784
   7.860        180.83	    14.731
   7.880        152.50	    13.528
   7.900        171.67	    14.353
   7.920        149.17	    13.379
   7.940        140.83	    13.000
   7.960        151.67	    13.491
   7.980        151.67	    13.491
   8.000        155.83	    13.675
   8.020        159.17	    13.820
   8.040        152.50	    13.528
   8.060        145.00	    13.191
   8.080        137.50	    12.845
   8.100        140.83	    13.000
   8.120        171.67	    14.353
   8.140        165.00	    14.071
   8.160        156.67	    13.711
   8.180        156.67	    13.711
   8.200        155.83	    13.675
   8.220        146.67	    13.266
   8.240        135.83	    12.767
   8.260        132.50	    12.610
   8.280        141.67	    13.038
   8.300        165.83	    14.107
   8.320        167.50	    14.177
   8.340        152.50	    13.528
   8.360        173.33	    14.422
   8.380        160.83	    13.892
   8.400        154.17	    13.601
   8.420        162.50	    13.964
   8.440        164.17	    14.036
   8.460        170.83	    14.318
   8.480        174.17	    14.457
   8.500        143.33	    13.115
   8.520        171.67	    14.353
   8.540        165.00	    14.071
   8.560        163.33	    14.000
   8.580        182.50	    14.799
   8.600        196.67	    15.362
   8.620        200.00	    15.492
   8.640        193.33	    15.232
   8.660        220.83	    16.279
   8.680        232.50	    16.703
   8.700        251.67	    17.378
   8.720        274.17	    18.138
   8.740        287.50	    18.574
   8.760        362.50	    20.857
   8.780        558.33	    25.884
   8.800        693.33	    28.844
   8.820        750.83	    30.017
   8.840        736.67	    29.732
   8.860        423.33	    22.539
   8.880        254.17	    17.464
   8.900        191.67	    15.166
   8.920        157.50	    13.748
   8.940        168.33	    14.213
   8.960        158.33	    13.784
   8.980        160.00	    13.856
   9.000        139.17	    12.923
   9.020        142.50	    13.077
   9.040        141.67	    13.038
   9.060        145.83	    13.229
   9.080        137.50	    12.845
   9.100        165.83	    14.107
   9.120        170.83	    14.318
   9.140        140.83	    13.000
   9.160        145.00	    13.191
   9.180        117.50	    11.874
   9.200        143.33	    13.115
   9.220        115.00	    11.747
   9.240        140.00	    12.961
   9.260        129.17	    12.450
   9.280        118.33	    11.916
   9.300        130.00	    12.490
   9.320        142.50	    13.077
   9.340        124.17	    12.207
   9.360        167.50	    14.177
   9.380        168.33	    14.213
   9.400        168.33	    14.213
   9.420        153.33	    13.565
   9.440        121.67	    12.083
   9.460        131.67	    12.570
   9.480        124.17	    12.207
   9.500        118.33	    11.916
   9.520        135.00	    12.728
   9.540        114.17	    11.705
   9.560        117.50	    11.874
   9.580        123.33	    12.166
   9.600        132.50	    12.610
   9.620        122.50	    12.124
   9.640        124.17	    12.207
   9.660        111.67	    11.576
   9.680        124.17	    12.207
   9.700        132.50	    12.610
   9.720        145.83	    13.229
   9.740        123.33	    12.166
   9.760        150.00	    13.416
   9.780        130.00	    12.490
   9.800        110.00	    11.489
   9.820        131.67	    12.570
   9.840        124.17	    12.207
   9.860        122.50	    12.124
   9.880        103.33	    11.136
   9.900        124.17	    12.207
   9.920        100.83	    11.000
   9.940        120.00	    12.000
   9.960        118.33	    11.916
   9.980        121.67	    12.083
  10.000        134.17	    12.689
  10.020         97.50	    10.817
  10.040        119.17	    11.958
  10.060        125.00	    12.247
  10.080        114.17	    11.705
  10.100        118.33	    11.916
  10.120        108.33	    11.402
  10.140         91.67	    10.488
  10.160        101.67	    11.045
  10.180        114.17	    11.705
  10.200        115.00	    11.747
  10.220        100.00	    10.954
  10.240        112.50	    11.619
  10.260         98.33	    10.863
  10.280        112.50	    11.619
  10.300         94.17	    10.630
  10.320        110.83	    11.533
  10.340        137.50	    12.845
  10.360        104.17	    11.180
  10.380        149.17	    13.379
  10.400        123.33	    12.166
  10.420        145.83	    13.229
  10.440        180.00	    14.697
  10.460        215.00	    16.062
  10.480        205.83	    15.716
  10.500        174.17	    14.457
  10.520        148.33	    13.342
  10.540        134.17	    12.689
  10.560        125.00	    12.247
  10.580        104.17	    11.180
  10.600        116.67	    11.832
  10.620        114.17	    11.705
  10.640        115.00	    11.747
  10.660        103.33	    11.136
  10.680        102.50	    11.091
  10.700        105.83	    11.269
  10.720        109.17	    11.446
  10.740        109.17	    11.446
  10.760         95.00	    10.677
  10.780        108.33	    11.402
  10.800        130.83	    12.530
  10.820        102.50	    11.091
  10.840        112.50	    11.619
  10.860        118.33	    11.916
  10.880        100.00	    10.954
  10.900        114.17	    11.705
  10.920        109.17	    11.446
  10.940        110.00	    11.489
  10.960        124.17	    12.207
  10.980        105.83	    11.269
  11.000        108.33	    11.402
  11.020        123.33	    12.166
  11.040        124.17	    12.207
  11.060        108.33	    11.402
  11.080        110.83	    11.533
  11.100        112.50	    11.619
  11.120        107.50	    11.358
  11.140         82.50	     9.950
  11.160         95.00	    10.677
  11.180        114.17	    11.705
  11.200        102.50	    11.091
  11.220         97.50	    10.817
  11.240        100.83	    11.000
  11.260        110.83	    11.533
  11.280        104.17	    11.180
  11.300        100.83	    11.000
  11.320         82.50	     9.950
  11.340         83.33	    10.000
  11.360         88.33	    10.296
  11.380        104.17	    11.180
  11.400         96.67	    10.770
  11.420         85.83	    10.149
  11.440        101.67	    11.045
  11.460         94.17	    10.630
  11.480         95.00	    10.677
  11.500         95.00	    10.677
  11.520         93.33	    10.583
  11.540         87.50	    10.247
  11.560         95.83	    10.724
  11.580        115.00	    11.747
  11.600        107.50	    11.358
  11.620        107.50	    11.358
  11.640        101.67	    11.045
  11.660        100.00	    10.954
  11.680        105.00	    11.225
  11.700        104.17	    11.180
  11.720         99.17	    10.909
  11.740        100.00	    10.954
  11.760        102.50	    11.091
  11.780        110.00	    11.489
  11.800        112.50	    11.619
  11.820        104.17	    11.180
  11.840        103.33	    11.136
  11.860        112.50	    11.619
  11.880        116.67	    11.832
  11.900        100.00	    10.954
  11.920        102.50	    11.091
  11.940        107.50	    11.358
  11.960        107.50	    11.358
  11.980        130.00	    12.490
  12.000        151.67	    13.491
  12.020        137.50	    12.845
  12.040        138.33	    12.884
  12.060        191.67	    15.166
  12.080        207.50	    15.780
  12.100        290.83	    18.682
  12.120        398.33	    21.863
  12.140        385.83	    21.517
  12.160        384.17	    21.471
  12.180        255.00	    17.493
  12.200        196.67	    15.362
  12.220        165.00	    14.071
  12.240        186.67	    14.967
  12.260        197.50	    15.395
  12.280        211.67	    15.937
  12.300        190.83	    15.133
  12.320        204.17	    15.652
  12.340        190.00	    15.100
  12.360        215.00	    16.062
  12.380        232.50	    16.703
  12.400        246.67	    17.205
  12.420        325.83	    19.774
  12.440        320.83	    19.621
  12.460        333.33	    20.000
  12.480        221.67	    16.310
  12.500        161.67	    13.928
  12.520        148.33	    13.342
  12.540        120.00	    12.000
  12.560        115.00	    11.747
  12.580         92.50	    10.536
  12.600        117.50	    11.874
  12.620        108.33	    11.402
  12.640         89.17	    10.344
  12.660        100.00	    10.954
  12.680        100.83	    11.000
  12.700         93.33	    10.583
  12.720         86.67	    10.198
  12.740         88.33	    10.296
  12.760         79.17	     9.747
  12.780         90.83	    10.440
  12.800         92.50	    10.536
  12.820         99.17	    10.909
  12.840         77.50	     9.644
  12.860         84.17	    10.050
  12.880         86.67	    10.198
  12.900         97.50	    10.817
  12.920         90.00	    10.392
  12.940         81.67	     9.899
  12.960         76.67	     9.592
  12.980         92.50	    10.536
  13.000         90.00	    10.392
  13.020         99.17	    10.909
  13.040         86.67	    10.198
  13.060         88.33	    10.296
  13.080         91.67	    10.488
  13.100         90.00	    10.392
  13.120         90.83	    10.440
  13.140         72.50	     9.327
  13.160         87.50	    10.247
  13.180         90.00	    10.392
  13.200         85.83	    10.149
  13.220         90.83	    10.440
  13.240        100.83	    11.000
  13.260         85.83	    10.149
  13.280         96.67	    10.770
  13.300         85.83	    10.149
  13.320         81.67	     9.899
  13.340         97.50	    10.817
  13.360         89.17	    10.344
  13.380         76.67	     9.592
  13.400         92.50	    10.536
  13.420         96.67	    10.770
  13.440         83.33	    10.000
  13.460         86.67	    10.198
  13.480         96.67	    10.770
  13.500         80.83	     9.849
  13.520         75.00	     9.487
  13.540         92.50	    10.536
  13.560         96.67	    10.770
  13.580        120.00	    12.000
  13.600         84.17	    10.050
  13.620         90.83	    10.440
  13.640        105.00	    11.225
  13.660         95.00	    10.677
  13.680         79.17	     9.747
  13.700         95.00	    10.677
  13.720         93.33	    10.583
  13.740         93.33	    10.583
  13.760         99.17	    10.909
  13.780        112.50	    11.619
  13.800        123.33	    12.166
  13.820        102.50	    11.091
  13.840        100.00	    10.954
  13.860         90.83	    10.440
  13.880        104.17	    11.180
  13.900         80.83	     9.849
  13.920         73.33	     9.381
  13.940         89.17	    10.344
  13.960         77.50	     9.644
  13.980         82.50	     9.950
  14.000        104.17	    11.180
  14.020         91.67	    10.488
  14.040         80.83	     9.849
  14.060         71.67	     9.274
  14.080         82.50	     9.950
  14.100         82.50	     9.950
  14.120         70.00	     9.165
  14.140         70.00	     9.165
  14.160         72.50	     9.327
  14.180         75.00	     9.487
  14.200         95.00	    10.677
  14.220         78.33	     9.695
  14.240         84.17	    10.050
  14.260         85.00	    10.100
  14.280         76.67	     9.592
  14.300         70.83	     9.220
  14.320         65.83	     8.888
  14.340         81.67	     9.899
  14.360         74.17	     9.434
  14.380         67.50	     9.000
  14.400         89.17	    10.344
  14.420         91.67	    10.488
  14.440         89.17	    10.344
  14.460         75.83	     9.539
  14.480         98.33	    10.863
  14.500         79.17	     9.747
  14.520         83.33	    10.000
  14.540         94.17	    10.630
  14.560         78.33	     9.695
  14.580         86.67	    10.198
  14.600         75.83	     9.539
  14.620         84.17	    10.050
  14.640         56.67	     8.246
  14.660         69.17	     9.110
  14.680         84.17	    10.050
  14.700         72.50	     9.327
  14.720         72.50	     9.327
  14.740         70.00	     9.165
  14.760         76.67	     9.592
  14.780         83.33	    10.000
  14.800         70.83	     9.220
  14.820         83.33	    10.000
  14.840         83.33	    10.000
  14.860         86.67	    10.198
  14.880         74.17	     9.434
  14.900         99.17	    10.909
  14.920         82.50	     9.950
  14.940         85.00	    10.100
  14.960         75.00	     9.487
  14.980         74.17	     9.434
  15.000         75.00	     9.487
  15.020         69.17	     9.110
  15.040         69.17	     9.110
  15.060         72.50	     9.327
  15.080         60.00	     8.485
  15.100         80.00	     9.798
  15.120         77.50	     9.644
  15.140         89.17	    10.344
  15.160         74.17	     9.434
  15.180         75.83	     9.539
  15.200         68.33	     9.055
  15.220         65.00	     8.832
  15.240         71.67	     9.274
  15.260         64.17	     8.775
  15.280         72.50	     9.327
  15.300         65.00	     8.832
  15.320         73.33	     9.381
  15.340         68.33	     9.055
  15.360         75.83	     9.539
  15.380         66.67	     8.944
  15.400         78.33	     9.695
  15.420         66.67	     8.944
  15.440         77.50	     9.644
  15.460         69.17	     9.110
  15.480         91.67	    10.488
  15.500         70.83	     9.220
  15.520         61.67	     8.602
  15.540         80.83	     9.849
  15.560         80.83	     9.849
  15.580         75.00	     9.487
  15.600         68.33	     9.055
  15.620         70.00	     9.165
  15.640         63.33	     8.718
  15.660         70.00	     9.165
  15.680         70.83	     9.220
  15.700         74.17	     9.434
  15.720         79.17	     9.747
  15.740         73.33	     9.381
  15.760         89.17	    10.344
  15.780         77.50	     9.644
  15.800         85.83	    10.149
  15.820         67.50	     9.000
  15.840         69.17	     9.110
  15.860         76.67	     9.592
  15.880         75.00	     9.487
  15.900         72.50	     9.327
  15.920         81.67	     9.899
  15.940         74.17	     9.434
  15.960         70.00	     9.165
  15.980         67.50	     9.000
  16.000         66.67	     8.944
  16.020         91.67	    10.488
  16.040         72.50	     9.327
  16.060         72.50	     9.327
  16.080         66.67	     8.944
  16.100         86.67	    10.198
  16.120         65.83	     8.888
  16.140         65.83	     8.888
  16.160         67.50	     9.000
  16.180         78.33	     9.695
  16.200         71.67	     9.274
  16.220         65.83	     8.888
  16.240         62.50	     8.660
  16.260         75.00	     9.487
  16.280         75.00	     9.487
  16.300         77.50	     9.644
  16.320         82.50	     9.950
  16.340         79.17	     9.747
  16.360         65.00	     8.832
  16.380         49.17	     7.681
  16.400         70.83	     9.220
  16.420         82.50	     9.950
  16.440         60.83	     8.544
  16.460         65.83	     8.888
  16.480         76.67	     9.592
  16.500         65.00	     8.832
  16.520         82.50	     9.950
  16.540         60.83	     8.544
  16.560         68.33	     9.055
  16.580         60.83	     8.544
  16.600         58.33	     8.367
  16.620         70.83	     9.220
  16.640         76.67	     9.592
  16.660         67.50	     9.000
  16.680         69.17	     9.110
  16.700         67.50	     9.000
  16.720         69.17	     9.110
  16.740         61.67	     8.602
  16.760         70.00	     9.165
  16.780         60.83	     8.544
  16.800         81.67	     9.899
  16.820         72.50	     9.327
  16.840         68.33	     9.055
  16.860         53.33	     8.000
  16.880         82.50	     9.950
  16.900         80.00	     9.798
  16.920         64.17	     8.775
  16.940         77.50	     9.644
  16.960         57.50	     8.307
  16.980         77.50	     9.644
  17.000         87.50	    10.247
  17.020         65.83	     8.888
  17.040         76.67	     9.592
  17.060         62.50	     8.660
  17.080         65.83	     8.888
  17.100         65.00	     8.832
  17.120         77.50	     9.644
  17.140         73.33	     9.381
  17.160         85.00	    10.100
  17.180         77.50	     9.644
  17.200         81.67	     9.899
  17.220        154.17	    13.601
  17.240        251.67	    17.378
  17.260        245.83	    17.176
  17.280        190.83	    15.133
  17.300        145.00	    13.191
  17.320         74.17	     9.434
  17.340         84.17	    10.050
  17.360         75.00	     9.487
  17.380         75.00	     9.487
  17.400         88.33	    10.296
  17.420         68.33	     9.055
  17.440         60.00	     8.485
  17.460         66.67	     8.944
  17.480         74.17	     9.434
  17.500         70.00	     9.165
  17.520         74.17	     9.434
  17.540         65.83	     8.888
  17.560         75.00	     9.487
  17.580         90.83	    10.440
  17.600         95.83	    10.724
  17.620         75.00	     9.487
  17.640         91.67	    10.488
  17.660        105.83	    11.269
  17.680        146.67	    13.266
  17.700        176.67	    14.560
  17.720        215.00	    16.062
  17.740        256.67	    17.550
  17.760        266.67	    17.889
  17.780        270.83	    18.028
  17.800        217.50	    16.155
  17.820        164.17	    14.036
  17.840        134.17	    12.689
  17.860        100.00	    10.954
  17.880         70.00	     9.165
  17.900         71.67	     9.274
  17.920         72.50	     9.327
  17.940         82.50	     9.950
  17.960         69.17	     9.110
  17.980         83.33	    10.000
  18.000         61.67	     8.602
  18.020         78.33	     9.695
  18.040         89.17	    10.344
  18.060         70.83	     9.220
  18.080         69.17	     9.110
  18.100         54.17	     8.062
  18.120         70.83	     9.220
  18.140         57.50	     8.307
  18.160         61.67	     8.602
  18.180         65.00	     8.832
  18.200         69.17	     9.110
  18.220         68.33	     9.055
  18.240         72.50	     9.327
  18.260         82.50	     9.950
  18.280         77.50	     9.644
  18.300         79.17	     9.747
  18.320         69.17	     9.110
  18.340         92.50	    10.536
  18.360         71.67	     9.274
  18.380         89.17	    10.344
  18.400         81.67	     9.899
  18.420         99.17	    10.909
  18.440         97.50	    10.817
  18.460         93.33	    10.583
  18.480        115.00	    11.747
  18.500        140.00	    12.961
  18.520        123.33	    12.166
  18.540        103.33	    11.136
  18.560         87.50	    10.247
  18.580         84.17	    10.050
  18.600         89.17	    10.344
  18.620         80.00	     9.798
  18.640        112.50	    11.619
  18.660         87.50	    10.247
  18.680        126.67	    12.329
  18.700        135.00	    12.728
  18.720        149.17	    13.379
  18.740        172.50	    14.387
  18.760        165.83	    14.107
  18.780        134.17	    12.689
  18.800         93.33	    10.583
  18.820         97.50	    10.817
  18.840         93.33	    10.583
  18.860         68.33	     9.055
  18.880         85.83	    10.149
  18.900         77.50	     9.644
  18.920         72.50	     9.327
  18.940         65.83	     8.888
  18.960         57.50	     8.307
  18.980         67.50	     9.000
  19.000         59.17	     8.426
  19.020         68.33	     9.055
  19.040         66.67	     8.944
  19.060         84.17	    10.050
  19.080         64.17	     8.775
  19.100         68.33	     9.055
  19.120         73.33	     9.381
  19.140         86.67	    10.198
  19.160         73.33	     9.381
  19.180         79.17	     9.747
  19.200         70.83	     9.220
  19.220         75.83	     9.539
  19.240         81.67	     9.899
  19.260         76.67	     9.592
  19.280         77.50	     9.644
  19.300         69.17	     9.110
  19.320         66.67	     8.944
  19.340         77.50	     9.644
  19.360         59.17	     8.426
  19.380         63.33	     8.718
  19.400         59.17	     8.426
  19.420         72.50	     9.327
  19.440         78.33	     9.695
  19.460         67.50	     9.000
  19.480         70.00	     9.165
  19.500         60.83	     8.544
  19.520         62.50	     8.660
  19.540         73.33	     9.381
  19.560         69.17	     9.110
  19.580         78.33	     9.695
  19.600         68.33	     9.055
  19.620         88.33	    10.296
  19.640        100.00	    10.954
  19.660         90.83	    10.440
  19.680         80.00	     9.798
  19.700         70.83	     9.220
  19.720         99.17	    10.909
  19.740         92.50	    10.536
  19.760        103.33	    11.136
  19.780        118.33	    11.916
  19.800         95.83	    10.724
  19.820         94.17	    10.630
  19.840         95.00	    10.677
  19.860         92.50	    10.536
  19.880         85.00	    10.100
  19.900         88.33	    10.296
  19.920         80.00	     9.798
  19.940         96.67	    10.770
  19.960         69.17	     9.110
  19.980         95.00	    10.677
  20.000         90.83	    10.440
  20.020         70.83	     9.220
  20.040         57.50	     8.307
  20.060         72.50	     9.327
  20.080         80.00	     9.798
  20.100         67.50	     9.000
  20.120         70.83	     9.220
  20.140         78.33	     9.695
  20.160         55.83	     8.185
  20.180         68.33	     9.055
  20.200         73.33	     9.381
  20.220         70.83	     9.220
  20.240         62.50	     8.660
  20.260         69.17	     9.110
  20.280         72.50	     9.327
  20.300         60.00	     8.485
  20.320         71.67	     9.274
  20.340         68.33	     9.055
  20.360         75.83	     9.539
  20.380         73.33	     9.381
  20.400         68.33	     9.055
  20.420         63.33	     8.718
  20.440         70.00	     9.165
  20.460         61.67	     8.602
  20.480         65.83	     8.888
  20.500         67.50	     9.000
  20.520         56.67	     8.246
  20.540         74.17	     9.434
  20.560         83.33	    10.000
  20.580         73.33	     9.381
  20.600         83.33	    10.000
  20.620         90.00	    10.392
  20.640         88.33	    10.296
  20.660         82.50	     9.950
  20.680         99.17	    10.909
  20.700         98.33	    10.863
  20.720        128.33	    12.410
  20.740        197.50	    15.395
  20.760        359.17	    20.761
  20.780        610.00	    27.055
  20.800        708.33	    29.155
  20.820        666.67	    28.284
  20.840        504.17	    24.597
  20.860        391.67	    21.679
  20.880        265.00	    17.833
  20.900        162.50	    13.964
  20.920        110.00	    11.489
  20.940        107.50	    11.358
  20.960        109.17	    11.446
  20.980         97.50	    10.817
  21.000        104.17	    11.180
  21.020         75.83	     9.539
  21.040         70.83	     9.220
  21.060         74.17	     9.434
  21.080         75.83	     9.539
  21.100         60.83	     8.544
  21.120         69.17	     9.110
  21.140         71.67	     9.274
  21.160         72.50	     9.327
  21.180         68.33	     9.055
  21.200         63.33	     8.718
  21.220         69.17	     9.110
  21.240         73.33	     9.381
  21.260         52.50	     7.937
  21.280         56.67	     8.246
  21.300         65.00	     8.832
  21.320         72.50	     9.327
  21.340         58.33	     8.367
  21.360         64.17	     8.775
  21.380         57.50	     8.307
  21.400         71.67	     9.274
  21.420         65.00	     8.832
  21.440         52.50	     7.937
  21.460         63.33	     8.718
  21.480         66.67	     8.944
  21.500         64.17	     8.775
  21.520         93.33	    10.583
  21.540         63.33	     8.718
  21.560         54.17	     8.062
  21.580         64.17	     8.775
  21.600         61.67	     8.602
  21.620         67.50	     9.000
  21.640         55.00	     8.124
  21.660         60.83	     8.544
  21.680         60.00	     8.485
  21.700         72.50	     9.327
  21.720         60.83	     8.544
  21.740         81.67	     9.899
  21.760         68.33	     9.055
  21.780         58.33	     8.367
  21.800         73.33	     9.381
  21.820         72.50	     9.327
  21.840         71.67	     9.274
  21.860         76.67	     9.592
  21.880         66.67	     8.944
  21.900         94.17	    10.630
  21.920        128.33	    12.410
  21.940        134.17	    12.689
  21.960        178.33	    14.629
  21.980        180.00	    14.697
  22.000        221.67	    16.310
  22.020        176.67	    14.560
  22.040        135.00	    12.728
  22.060        119.17	    11.958
  22.080        100.00	    10.954
  22.100         82.50	     9.950
  22.120         84.17	    10.050
  22.140        118.33	    11.916
  22.160        212.50	    15.969
  22.180        234.17	    16.763
  22.200        210.83	    15.906
  22.220        186.67	    14.967
  22.240        150.00	    13.416
  22.260        128.33	    12.410
  22.280         85.00	    10.100
  22.300         76.67	     9.592
  22.320         72.50	     9.327
  22.340         65.83	     8.888
  22.360         74.17	     9.434
  22.380         69.17	     9.110
  22.400         65.83	     8.888
  22.420         88.33	    10.296
  22.440         80.83	     9.849
  22.460         77.50	     9.644
  22.480         77.50	     9.644
  22.500         80.00	     9.798
  22.520         74.17	     9.434
  22.540         50.00	     7.746
  22.560         60.83	     8.544
  22.580         71.67	     9.274
  22.600         65.00	     8.832
  22.620         63.33	     8.718
  22.640         65.83	     8.888
  22.660         68.33	     9.055
  22.680         57.50	     8.307
  22.700         58.33	     8.367
  22.720         65.00	     8.832
  22.740         75.83	     9.539
  22.760         86.67	    10.198
  22.780         84.17	    10.050
  22.800         92.50	    10.536
  22.820        116.67	    11.832
  22.840         93.33	    10.583
  22.860         87.50	    10.247
  22.880        110.83	    11.533
  22.900         86.67	    10.198
  22.920         88.33	    10.296
  22.940        100.83	    11.000
  22.960        112.50	    11.619
  22.980        103.33	    11.136
  23.000         99.17	    10.909
  23.020         95.83	    10.724
  23.040        110.00	    11.489
  23.060         85.83	    10.149
  23.080         89.17	    10.344
  23.100         67.50	     9.000
  23.120         60.00	     8.485
  23.140         70.00	     9.165
  23.160         84.17	    10.050
  23.180         68.33	     9.055
  23.200         88.33	    10.296
  23.220         80.83	     9.849
  23.240         97.50	    10.817
  23.260         96.67	    10.770
  23.280         95.83	    10.724
  23.300        107.50	    11.358
  23.320         85.00	    10.100
  23.340        102.50	    11.091
  23.360        113.33	    11.662
  23.380         95.00	    10.677
  23.400         84.17	    10.050
  23.420        110.00	    11.489
  23.440        118.33	    11.916
  23.460        187.50	    15.000
  23.480        233.33	    16.733
  23.500        237.50	    16.882
  23.520        237.50	    16.882
  23.540        223.33	    16.371
  23.560        197.50	    15.395
  23.580        133.33	    12.649
  23.600        104.17	    11.180
  23.620         85.00	    10.100
  23.640        108.33	    11.402
  23.660         85.83	    10.149
  23.680         80.83	     9.849
  23.700         80.00	     9.798
  23.720        101.67	    11.045
  23.740         97.50	    10.817
  23.760         89.17	    10.344
  23.780         84.17	    10.050
  23.800        102.50	    11.091
  23.820         85.83	    10.149
  23.840         68.33	     9.055
  23.860         87.50	    10.247
  23.880         72.50	     9.327
  23.900         85.00	    10.100
  23.920         91.67	    10.488
  23.940         92.50	    10.536
  23.960         98.33	    10.863
  23.980         96.67	    10.770
  24.000        100.83	    11.000
  24.020        109.17	    11.446
  24.040        110.00	    11.489
  24.060        129.17	    12.450
  24.080        120.83	    12.042
  24.100        131.67	    12.570
  24.120        140.83	    13.000
  24.140        136.67	    12.806
  24.160        146.67	    13.266
  24.180        174.17	    14.457
  24.200        157.50	    13.748
  24.220        166.67	    14.142
  24.240        165.00	    14.071
  24.260        164.17	    14.036
  24.280        138.33	    12.884
  24.300        121.67	    12.083
  24.320        120.83	    12.042
  24.340         95.00	    10.677
  24.360         75.83	     9.539
  24.380        109.17	    11.446
  24.400        100.83	    11.000
  24.420        121.67	    12.083
  24.440        131.67	    12.570
  24.460        154.17	    13.601
  24.480        172.50	    14.387
  24.500        208.33	    15.811
  24.520        216.67	    16.125
  24.540        235.00	    16.793
  24.560        266.67	    17.889
  24.580        235.83	    16.823
  24.600        210.00	    15.875
  24.620        157.50	    13.748
  24.640        149.17	    13.379
  24.660        151.67	    13.491
  24.680        130.00	    12.490
  24.700        115.00	    11.747
  24.720        119.17	    11.958
  24.740        138.33	    12.884
  24.760        138.33	    12.884
  24.780        144.17	    13.153
  24.800        154.17	    13.601
  24.820        133.33	    12.649
  24.840        146.67	    13.266
  24.860        110.83	    11.533
  24.880        107.50	    11.358
  24.900         87.50	    10.247
  24.920        111.67	    11.576
  24.940        119.17	    11.958
  24.960        102.50	    11.091
  24.980        145.00	    13.191
  25.000        134.17	    12.689
  25.020        145.83	    13.229
  25.040        195.83	    15.330
  25.060        255.83	    17.521
  25.080        268.33	    17.944
  25.100        290.00	    18.655
  25.120        225.00	    16.432
  25.140        207.50	    15.780
  25.160        183.33	    14.832
  25.180        139.17	    12.923
  25.200        135.00	    12.728
  25.220        113.33	    11.662
  25.240        111.67	    11.576
  25.260        112.50	    11.619
  25.280         87.50	    10.247
  25.300        112.50	    11.619
  25.320        136.67	    12.806
  25.340        142.50	    13.077
  25.360        135.83	    12.767
  25.380        132.50	    12.610
  25.400        149.17	    13.379
  25.420        144.17	    13.153
  25.440        172.50	    14.387
  25.460        174.17	    14.457
  25.480        170.83	    14.318
  25.500        165.83	    14.107
  25.520        145.83	    13.229
  25.540        182.50	    14.799
  25.560        223.33	    16.371
  25.580        245.00	    17.146
  25.600        226.67	    16.492
  25.620        180.00	    14.697
  25.640        175.83	    14.526
  25.660        145.00	    13.191
  25.680        115.83	    11.790
  25.700         85.00	    10.100
  25.720         88.33	    10.296
  25.740         85.00	    10.100
  25.760         78.33	     9.695
  25.780         69.17	     9.110
  25.800         85.83	    10.149
  25.820         76.67	     9.592
  25.840         86.67	    10.198
  25.860         89.17	    10.344
  25.880         85.83	    10.149
  25.900         80.83	     9.849
  25.920         65.00	     8.832
  25.940         65.83	     8.888
  25.960         72.50	     9.327
  25.980         68.33	     9.055
  26.000         69.17	     9.110
  26.020         77.50	     9.644
  26.040         77.50	     9.644
  26.060         65.00	     8.832
  26.080         86.67	    10.198
  26.100         76.67	     9.592
  26.120         88.33	    10.296
  26.140         94.17	    10.630
  26.160         99.17	    10.909
  26.180         89.17	    10.344
  26.200        108.33	    11.402
  26.220        151.67	    13.491
  26.240        253.33	    17.436
  26.260        260.00	    17.664
  26.280        230.83	    16.643
  26.300        213.33	    16.000
  26.320        257.50	    17.578
  26.340        252.50	    17.407
  26.360        247.50	    17.234
  26.380        215.83	    16.093
  26.400        241.67	    17.029
  26.420        250.00	    17.321
  26.440        278.33	    18.276
  26.460        301.67	    19.026
  26.480        369.17	    21.048
  26.500        474.17	    23.854
  26.520        886.67	    32.619
  26.540       1643.33	    44.407
  26.560       2936.67	    59.363
  26.580       3892.50	    68.345
  26.600       3414.17	    64.008
  26.620       2486.67	    54.626
  26.640       2176.67	    51.108
  26.660       1825.83	    46.808
  26.680       1176.67	    37.577
  26.700        630.83	    27.514
  26.720        480.00	    24.000
  26.740        500.00	    24.495
  26.760        622.50	    27.331
  26.780        669.17	    28.337
  26.800        710.83	    29.206
  26.820        689.17	    28.758
  26.840        639.17	    27.695
  26.860        580.00	    26.382
  26.880        464.17	    23.601
  26.900        373.33	    21.166
  26.920        280.00	    18.330
  26.940        191.67	    15.166
  26.960        176.67	    14.560
  26.980        186.67	    14.967
  27.000        161.67	    13.928
  27.020        164.17	    14.036
  27.040        139.17	    12.923
  27.060        115.83	    11.790
  27.080        117.50	    11.874
  27.100        123.33	    12.166
  27.120        129.17	    12.450
  27.140        109.17	    11.446
  27.160        119.17	    11.958
  27.180        100.83	    11.000
  27.200         87.50	    10.247
  27.220         89.17	    10.344
  27.240        106.67	    11.314
  27.260        112.50	    11.619
  27.280        100.00	    10.954
  27.300         90.83	    10.440
  27.320         92.50	    10.536
  27.340        107.50	    11.358
  27.360        133.33	    12.649
  27.380        188.33	    15.033
  27.400        240.83	    17.000
  27.420        263.33	    17.776
  27.440        269.17	    17.972
  27.460        220.00	    16.248
  27.480        220.00	    16.248
  27.500        198.33	    15.427
  27.520        144.17	    13.153
  27.540        138.33	    12.884
  27.560        122.50	    12.124
  27.580        125.83	    12.288
  27.600        135.00	    12.728
  27.620        205.83	    15.716
  27.640        250.83	    17.349
  27.660        322.50	    19.672
  27.680        335.83	    20.075
  27.700        318.33	    19.545
  27.720        305.83	    19.157
  27.740        321.67	    19.647
  27.760        290.83	    18.682
  27.780        276.67	    18.221
  27.800        345.83	    20.372
  27.820        508.33	    24.698
  27.840        795.00	    30.887
  27.860        839.17	    31.733
  27.880        603.33	    26.907
  27.900        574.17	    26.249
  27.920        615.83	    27.185
  27.940        459.17	    23.473
  27.960        350.00	    20.494
  27.980        264.17	    17.804
  28.000        180.00	    14.697
  28.020        158.33	    13.784
  28.040        187.50	    15.000
  28.060        190.83	    15.133
  28.080        180.00	    14.697
  28.100        170.00	    14.283
  28.120        152.50	    13.528
  28.140        130.00	    12.490
  28.160        126.67	    12.329
  28.180        135.00	    12.728
  28.200        123.33	    12.166
  28.220        136.67	    12.806
  28.240        130.83	    12.530
  28.260        101.67	    11.045
  28.280        107.50	    11.358
  28.300        111.67	    11.576
  28.320        107.50	    11.358
  28.340         73.33	     9.381
  28.360         78.33	     9.695
  28.380         87.50	    10.247
  28.400         74.17	     9.434
  28.420         70.83	     9.220
  28.440         76.67	     9.592
  28.460         90.83	    10.440
  28.480         92.50	    10.536
  28.500         86.67	    10.198
  28.520        107.50	    11.358
  28.540        166.67	    14.142
  28.560        154.17	    13.601
  28.580        114.17	    11.705
  28.600        136.67	    12.806
  28.620        180.83	    14.731
  28.640        171.67	    14.353
  28.660        146.67	    13.266
  28.680        153.33	    13.565
  28.700        114.17	    11.705
  28.720        113.33	    11.662
  28.740         92.50	    10.536
  28.760         82.50	     9.950
  28.780         78.33	     9.695
  28.800         72.50	     9.327
  28.820         57.50	     8.307
  28.840         62.50	     8.660
  28.860         63.33	     8.718
  28.880         68.33	     9.055
  28.900         54.17	     8.062
  28.920         48.33	     7.616
  28.940         62.50	     8.660
  28.960         63.33	     8.718
  28.980         74.17	     9.434
  29.000         47.50	     7.550
  29.020         55.83	     8.185
  29.040         59.17	     8.426
  29.060         58.33	     8.367
  29.080         60.00	     8.485
  29.100         70.00	     9.165
  29.120         52.50	     7.937
  29.140         55.83	     8.185
  29.160         62.50	     8.660
  29.180         46.67	     7.483
  29.200         60.00	     8.485
  29.220         63.33	     8.718
  29.240         51.67	     7.874
  29.260         61.67	     8.602
  29.280         55.83	     8.185
  29.300         53.33	     8.000
  29.320         52.50	     7.937
  29.340         57.50	     8.307
  29.360         64.17	     8.775
  29.380         50.00	     7.746
  29.400         60.00	     8.485
  29.420         67.50	     9.000
  29.440         57.50	     8.307
  29.460         57.50	     8.307
  29.480         61.67	     8.602
  29.500         55.83	     8.185
  29.520         70.00	     9.165
  29.540         60.00	     8.485
  29.560         63.33	     8.718
  29.580         67.50	     9.000
  29.600         61.67	     8.602
  29.620         81.67	     9.899
  29.640         81.67	     9.899
  29.660         65.00	     8.832
  29.680         87.50	    10.247
  29.700        101.67	    11.045
  29.720        138.33	    12.884
  29.740        284.17	    18.466
  29.760        325.00	    19.748
  29.780        254.17	    17.464
  29.800        244.17	    17.117
  29.820        255.83	    17.521
  29.840        285.00	    18.493
  29.860        220.00	    16.248
  29.880        149.17	    13.379
  29.900        132.50	    12.610
  29.920        111.67	    11.576
  29.940        115.83	    11.790
  29.960         90.83	    10.440
  29.980        102.50	    11.091
  30.000         89.17	    10.344
  30.020         98.33	    10.863
  30.040         86.67	    10.198
  30.060        108.33	    11.402
  30.080         97.50	    10.817
  30.100         90.83	    10.440
  30.120        132.50	    12.610
  30.140        160.00	    13.856
  30.160        152.50	    13.528
  30.180        121.67	    12.083
  30.200        128.33	    12.410
  30.220        139.17	    12.923
  30.240        109.17	    11.446
  30.260        106.67	    11.314
  30.280         98.33	    10.863
  30.300         96.67	    10.770
  30.320        110.00	    11.489
  30.340         91.67	    10.488
  30.360        115.83	    11.790
  30.380        117.50	    11.874
  30.400        124.17	    12.207
  30.420        126.67	    12.329
  30.440        118.33	    11.916
  30.460         82.50	     9.950
  30.480        111.67	    11.576
  30.500        107.50	    11.358
  30.520         85.83	    10.149
  30.540         71.67	     9.274
  30.560         59.17	     8.426
  30.580         55.83	     8.185
  30.600         47.50	     7.550
  30.620         65.83	     8.888
  30.640         65.00	     8.832
  30.660         62.50	     8.660
  30.680         82.50	     9.950
  30.700         93.33	    10.583
  30.720         96.67	    10.770
  30.740         83.33	    10.000
  30.760        111.67	    11.576
  30.780        183.33	    14.832
  30.800        213.33	    16.000
  30.820        155.00	    13.638
  30.840        135.83	    12.767
  30.860        135.83	    12.767
  30.880        165.00	    14.071
  30.900        117.50	    11.874
  30.920         95.00	    10.677
  30.940         71.67	     9.274
  30.960         63.33	     8.718
  30.980         70.83	     9.220
  31.000         65.83	     8.888
  31.020         64.17	     8.775
  31.040         65.83	     8.888
  31.060         85.00	    10.100
  31.080         87.50	    10.247
  31.100         85.00	    10.100
  31.120        121.67	    12.083
  31.140        110.83	    11.533
  31.160        122.50	    12.124
  31.180        115.83	    11.790
  31.200        114.17	    11.705
  31.220        100.00	    10.954
  31.240         95.00	    10.677
  31.260         85.83	    10.149
  31.280         90.00	    10.392
  31.300         53.33	     8.000
  31.320         66.67	     8.944
  31.340         65.83	     8.888
  31.360         59.17	     8.426
  31.380         70.00	     9.165
  31.400         70.83	     9.220
  31.420         67.50	     9.000
  31.440         93.33	    10.583
  31.460         75.00	     9.487
  31.480         73.33	     9.381
  31.500         81.67	     9.899
  31.520         85.83	    10.149
  31.540         78.33	     9.695
  31.560         84.17	    10.050
  31.580         77.50	     9.644
  31.600         63.33	     8.718
  31.620         59.17	     8.426
  31.640         50.83	     7.810
  31.660         50.00	     7.746
  31.680         56.67	     8.246
  31.700         45.00	     7.348
  31.720         51.67	     7.874
  31.740         55.00	     8.124
  31.760         51.67	     7.874
  31.780         51.67	     7.874
  31.800         56.67	     8.246
  31.820         60.83	     8.544
  31.840         75.83	     9.539
  31.860         59.17	     8.426
  31.880         63.33	     8.718
  31.900         70.00	     9.165
  31.920         60.83	     8.544
  31.940         75.00	     9.487
  31.960         62.50	     8.660
  31.980         68.33	     9.055
  32.000         74.17	     9.434
  32.020         65.00	     8.832
  32.040         74.17	     9.434
  32.060         72.50	     9.327
  32.080         74.17	     9.434
  32.100         72.50	     9.327
  32.120         76.67	     9.592
  32.140         84.17	    10.050
  32.160         72.50	     9.327
  32.180         89.17	    10.344
  32.200         61.67	     8.602
  32.220         60.00	     8.485
  32.240         75.83	     9.539
  32.260         60.00	     8.485
  32.280         73.33	     9.381
  32.300         55.83	     8.185
  32.320         39.17	     6.856
  32.340         59.17	     8.426
  32.360         38.33	     6.782
  32.380         53.33	     8.000
  32.400         39.17	     6.856
  32.420         40.00	     6.928
  32.440         40.00	     6.928
  32.460         48.33	     7.616
  32.480         54.17	     8.062
  32.500         40.00	     6.928
  32.520         45.83	     7.416
  32.540         43.33	     7.211
  32.560         51.67	     7.874
  32.580         40.00	     6.928
  32.600         52.50	     7.937
  32.620         50.00	     7.746
  32.640         45.83	     7.416
  32.660         52.50	     7.937
  32.680         44.17	     7.280
  32.700         46.67	     7.483
  32.720         60.83	     8.544
  32.740         39.17	     6.856
  32.760         50.83	     7.810
  32.780         45.83	     7.416
  32.800         45.00	     7.348
  32.820         48.33	     7.616
  32.840         62.50	     8.660
  32.860         50.83	     7.810
  32.880         60.83	     8.544
  32.900         78.33	     9.695
  32.920        100.00	    10.954
  32.940        155.83	    13.675
  32.960        190.83	    15.133
  32.980        154.17	    13.601
  33.000        133.33	    12.649
  33.020        145.83	    13.229
  33.040        167.50	    14.177
  33.060        140.83	    13.000
  33.080         85.00	    10.100
  33.100         89.17	    10.344
  33.120         75.00	     9.487
  33.140         60.83	     8.544
  33.160         70.83	     9.220
  33.180         65.83	     8.888
  33.200         55.00	     8.124
  33.220         54.17	     8.062
  33.240         40.83	     7.000
  33.260         48.33	     7.616
  33.280         50.83	     7.810
  33.300         58.33	     8.367
  33.320         58.33	     8.367
  33.340         53.33	     8.000
  33.360         43.33	     7.211
  33.380         55.83	     8.185
  33.400         47.50	     7.550
  33.420         57.50	     8.307
  33.440         55.00	     8.124
  33.460         62.50	     8.660
  33.480         52.50	     7.937
  33.500         42.50	     7.141
  33.520         58.33	     8.367
  33.540         54.17	     8.062
  33.560         62.50	     8.660
  33.580         55.00	     8.124
  33.600         55.83	     8.185
  33.620         48.33	     7.616
  33.640         62.50	     8.660
  33.660         52.50	     7.937
  33.680         40.83	     7.000
  33.700         53.33	     8.000
  33.720         55.83	     8.185
  33.740         58.33	     8.367
  33.760         52.50	     7.937
  33.780         50.00	     7.746
  33.800         55.00	     8.124
  33.820         61.67	     8.602
  33.840         65.83	     8.888
  33.860         70.00	     9.165
  33.880         59.17	     8.426
  33.900         67.50	     9.000
  33.920         59.17	     8.426
  33.940         68.33	     9.055
  33.960         70.83	     9.220
  33.980         71.67	     9.274
  34.000         65.83	     8.888
  34.020         60.83	     8.544
  34.040         57.50	     8.307
  34.060         60.83	     8.544
  34.080         76.67	     9.592
  34.100         66.67	     8.944
  34.120         52.50	     7.937
  34.140         60.00	     8.485
  34.160         64.17	     8.775
  34.180         56.67	     8.246
  34.200         75.00	     9.487
  34.220         69.17	     9.110
  34.240         66.67	     8.944
  34.260         81.67	     9.899
  34.280         65.00	     8.832
  34.300         75.83	     9.539
  34.320         85.83	    10.149
  34.340         78.33	     9.695
  34.360         81.67	     9.899
  34.380         90.00	    10.392
  34.400         90.83	    10.440
  34.420        114.17	    11.705
  34.440        122.50	    12.124
  34.460        162.50	    13.964
  34.480        168.33	    14.213
  34.500        158.33	    13.784
  34.520        111.67	    11.576
  34.540        128.33	    12.410
  34.560        135.00	    12.728
  34.580        134.17	    12.689
  34.600        118.33	    11.916
  34.620        100.00	    10.954
  34.640         80.83	     9.849
  34.660         78.33	     9.695
  34.680         71.67	     9.274
  34.700         68.33	     9.055
  34.720         78.33	     9.695
  34.740         71.67	     9.274
  34.760         88.33	    10.296
  34.780         74.17	     9.434
  34.800         90.00	    10.392
  34.820        101.67	    11.045
  34.840        121.67	    12.083
  34.860        114.17	    11.705
  34.880        125.83	    12.288
  34.900        140.00	    12.961
  34.920        115.83	    11.790
  34.940        148.33	    13.342
  34.960        140.83	    13.000
  34.980        135.83	    12.767
  35.000        123.33	    12.166
  35.020        126.67	    12.329
  35.040        120.83	    12.042
  35.060        123.33	    12.166
  35.080        107.50	    11.358
  35.100        100.83	    11.000
  35.120         83.33	    10.000
  35.140         94.17	    10.630
  35.160         95.83	    10.724
  35.180         85.83	    10.149
  35.200         85.83	    10.149
  35.220         79.17	     9.747
  35.240         82.50	     9.950
  35.260         63.33	     8.718
  35.280         94.17	    10.630
  35.300         97.50	    10.817
  35.320         72.50	     9.327
  35.340        101.67	    11.045
  35.360         88.33	    10.296
  35.380        109.17	    11.446
  35.400        132.50	    12.610
  35.420        119.17	    11.958
  35.440        149.17	    13.379
  35.460        138.33	    12.884
  35.480        183.33	    14.832
  35.500        188.33	    15.033
  35.520        189.17	    15.067
  35.540        149.17	    13.379
  35.560        135.00	    12.728
  35.580        129.17	    12.450
  35.600        121.67	    12.083
  35.620        107.50	    11.358
  35.640        104.17	    11.180
  35.660         88.33	    10.296
  35.680         70.83	     9.220
  35.700         70.00	     9.165
  35.720         70.83	     9.220
  35.740         71.67	     9.274
  35.760         65.83	     8.888
  35.780         64.17	     8.775
  35.800         68.33	     9.055
  35.820         68.33	     9.055
  35.840         65.83	     8.888
  35.860         58.33	     8.367
  35.880         61.67	     8.602
  35.900         67.50	     9.000
  35.920         73.33	     9.381
  35.940         64.17	     8.775
  35.960         78.33	     9.695
  35.980         96.67	    10.770
  36.000         91.67	    10.488
  36.020         93.33	    10.583
  36.040         83.33	    10.000
  36.060        105.00	    11.225
  36.080         83.33	    10.000
  36.100         64.17	     8.775
  36.120         64.17	     8.775
  36.140         68.33	     9.055
  36.160         60.83	     8.544
  36.180         69.17	     9.110
  36.200         59.17	     8.426
  36.220         66.67	     8.944
  36.240         62.50	     8.660
  36.260         55.83	     8.185
  36.280         75.83	     9.539
  36.300         75.83	     9.539
  36.320         66.67	     8.944
  36.340         82.50	     9.950
  36.360         88.33	    10.296
  36.380        135.00	    12.728
  36.400        160.00	    13.856
  36.420        176.67	    14.560
  36.440        215.00	    16.062
  36.460        293.33	    18.762
  36.480        286.67	    18.547
  36.500        265.83	    17.861
  36.520        202.50	    15.588
  36.540        166.67	    14.142
  36.560        173.33	    14.422
  36.580        176.67	    14.560
  36.600        115.83	    11.790
  36.620        116.67	    11.832
  36.640        124.17	    12.207
  36.660        117.50	    11.874
  36.680        105.83	    11.269
  36.700        136.67	    12.806
  36.720        134.17	    12.689
  36.740        103.33	    11.136
  36.760         90.83	    10.440
  36.780         91.67	    10.488
  36.800         84.17	    10.050
  36.820         74.17	     9.434
  36.840         71.67	     9.274
  36.860         66.67	     8.944
  36.880         65.83	     8.888
  36.900         69.17	     9.110
  36.920         66.67	     8.944
  36.940         52.50	     7.937
  36.960         57.50	     8.307
  36.980         64.17	     8.775
  37.000         52.50	     7.937
  37.020         48.33	     7.616
  37.040         73.33	     9.381
  37.060         61.67	     8.602
  37.080         56.67	     8.246
  37.100         56.67	     8.246
  37.120         47.50	     7.550
  37.140         57.50	     8.307
  37.160         47.50	     7.550
  37.180         51.67	     7.874
  37.200         56.67	     8.246
  37.220         58.33	     8.367
  37.240         75.00	     9.487
  37.260         68.33	     9.055
  37.280         64.17	     8.775
  37.300         60.83	     8.544
  37.320         75.00	     9.487
  37.340         87.50	    10.247
  37.360         64.17	     8.775
  37.380         80.83	     9.849
  37.400         82.50	     9.950
  37.420         70.83	     9.220
  37.440         58.33	     8.367
  37.460         75.83	     9.539
  37.480         75.00	     9.487
  37.500         83.33	    10.000
  37.520         80.83	     9.849
  37.540         80.83	     9.849
  37.560         70.83	     9.220
  37.580         75.00	     9.487
  37.600         90.83	    10.440
  37.620         81.67	     9.899
  37.640         77.50	     9.644
  37.660         87.50	    10.247
  37.680         85.83	    10.149
  37.700         70.83	     9.220
  37.720         86.67	    10.198
  37.740         68.33	     9.055
  37.760         60.00	     8.485
  37.780         66.67	     8.944
  37.800         45.83	     7.416
  37.820         45.00	     7.348
  37.840         52.50	     7.937
  37.860         46.67	     7.483
  37.880         50.00	     7.746
  37.900         35.83	     6.557
  37.920         55.83	     8.185
  37.940         42.50	     7.141
  37.960         45.00	     7.348
  37.980         48.33	     7.616
  38.000         45.83	     7.416
  38.020         48.33	     7.616
  38.040         39.17	     6.856
  38.060         35.83	     6.557
  38.080         40.00	     6.928
  38.100         46.67	     7.483
  38.120         47.50	     7.550
  38.140         43.33	     7.211
  38.160         50.00	     7.746
  38.180         39.17	     6.856
  38.200         32.50	     6.245
  38.220         31.67	     6.164
  38.240         60.00	     8.485
  38.260         48.33	     7.616
  38.280         35.00	     6.481
  38.300         55.00	     8.124
  38.320         72.50	     9.327
  38.340         60.00	     8.485
  38.360         62.50	     8.660
  38.380         68.33	     9.055
  38.400         47.50	     7.550
  38.420         53.33	     8.000
  38.440         65.00	     8.832
  38.460         54.17	     8.062
  38.480         60.00	     8.485
  38.500         58.33	     8.367
  38.520         53.33	     8.000
  38.540         52.50	     7.937
  38.560         45.83	     7.416
  38.580         53.33	     8.000
  38.600         46.67	     7.483
  38.620         51.67	     7.874
  38.640         65.83	     8.888
  38.660         46.67	     7.483
  38.680         51.67	     7.874
  38.700         49.17	     7.681
  38.720         46.67	     7.483
  38.740         60.00	     8.485
  38.760         39.17	     6.856
  38.780         50.00	     7.746
  38.800         60.00	     8.485
  38.820         45.83	     7.416
  38.840         64.17	     8.775
  38.860         50.00	     7.746
  38.880         57.50	     8.307
  38.900         44.17	     7.280
  38.920         49.17	     7.681
  38.940         37.50	     6.708
  38.960         54.17	     8.062
  38.980         55.00	     8.124
  39.000         55.00	     8.124
  39.020         49.17	     7.681
  39.040         45.83	     7.416
  39.060         49.17	     7.681
  39.080         51.67	     7.874
  39.100         45.83	     7.416
  39.120         54.17	     8.062
  39.140         60.00	     8.485
  39.160         56.67	     8.246
  39.180         71.67	     9.274
  39.200         48.33	     7.616
  39.220         58.33	     8.367
  39.240         55.83	     8.185
  39.260         69.17	     9.110
  39.280         59.17	     8.426
  39.300         55.83	     8.185
  39.320         60.83	     8.544
  39.340        104.17	    11.180
  39.360        145.83	    13.229
  39.380        178.33	    14.629
  39.400        191.67	    15.166
  39.420        142.50	    13.077
  39.440        122.50	    12.124
  39.460        115.83	    11.790
  39.480        134.17	    12.689
  39.500        125.00	    12.247
  39.520        108.33	    11.402
  39.540         93.33	    10.583
  39.560         65.00	     8.832
  39.580         72.50	     9.327
  39.600         60.00	     8.485
  39.620         58.33	     8.367
  39.640         66.67	     8.944
  39.660         59.17	     8.426
  39.680         50.00	     7.746
  39.700         50.00	     7.746
  39.720         59.17	     8.426
  39.740         70.00	     9.165
  39.760         51.67	     7.874
  39.780         68.33	     9.055
  39.800         51.67	     7.874
  39.820         55.83	     8.185
  39.840         60.00	     8.485
  39.860         55.00	     8.124
  39.880         47.50	     7.550
  39.900         49.17	     7.681
  39.920         50.00	     7.746
  39.940         51.67	     7.874
  39.960         50.00	     7.746
  39.980         37.50	     6.708
  40.000         59.17	     8.426
  40.020         54.17	     8.062
  40.040         61.67	     8.602
  40.060         50.83	     7.810
  40.080         54.17	     8.062
  40.100         53.33	     8.000
  40.120         55.00	     8.124
  40.140         65.00	     8.832
  40.160         72.50	     9.327
  40.180         87.50	    10.247
  40.200        150.00	    13.416
  40.220        191.67	    15.166
  40.240        205.83	    15.716
  40.260        155.83	    13.675
  40.280        102.50	    11.091
  40.300        121.67	    12.083
  40.320        121.67	    12.083
  40.340        133.33	    12.649
  40.360        115.83	    11.790
  40.380         84.17	    10.050
  40.400         83.33	    10.000
  40.420         69.17	     9.110
  40.440         48.33	     7.616
  40.460         64.17	     8.775
  40.480         56.67	     8.246
  40.500         56.67	     8.246
  40.520         46.67	     7.483
  40.540         46.67	     7.483
  40.560         38.33	     6.782
  40.580         42.50	     7.141
  40.600         62.50	     8.660
  40.620         47.50	     7.550
  40.640         49.17	     7.681
  40.660         50.83	     7.810
  40.680         42.50	     7.141
  40.700         45.00	     7.348
  40.720         47.50	     7.550
  40.740         51.67	     7.874
  40.760         50.00	     7.746
  40.780         55.83	     8.185
  40.800         58.33	     8.367
  40.820         51.67	     7.874
  40.840         62.50	     8.660
  40.860         60.00	     8.485
  40.880         40.00	     6.928
  40.900         47.50	     7.550
  40.920         55.83	     8.185
  40.940         60.00	     8.485
  40.960         55.83	     8.185
  40.980         48.33	     7.616
  41.000         59.17	     8.426
  41.020         47.50	     7.550
  41.040         62.50	     8.660
  41.060         52.50	     7.937
  41.080         50.00	     7.746
  41.100         51.67	     7.874
  41.120         56.67	     8.246
  41.140         61.67	     8.602
  41.160         68.33	     9.055
  41.180         63.33	     8.718
  41.200         74.17	     9.434
  41.220         70.00	     9.165
  41.240         51.67	     7.874
  41.260         57.50	     8.307
  41.280         62.50	     8.660
  41.300         66.67	     8.944
  41.320         60.83	     8.544
  41.340         59.17	     8.426
  41.360         74.17	     9.434
  41.380         65.00	     8.832
  41.400         35.83	     6.557
  41.420         56.67	     8.246
  41.440         58.33	     8.367
  41.460         50.00	     7.746
  41.480         47.50	     7.550
  41.500         69.17	     9.110
  41.520         66.67	     8.944
  41.540         81.67	     9.899
  41.560         82.50	     9.950
  41.580         93.33	    10.583
  41.600        106.67	    11.314
  41.620         97.50	    10.817
  41.640         92.50	    10.536
  41.660        116.67	    11.832
  41.680         92.50	    10.536
  41.700        102.50	    11.091
  41.720         85.00	    10.100
  41.740         92.50	    10.536
  41.760         85.00	    10.100
  41.780         76.67	     9.592
  41.800         81.67	     9.899
  41.820         75.00	     9.487
  41.840         70.83	     9.220
  41.860         66.67	     8.944
  41.880         72.50	     9.327
  41.900         70.00	     9.165
  41.920         85.83	    10.149
  41.940         76.67	     9.592
  41.960         65.83	     8.888
  41.980         63.33	     8.718
  42.000         73.33	     9.381
  42.020         70.00	     9.165
  42.040         61.67	     8.602
  42.060         60.83	     8.544
  42.080         63.33	     8.718
  42.100         80.00	     9.798
  42.120         60.83	     8.544
  42.140         58.33	     8.367
  42.160         65.83	     8.888
  42.180         63.33	     8.718
  42.200         70.83	     9.220
  42.220         86.67	    10.198
  42.240         72.50	     9.327
  42.260         86.67	    10.198
  42.280         85.00	    10.100
  42.300        103.33	    11.136
  42.320        116.67	    11.832
  42.340        142.50	    13.077
  42.360        165.83	    14.107
  42.380        274.17	    18.138
  42.400        304.17	    19.105
  42.420        241.67	    17.029
  42.440        186.67	    14.967
  42.460        150.00	    13.416
  42.480        163.33	    14.000
  42.500        172.50	    14.387
  42.520        159.17	    13.820
  42.540        117.50	    11.874
  42.560        103.33	    11.136
  42.580         85.83	    10.149
  42.600         75.00	     9.487
  42.620         88.33	    10.296
  42.640         75.83	     9.539
  42.660         74.17	     9.434
  42.680         69.17	     9.110
  42.700         69.17	     9.110
  42.720         92.50	    10.536
  42.740         78.33	     9.695
  42.760         80.83	     9.849
  42.780         95.83	    10.724
  42.800         98.33	    10.863
  42.820        116.67	    11.832
  42.840        115.00	    11.747
  42.860        107.50	    11.358
  42.880         85.83	    10.149
  42.900         95.83	    10.724
  42.920         91.67	    10.488
  42.940         80.83	     9.849
  42.960         94.17	    10.630
  42.980        109.17	    11.446
  43.000         80.00	     9.798
  43.020         97.50	    10.817
  43.040         88.33	    10.296
  43.060         90.83	    10.440
  43.080         93.33	    10.583
  43.100        102.50	    11.091
  43.120        115.00	    11.747
  43.140        122.50	    12.124
  43.160        120.00	    12.000
  43.180        148.33	    13.342
  43.200        134.17	    12.689
  43.220        131.67	    12.570
  43.240        155.00	    13.638
  43.260        164.17	    14.036
  43.280        170.00	    14.283
  43.300        193.33	    15.232
  43.320        190.00	    15.100
  43.340        201.67	    15.556
  43.360        230.00	    16.613
  43.380        208.33	    15.811
  43.400        233.33	    16.733
  43.420        235.83	    16.823
  43.440        237.50	    16.882
  43.460        260.00	    17.664
  43.480        225.83	    16.462
  43.500        249.17	    17.292
  43.520        226.67	    16.492
  43.540        230.83	    16.643
  43.560        201.67	    15.556
  43.580        183.33	    14.832
  43.600        216.67	    16.125
  43.620        186.67	    14.967
  43.640        177.50	    14.595
  43.660        170.00	    14.283
  43.680        154.17	    13.601
  43.700        158.33	    13.784
  43.720        135.00	    12.728
  43.740        142.50	    13.077
  43.760        140.00	    12.961
  43.780        109.17	    11.446
  43.800        116.67	    11.832
  43.820        109.17	    11.446
  43.840        131.67	    12.570
  43.860        106.67	    11.314
  43.880         91.67	    10.488
  43.900         86.67	    10.198
  43.920         95.00	    10.677
  43.940         73.33	     9.381
  43.960         87.50	    10.247
  43.980         89.17	    10.344
  44.000         79.17	     9.747
  44.020         93.33	    10.583
  44.040         71.67	     9.274
  44.060         80.83	     9.849
  44.080         78.33	     9.695
  44.100         81.67	     9.899
  44.120         74.17	     9.434
  44.140         82.50	     9.950
  44.160         65.00	     8.832
  44.180         63.33	     8.718
  44.200         63.33	     8.718
  44.220         65.83	     8.888
  44.240         62.50	     8.660
  44.260         71.67	     9.274
  44.280         76.67	     9.592
  44.300         69.17	     9.110
  44.320         60.00	     8.485
  44.340         50.00	     7.746
  44.360         48.33	     7.616
  44.380         47.50	     7.550
  44.400         74.17	     9.434
  44.420         55.83	     8.185
  44.440         56.67	     8.246
  44.460         58.33	     8.367
  44.480         45.83	     7.416
  44.500         53.33	     8.000
  44.520         54.17	     8.062
  44.540         46.67	     7.483
  44.560         55.00	     8.124
  44.580         48.33	     7.616
  44.600         44.17	     7.280
  44.620         46.67	     7.483
  44.640         53.33	     8.000
  44.660         60.83	     8.544
  44.680         63.33	     8.718
  44.700         71.67	     9.274
  44.720         65.00	     8.832
  44.740         69.17	     9.110
  44.760         60.83	     8.544
  44.780         52.50	     7.937
  44.800         63.33	     8.718
  44.820         60.83	     8.544
  44.840         75.00	     9.487
  44.860         68.33	     9.055
  44.880         82.50	     9.950
  44.900         80.83	     9.849
  44.920         84.17	    10.050
  44.940         70.00	     9.165
  44.960         79.17	     9.747
  44.980         94.17	    10.630
  45.000         73.33	     9.381
  45.020         76.67	     9.592
  45.040         73.33	     9.381
  45.060         95.83	    10.724
  45.080         65.00	     8.832
  45.100         59.17	     8.426
  45.120         70.00	     9.165
  45.140         78.33	     9.695
  45.160         77.50	     9.644
  45.180         80.00	     9.798
  45.200         74.17	     9.434
  45.220         80.83	     9.849
  45.240         77.50	     9.644
  45.260         66.67	     8.944
  45.280         97.50	    10.817
  45.300         84.17	    10.050
  45.320         98.33	    10.863
  45.340        113.33	    11.662
  45.360        121.67	    12.083
  45.380        147.50	    13.304
  45.400        182.50	    14.799
  45.420        218.33	    16.186
  45.440        215.00	    16.062
  45.460        220.00	    16.248
  45.480        240.83	    17.000
  45.500        222.50	    16.340
  45.520        248.33	    17.263
  45.540        256.67	    17.550
  45.560        233.33	    16.733
  45.580        220.83	    16.279
  45.600        180.83	    14.731
  45.620        170.00	    14.283
  45.640        174.17	    14.457
  45.660        165.00	    14.071
  45.680        193.33	    15.232
  45.700        252.50	    17.407
  45.720        290.00	    18.655
  45.740        260.83	    17.692
  45.760        203.33	    15.620
  45.780        129.17	    12.450
  45.800        135.83	    12.767
  45.820        149.17	    13.379
  45.840        176.67	    14.560
  45.860        152.50	    13.528
  45.880        129.17	    12.450
  45.900        117.50	    11.874
  45.920         82.50	     9.950
  45.940         83.33	    10.000
  45.960         80.83	     9.849
  45.980         78.33	     9.695
  46.000         85.83	    10.149
  46.020         70.83	     9.220
  46.040         65.00	     8.832
  46.060         64.17	     8.775
  46.080         58.33	     8.367
  46.100         76.67	     9.592
  46.120         52.50	     7.937
  46.140         61.67	     8.602
  46.160         46.67	     7.483
  46.180         62.50	     8.660
  46.200         51.67	     7.874
  46.220         38.33	     6.782
  46.240         45.00	     7.348
  46.260         43.33	     7.211
  46.280         30.83	     6.083
  46.300         35.83	     6.557
  46.320         39.17	     6.856
  46.340         38.33	     6.782
  46.360         36.67	     6.633
  46.380         44.17	     7.280
  46.400         48.33	     7.616
  46.420         43.33	     7.211
  46.440         50.83	     7.810
  46.460         39.17	     6.856
  46.480         50.00	     7.746
  46.500         36.67	     6.633
  46.520         44.17	     7.280
  46.540         35.00	     6.481
  46.560         51.67	     7.874
  46.580         46.67	     7.483
  46.600         43.33	     7.211
  46.620         45.83	     7.416
  46.640         38.33	     6.782
  46.660         45.83	     7.416
  46.680         42.50	     7.141
  46.700         32.50	     6.245
  46.720         47.50	     7.550
  46.740         39.17	     6.856
  46.760         35.00	     6.481
  46.780         42.50	     7.141
  46.800         38.33	     6.782
  46.820         45.00	     7.348
  46.840         41.67	     7.071
  46.860         45.00	     7.348
  46.880         53.33	     8.000
  46.900         44.17	     7.280
  46.920         53.33	     8.000
  46.940         63.33	     8.718
  46.960         47.50	     7.550
  46.980         69.17	     9.110
  47.000         56.67	     8.246
  47.020         60.00	     8.485
  47.040         57.50	     8.307
  47.060         57.50	     8.307
  47.080         65.00	     8.832
  47.100         75.83	     9.539
  47.120         62.50	     8.660
  47.140         55.83	     8.185
  47.160         67.50	     9.000
  47.180         59.17	     8.426
  47.200         50.83	     7.810
  47.220         50.83	     7.810
  47.240         51.67	     7.874
  47.260         48.33	     7.616
  47.280         47.50	     7.550
  47.300         39.17	     6.856
  47.320         50.00	     7.746
  47.340         39.17	     6.856
  47.360         35.00	     6.481
  47.380         34.17	     6.403
  47.400         49.17	     7.681
  47.420         45.00	     7.348
  47.440         40.83	     7.000
  47.460         36.67	     6.633
  47.480         45.00	     7.348
  47.500         40.83	     7.000
  47.520         37.50	     6.708
  47.540         35.00	     6.481
  47.560         50.83	     7.810
  47.580         44.17	     7.280
  47.600         33.33	     6.325
  47.620         48.33	     7.616
  47.640         47.50	     7.550
  47.660         45.00	     7.348
  47.680         40.83	     7.000
  47.700         41.67	     7.071
  47.720         40.00	     6.928
  47.740         36.67	     6.633
  47.760         43.33	     7.211
  47.780         53.33	     8.000
  47.800         44.17	     7.280
  47.820         38.33	     6.782
  47.840         45.83	     7.416
  47.860         60.83	     8.544
  47.880         38.33	     6.782
  47.900         53.33	     8.000
  47.920         49.17	     7.681
  47.940         43.33	     7.211
  47.960         44.17	     7.280
  47.980         53.33	     8.000
  48.000         59.17	     8.426
  48.020         58.33	     8.367
  48.040         64.17	     8.775
  48.060         77.50	     9.644
  48.080         75.83	     9.539
  48.100         83.33	    10.000
  48.120         95.00	    10.677
  48.140         74.17	     9.434
  48.160         85.00	    10.100
  48.180         58.33	     8.367
  48.200         72.50	     9.327
  48.220         91.67	    10.488
  48.240         70.00	     9.165
  48.260         82.50	     9.950
  48.280         83.33	    10.000
  48.300         65.83	     8.888
  48.320         61.67	     8.602
  48.340         50.00	     7.746
  48.360         54.17	     8.062
  48.380         51.67	     7.874
  48.400         45.83	     7.416
  48.420         52.50	     7.937
  48.440         49.17	     7.681
  48.460         46.67	     7.483
  48.480         45.00	     7.348
  48.500         63.33	     8.718
  48.520         57.50	     8.307
  48.540         47.50	     7.550
  48.560         52.50	     7.937
  48.580         47.50	     7.550
  48.600         54.17	     8.062
  48.620         54.17	     8.062
  48.640         55.83	     8.185
  48.660         48.33	     7.616
  48.680         51.67	     7.874
  48.700         59.17	     8.426
  48.720         39.17	     6.856
  48.740         47.50	     7.550
  48.760         52.50	     7.937
  48.780         49.17	     7.681
  48.800         38.33	     6.782
  48.820         46.67	     7.483
  48.840         50.00	     7.746
  48.860         55.00	     8.124
  48.880         50.83	     7.810
  48.900         54.17	     8.062
  48.920         70.00	     9.165
  48.940         52.50	     7.937
  48.960         75.00	     9.487
  48.980         70.00	     9.165
  49.000         58.33	     8.367
  49.020         62.50	     8.660
  49.040         60.00	     8.485
  49.060         42.50	     7.141
  49.080         57.50	     8.307
  49.100         71.67	     9.274
  49.120         66.67	     8.944
  49.140         65.83	     8.888
  49.160         64.17	     8.775
  49.180         60.83	     8.544
  49.200         44.17	     7.280
  49.220         45.00	     7.348
  49.240         51.67	     7.874
  49.260         60.00	     8.485
  49.280         51.67	     7.874
  49.300         45.00	     7.348
  49.320         49.17	     7.681
  49.340         60.00	     8.485
  49.360         46.67	     7.483
  49.380         60.83	     8.544
  49.400         63.33	     8.718
  49.420         60.00	     8.485
  49.440         66.67	     8.944
  49.460         55.83	     8.185
  49.480         54.17	     8.062
  49.500         50.00	     7.746
  49.520         44.17	     7.280
  49.540         57.50	     8.307
  49.560         45.83	     7.416
  49.580         50.83	     7.810
  49.600         50.00	     7.746
  49.620         56.67	     8.246
  49.640         65.83	     8.888
  49.660         61.67	     8.602
  49.680         55.83	     8.185
  49.700         67.50	     9.000
  49.720         80.00	     9.798
  49.740         78.33	     9.695
  49.760         74.17	     9.434
  49.780         78.33	     9.695
  49.800         73.33	     9.381
  49.820         72.50	     9.327
  49.840         78.33	     9.695
  49.860         80.00	     9.798
  49.880        101.67	    11.045
  49.900         78.33	     9.695
  49.920         88.33	    10.296
  49.940         83.33	    10.000
  49.960        116.67	    11.832
  49.980        167.50	    14.177
  50.000        220.83	    16.279
  50.020        300.83	    19.000
  50.040        380.00	    21.354
  50.060        449.17	    23.216
  50.080        462.50	    23.558
  50.100        359.17	    20.761
  50.120        250.00	    17.321
  50.140        240.83	    17.000
  50.160        226.67	    16.492
  50.180        250.83	    17.349
  50.200        279.17	    18.303
  50.220        277.50	    18.248
  50.240        195.83	    15.330
  50.260        141.67	    13.038
  50.280         90.83	    10.440
  50.300         85.83	    10.149
  50.320         65.00	     8.832
  50.340         75.00	     9.487
  50.360         65.83	     8.888
  50.380         80.83	     9.849
  50.400         80.83	     9.849
  50.420         56.67	     8.246
  50.440         94.17	    10.630
  50.460         94.17	    10.630
  50.480         87.50	    10.247
  50.500         90.83	    10.440
  50.520        102.50	    11.091
  50.540         78.33	     9.695
  50.560         83.33	    10.000
  50.580         90.83	    10.440
  50.600         88.33	    10.296
  50.620         79.17	     9.747
  50.640         94.17	    10.630
  50.660         73.33	     9.381
  50.680         66.67	     8.944
  50.700         69.17	     9.110
  50.720         61.67	     8.602
  50.740         65.00	     8.832
  50.760         55.00	     8.124
  50.780         56.67	     8.246
  50.800         60.00	     8.485
  50.820         68.33	     9.055
  50.840         62.50	     8.660
  50.860         60.00	     8.485
  50.880         48.33	     7.616
  50.900         43.33	     7.211
  50.920         53.33	     8.000
  50.940         54.17	     8.062
  50.960         52.50	     7.937
  50.980         52.50	     7.937
  51.000         65.00	     8.832
  51.020         62.50	     8.660
  51.040         65.00	     8.832
  51.060         65.83	     8.888
  51.080         75.83	     9.539
  51.100         65.00	     8.832
  51.120         53.33	     8.000
  51.140         62.50	     8.660
  51.160         55.00	     8.124
  51.180         66.67	     8.944
  51.200         60.83	     8.544
  51.220         60.83	     8.544
  51.240         60.83	     8.544
  51.260         50.00	     7.746
  51.280         51.67	     7.874
  51.300         43.33	     7.211
  51.320         46.67	     7.483
  51.340         42.50	     7.141
  51.360         55.00	     8.124
  51.380         50.00	     7.746
  51.400         43.33	     7.211
  51.420         49.17	     7.681
  51.440         34.17	     6.403
  51.460         47.50	     7.550
  51.480         27.50	     5.745
  51.500         36.67	     6.633
  51.520         35.00	     6.481
  51.540         49.17	     7.681
  51.560         36.67	     6.633
  51.580         36.67	     6.633
  51.600         42.50	     7.141
  51.620         40.83	     7.000
  51.640         30.83	     6.083
  51.660         38.33	     6.782
  51.680         43.33	     7.211
  51.700         42.50	     7.141
  51.720         40.00	     6.928
  51.740         41.67	     7.071
  51.760         40.00	     6.928
  51.780         32.50	     6.245
  51.800         40.83	     7.000
  51.820         27.50	     5.745
  51.840         47.50	     7.550
  51.860         31.67	     6.164
  51.880         30.00	     6.000
  51.900         48.33	     7.616
  51.920         35.00	     6.481
  51.940         36.67	     6.633
  51.960         39.17	     6.856
  51.980         39.17	     6.856
  52.000         45.00	     7.348
  52.020         45.00	     7.348
  52.040         60.00	     8.485
  52.060         57.50	     8.307
  52.080         63.33	     8.718
  52.100         63.33	     8.718
  52.120         50.00	     7.746
  52.140         53.33	     8.000
  52.160         61.67	     8.602
  52.180         40.00	     6.928
  52.200         59.17	     8.426
  52.220         49.17	     7.681
  52.240         63.33	     8.718
  52.260         67.50	     9.000
  52.280         77.50	     9.644
  52.300         79.17	     9.747
  52.320         85.00	    10.100
  52.340         75.83	     9.539
  52.360         65.00	     8.832
  52.380         65.83	     8.888
  52.400         61.67	     8.602
  52.420         65.83	     8.888
  52.440         68.33	     9.055
  52.460         58.33	     8.367
  52.480         59.17	     8.426
  52.500         66.67	     8.944
  52.520         61.67	     8.602
  52.540         64.17	     8.775
  52.560         53.33	     8.000
  52.580         55.83	     8.185
  52.600         46.67	     7.483
  52.620         50.00	     7.746
  52.640         55.00	     8.124
  52.660         42.50	     7.141
  52.680         53.33	     8.000
  52.700         43.33	     7.211
  52.720         46.67	     7.483
  52.740         45.83	     7.416
  52.760         43.33	     7.211
  52.780         51.67	     7.874
  52.800         52.50	     7.937
  52.820         42.50	     7.141
  52.840         50.00	     7.746
  52.860         41.67	     7.071
  52.880         52.50	     7.937
  52.900         41.67	     7.071
  52.920         37.50	     6.708
  52.940         43.33	     7.211
  52.960         67.50	     9.000
  52.980         50.83	     7.810
  53.000         43.33	     7.211
  53.020         47.50	     7.550
  53.040         49.17	     7.681
  53.060         47.50	     7.550
  53.080         52.50	     7.937
  53.100         49.17	     7.681
  53.120         44.17	     7.280
  53.140         53.33	     8.000
  53.160         60.83	     8.544
  53.180         55.00	     8.124
  53.200         60.83	     8.544
  53.220         66.67	     8.944
  53.240         64.17	     8.775
  53.260         61.67	     8.602
  53.280         55.00	     8.124
  53.300         47.50	     7.550
  53.320         41.67	     7.071
  53.340         52.50	     7.937
  53.360         45.00	     7.348
  53.380         45.00	     7.348
  53.400         55.00	     8.124
  53.420         43.33	     7.211
  53.440         35.83	     6.557
  53.460         46.67	     7.483
  53.480         40.83	     7.000
  53.500         42.50	     7.141
  53.520         38.33	     6.782
  53.540         39.17	     6.856
  53.560         51.67	     7.874
  53.580         40.83	     7.000
  53.600         38.33	     6.782
  53.620         34.17	     6.403
  53.640         35.00	     6.481
  53.660         45.83	     7.416
  53.680         35.00	     6.481
  53.700         40.00	     6.928
  53.720         35.00	     6.481
  53.740         45.00	     7.348
  53.760         32.50	     6.245
  53.780         43.33	     7.211
  53.800         46.67	     7.483
  53.820         45.83	     7.416
  53.840         52.50	     7.937
  53.860         35.83	     6.557
  53.880         31.67	     6.164
  53.900         38.33	     6.782
  53.920         48.33	     7.616
  53.940         34.17	     6.403
  53.960         36.67	     6.633
  53.980         37.50	     6.708
  54.000         35.83	     6.557
  54.020         44.17	     7.280
  54.040         40.83	     7.000
  54.060         35.00	     6.481
  54.080         41.67	     7.071
  54.100         50.83	     7.810
  54.120         43.33	     7.211
  54.140         45.83	     7.416
  54.160         35.83	     6.557
  54.180         39.17	     6.856
  54.200         47.50	     7.550
  54.220         40.00	     6.928
  54.240         30.83	     6.083
  54.260         51.67	     7.874
  54.280         52.50	     7.937
  54.300         59.17	     8.426
  54.320         48.33	     7.616
  54.340         45.83	     7.416
  54.360         40.83	     7.000
  54.380         49.17	     7.681
  54.400         51.67	     7.874
  54.420         47.50	     7.550
  54.440         44.17	     7.280
  54.460         50.83	     7.810
  54.480         47.50	     7.550
  54.500         41.67	     7.071
  54.520         50.00	     7.746
  54.540         51.67	     7.874
  54.560         45.83	     7.416
  54.580         48.33	     7.616
  54.600         44.17	     7.280
  54.620         53.33	     8.000
  54.640         43.33	     7.211
  54.660         61.67	     8.602
  54.680         46.67	     7.483
  54.700         73.33	     9.381
  54.720         63.33	     8.718
  54.740         99.17	    10.909
  54.760        120.83	    12.042
  54.780        149.17	    13.379
  54.800        191.67	    15.166
  54.820        200.00	    15.492
  54.840        157.50	    13.748
  54.860        127.50	    12.369
  54.880         99.17	    10.909
  54.900         90.00	    10.392
  54.920        112.50	    11.619
  54.940        123.33	    12.166
  54.960        150.00	    13.416
  54.980        131.67	    12.570
  55.000         89.17	    10.344
  55.020         80.00	     9.798
  55.040         42.50	     7.141
  55.060         60.83	     8.544
  55.080         55.83	     8.185
  55.100         55.83	     8.185
  55.120         50.00	     7.746
  55.140         44.17	     7.280
  55.160         55.00	     8.124
  55.180         54.17	     8.062
  55.200         64.17	     8.775
  55.220         69.17	     9.110
  55.240         64.17	     8.775
  55.260         90.00	    10.392
  55.280         69.17	     9.110
  55.300         53.33	     8.000
  55.320         62.50	     8.660
  55.340         61.67	     8.602
  55.360         40.00	     6.928
  55.380         56.67	     8.246
  55.400         54.17	     8.062
  55.420         55.00	     8.124
  55.440         56.67	     8.246
  55.460         46.67	     7.483
  55.480         51.67	     7.874
  55.500         54.17	     8.062
  55.520         49.17	     7.681
  55.540         50.83	     7.810
  55.560         57.50	     8.307
  55.580         60.83	     8.544
  55.600         50.83	     7.810
  55.620         71.67	     9.274
  55.640         61.67	     8.602
  55.660         70.00	     9.165
  55.680         71.67	     9.274
  55.700         70.00	     9.165
  55.720         72.50	     9.327
  55.740         60.83	     8.544
  55.760         84.17	    10.050
  55.780         69.17	     9.110
  55.800         86.67	    10.198
  55.820         68.33	     9.055
  55.840         73.33	     9.381
  55.860         63.33	     8.718
  55.880         53.33	     8.000
  55.900         58.33	     8.367
  55.920         66.67	     8.944
  55.940         55.83	     8.185
  55.960         65.00	     8.832
  55.980         55.83	     8.185
  56.000         61.67	     8.602
  56.020         60.00	     8.485
  56.040         40.83	     7.000
  56.060         53.33	     8.000
  56.080         57.50	     8.307
  56.100         50.00	     7.746
  56.120         59.17	     8.426
  56.140         47.50	     7.550
  56.160         55.00	     8.124
  56.180         41.67	     7.071
  56.200         42.50	     7.141
  56.220         41.67	     7.071
  56.240         45.00	     7.348
  56.260         42.50	     7.141
  56.280         43.33	     7.211
  56.300         36.67	     6.633
  56.320         45.00	     7.348
  56.340         45.83	     7.416
  56.360         49.17	     7.681
  56.380         35.83	     6.557
  56.400         37.50	     6.708
  56.420         24.17	     5.385
  56.440         49.17	     7.681
  56.460         38.33	     6.782
  56.480         42.50	     7.141
  56.500         49.17	     7.681
  56.520         60.00	     8.485
  56.540         50.83	     7.810
  56.560         48.33	     7.616
  56.580         45.00	     7.348
  56.600         62.50	     8.660
  56.620         67.50	     9.000
  56.640         41.67	     7.071
  56.660         55.83	     8.185
  56.680         45.00	     7.348
  56.700         53.33	     8.000
  56.720         45.83	     7.416
  56.740         41.67	     7.071
  56.760         61.67	     8.602
  56.780         70.00	     9.165
  56.800         56.67	     8.246
  56.820         45.83	     7.416
  56.840         46.67	     7.483
  56.860         55.00	     8.124
  56.880         51.67	     7.874
  56.900         60.00	     8.485
  56.920         48.33	     7.616
  56.940         37.50	     6.708
  56.960         39.17	     6.856
  56.980         55.83	     8.185
  57.000         31.67	     6.164
  57.020         43.33	     7.211
  57.040         40.00	     6.928
  57.060         40.00	     6.928
  57.080         50.83	     7.810
  57.100         45.00	     7.348
  57.120         38.33	     6.782
  57.140         40.00	     6.928
  57.160         50.83	     7.810
  57.180         45.00	     7.348
  57.200         46.67	     7.483
  57.220         47.50	     7.550
  57.240         44.17	     7.280
  57.260         35.83	     6.557
  57.280         34.17	     6.403
  57.300         37.50	     6.708
  57.320         30.00	     6.000
  57.340         50.00	     7.746
  57.360         36.67	     6.633
  57.380         45.00	     7.348
  57.400         44.17	     7.280
  57.420         40.83	     7.000
  57.440         43.33	     7.211
  57.460         47.50	     7.550
  57.480         36.67	     6.633
  57.500         36.67	     6.633
  57.520         40.00	     6.928
  57.540         28.33	     5.831
  57.560         40.83	     7.000
  57.580         51.67	     7.874
  57.600         42.50	     7.141
  57.620         49.17	     7.681
  57.640         42.50	     7.141
  57.660         43.33	     7.211
  57.680         31.67	     6.164
  57.700         51.67	     7.874
  57.720         45.83	     7.416
  57.740         41.67	     7.071
  57.760         42.50	     7.141
  57.780         49.17	     7.681
  57.800         50.83	     7.810
  57.820         37.50	     6.708
  57.840         37.50	     6.708
  57.860         34.17	     6.403
  57.880         33.33	     6.325
  57.900         43.33	     7.211
  57.920         36.67	     6.633
  57.940         40.83	     7.000
  57.960         35.00	     6.481
  57.980         44.17	     7.280
  58.000         39.17	     6.856
  58.020         42.50	     7.141
  58.040         39.17	     6.856
  58.060         45.83	     7.416
  58.080         31.67	     6.164
  58.100         47.50	     7.550
  58.120         31.67	     6.164
  58.140         33.33	     6.325
  58.160         39.17	     6.856
  58.180         42.50	     7.141
  58.200         40.00	     6.928
  58.220         43.33	     7.211
  58.240         37.50	     6.708
  58.260         35.00	     6.481
  58.280         34.17	     6.403
  58.300         49.17	     7.681
  58.320         44.17	     7.280
  58.340         46.67	     7.483
  58.360         45.00	     7.348
  58.380         42.50	     7.141
  58.400         50.00	     7.746
  58.420         35.83	     6.557
  58.440         40.83	     7.000
  58.460         61.67	     8.602
  58.480         64.17	     8.775
  58.500         84.17	    10.050
  58.520        121.67	    12.083
  58.540        139.17	    12.923
  58.560         99.17	    10.909
  58.580         63.33	     8.718
  58.600         62.50	     8.660
  58.620         69.17	     9.110
  58.640         68.33	     9.055
  58.660         60.83	     8.544
  58.680         91.67	    10.488
  58.700         93.33	    10.583
  58.720         74.17	     9.434
  58.740         63.33	     8.718
  58.760         78.33	     9.695
  58.780         69.17	     9.110
  58.800         45.83	     7.416
  58.820         65.00	     8.832
  58.840         60.83	     8.544
  58.860         58.33	     8.367
  58.880         60.00	     8.485
  58.900         43.33	     7.211
  58.920         62.50	     8.660
  58.940         50.83	     7.810
  58.960         61.67	     8.602
  58.980         58.33	     8.367
  59.000         55.83	     8.185
  59.020         65.00	     8.832
  59.040         60.00	     8.485
  59.060         62.50	     8.660
  59.080         62.50	     8.660
  59.100         79.17	     9.747
  59.120         54.17	     8.062
  59.140         60.00	     8.485
  59.160         55.00	     8.124
  59.180         59.17	     8.426
  59.200         55.00	     8.124
  59.220         48.33	     7.616
  59.240         61.67	     8.602
  59.260         65.00	     8.832
  59.280         63.33	     8.718
  59.300         55.83	     8.185
  59.320         59.17	     8.426
  59.340         55.00	     8.124
  59.360         52.50	     7.937
  59.380         43.33	     7.211
  59.400         47.50	     7.550
  59.420         51.67	     7.874
  59.440         46.67	     7.483
  59.460         55.00	     8.124
  59.480         43.33	     7.211
  59.500         50.83	     7.810
  59.520         55.00	     8.124
  59.540         45.00	     7.348
  59.560         50.83	     7.810
  59.580         52.50	     7.937
  59.600         43.33	     7.211
  59.620         60.00	     8.485
  59.640         52.50	     7.937
  59.660         60.00	     8.485
  59.680         52.50	     7.937
  59.700         74.17	     9.434
  59.720         50.00	     7.746
  59.740         64.17	     8.775
  59.760         65.00	     8.832
  59.780         92.50	    10.536
  59.800         98.33	    10.863
  59.820        135.00	    12.728
  59.840        198.33	    15.427
  59.860        302.50	    19.053
  59.880        363.33	    20.881
  59.900        371.67	    21.119
  59.920        345.83	    20.372
  59.940        240.83	    17.000
  59.960        166.67	    14.142
  59.980        138.33	    12.884
  60.000        151.67	    13.491
  60.020        167.50	    14.177
  60.040        210.83	    15.906
  60.060        238.33	    16.912
  60.080        235.83	    16.823
  60.100        145.83	    13.229
  60.120         96.67	    10.770
  60.140         71.67	     9.274
  60.160         61.67	     8.602
  60.180         65.00	     8.832
  60.200         60.00	     8.485
  60.220         54.17	     8.062
  60.240         48.33	     7.616
  60.260         63.33	     8.718
  60.280         54.17	     8.062
  60.300         50.00	     7.746
  60.320         50.00	     7.746
  60.340         40.00	     6.928
  60.360         64.17	     8.775
  60.380         55.83	     8.185
  60.400         66.67	     8.944
  60.420         51.67	     7.874
  60.440         48.33	     7.616
  60.460         58.33	     8.367
  60.480         50.83	     7.810
  60.500         61.67	     8.602
  60.520         48.33	     7.616
  60.540         52.50	     7.937
  60.560         46.67	     7.483
  60.580         58.33	     8.367
  60.600         53.33	     8.000
  60.620         59.17	     8.426
  60.640         60.00	     8.485
  60.660         54.17	     8.062
  60.680         53.33	     8.000
  60.700         50.00	     7.746
  60.720         58.33	     8.367
  60.740         58.33	     8.367
  60.760         64.17	     8.775
  60.780         51.67	     7.874
  60.800         64.17	     8.775
  60.820         50.00	     7.746
  60.840         63.33	     8.718
  60.860         58.33	     8.367
  60.880         71.67	     9.274
  60.900         66.67	     8.944
  60.920         55.83	     8.185
  60.940         57.50	     8.307
  60.960         62.50	     8.660
  60.980         44.17	     7.280
  61.000         57.50	     8.307
  61.020         62.50	     8.660
  61.040         53.33	     8.000
  61.060         59.17	     8.426
  61.080         75.00	     9.487
  61.100         56.67	     8.246
  61.120         65.83	     8.888
  61.140         50.83	     7.810
  61.160         47.50	     7.550
  61.180         53.33	     8.000
  61.200         48.33	     7.616
  61.220         45.83	     7.416
  61.240         47.50	     7.550
  61.260         55.83	     8.185
  61.280         73.33	     9.381
  61.300         59.17	     8.426
  61.320         75.83	     9.539
  61.340        102.50	    11.091
  61.360        111.67	    11.576
  61.380        105.83	    11.269
  61.400        110.83	    11.533
  61.420        116.67	    11.832
  61.440        102.50	    11.091
  61.460         76.67	     9.592
  61.480         95.83	    10.724
  61.500         88.33	    10.296
  61.520         91.67	    10.488
  61.540         94.17	    10.630
  61.560         95.00	    10.677
  61.580         97.50	    10.817
  61.600         90.00	    10.392
  61.620         79.17	     9.747
  61.640         85.00	    10.100
  61.660         96.67	    10.770
  61.680         90.83	    10.440
  61.700         90.00	    10.392
  61.720        101.67	    11.045
  61.740         90.00	    10.392
  61.760         88.33	    10.296
  61.780        118.33	    11.916
  61.800        138.33	    12.884
  61.820        183.33	    14.832
  61.840        239.17	    16.941
  61.860        286.67	    18.547
  61.880        199.17	    15.460
  61.900        138.33	    12.884
  61.920        128.33	    12.410
  61.940         86.67	    10.198
  61.960         81.67	     9.899
  61.980        100.83	    11.000
  62.000        128.33	    12.410
  62.020        140.00	    12.961
  62.040        126.67	    12.329
  62.060        115.00	    11.747
  62.080         63.33	     8.718
  62.100         71.67	     9.274
  62.120         64.17	     8.775
  62.140         35.00	     6.481
  62.160         56.67	     8.246
  62.180         65.00	     8.832
  62.200         48.33	     7.616
  62.220         41.67	     7.071
  62.240         40.83	     7.000
  62.260         40.83	     7.000
  62.280         48.33	     7.616
  62.300         44.17	     7.280
  62.320         33.33	     6.325
  62.340         39.17	     6.856
  62.360         34.17	     6.403
  62.380         42.50	     7.141
  62.400         45.83	     7.416
  62.420         48.33	     7.616
  62.440         36.67	     6.633
  62.460         39.17	     6.856
  62.480         56.67	     8.246
  62.500         45.83	     7.416
  62.520         45.00	     7.348
  62.540         43.33	     7.211
  62.560         42.50	     7.141
  62.580         32.50	     6.245
  62.600         43.33	     7.211
  62.620         51.67	     7.874
  62.640         31.67	     6.164
  62.660         50.83	     7.810
  62.680         48.33	     7.616
  62.700         54.17	     8.062
  62.720         45.00	     7.348
  62.740         41.67	     7.071
  62.760         40.83	     7.000
  62.780         41.67	     7.071
  62.800         34.17	     6.403
  62.820         32.50	     6.245
  62.840         37.50	     6.708
  62.860         40.83	     7.000
  62.880         49.17	     7.681
  62.900         34.17	     6.403
  62.920         42.50	     7.141
  62.940         36.67	     6.633
  62.960         36.67	     6.633
  62.980         35.00	     6.481
  63.000         33.33	     6.325
  63.020         39.17	     6.856
  63.040         39.17	     6.856
  63.060         28.33	     5.831
  63.080         34.17	     6.403
  63.100         33.33	     6.325
  63.120         34.17	     6.403
  63.140         39.17	     6.856
  63.160         38.33	     6.782
  63.180         41.67	     7.071
  63.200         35.83	     6.557
  63.220         42.50	     7.141
  63.240         39.17	     6.856
  63.260         44.17	     7.280
  63.280         52.50	     7.937
  63.300         50.83	     7.810
  63.320         42.50	     7.141
  63.340         53.33	     8.000
  63.360         48.33	     7.616
  63.380         51.67	     7.874
  63.400         41.67	     7.071
  63.420         60.00	     8.485
  63.440         48.33	     7.616
  63.460         50.00	     7.746
  63.480         54.17	     8.062
  63.500         48.33	     7.616
  63.520         57.50	     8.307
  63.540         36.67	     6.633
  63.560         50.83	     7.810
  63.580         45.83	     7.416
  63.600         50.83	     7.810
  63.620         45.00	     7.348
  63.640         46.67	     7.483
  63.660         46.67	     7.483
  63.680         46.67	     7.483
  63.700         45.00	     7.348
  63.720         45.83	     7.416
  63.740         40.00	     6.928
  63.760         50.83	     7.810
  63.780         52.50	     7.937
  63.800         40.83	     7.000
  63.820         50.00	     7.746
  63.840         53.33	     8.000
  63.860         45.00	     7.348
  63.880         48.33	     7.616
  63.900         70.83	     9.220
  63.920         62.50	     8.660
  63.940         75.83	     9.539
  63.960         97.50	    10.817
  63.980         87.50	    10.247
  64.000         81.67	     9.899
  64.020         66.67	     8.944
  64.040         63.33	     8.718
  64.060         60.83	     8.544
  64.080         56.67	     8.246
  64.100         60.83	     8.544
  64.120         63.33	     8.718
  64.140         65.00	     8.832
  64.160         57.50	     8.307
  64.180         45.83	     7.416
  64.200         58.33	     8.367
  64.220         46.67	     7.483
  64.240         45.83	     7.416
  64.260         60.83	     8.544
  64.280         55.00	     8.124
  64.300         43.33	     7.211
  64.320         37.50	     6.708
  64.340         34.17	     6.403
  64.360         44.17	     7.280
  64.380         45.00	     7.348
  64.400         50.00	     7.746
  64.420         38.33	     6.782
  64.440         45.00	     7.348
  64.460         49.17	     7.681
  64.480         40.83	     7.000
  64.500         45.00	     7.348
  64.520         39.17	     6.856
  64.540         44.17	     7.280
  64.560         44.17	     7.280
  64.580         47.50	     7.550
  64.600         58.33	     8.367
  64.620         48.33	     7.616
  64.640         83.33	    10.000
  64.660         64.17	     8.775
  64.680         64.17	     8.775
  64.700         57.50	     8.307
  64.720         62.50	     8.660
  64.740         49.17	     7.681
  64.760         47.50	     7.550
  64.780         54.17	     8.062
  64.800         49.17	     7.681
  64.820         64.17	     8.775
  64.840         78.33	     9.695
  64.860         74.17	     9.434
  64.880         62.50	     8.660
  64.900         60.83	     8.544
  64.920         65.00	     8.832
  64.940         53.33	     8.000
  64.960         53.33	     8.000
  64.980         59.17	     8.426
  65.000         50.83	     7.810
