
Filename:
	C:\Program Files\Thermo Electron\WinXRD\Datafiles\F_HERMAN\GEO\G47_RT.raw

File Created:
	February 19, 2020 - 08:49 PM

Specimen Id:
	G47_RT

Specimen Name:
	

Specimen Description:
	

Comment:
Scan Type: 2Theta Scan
Start Angle: 3 deg.
Stop Angle: 65 deg.
Num Points: 3101
Step Size: 0.02 deg.
Scan Rate: 1.000000
Scan Mode: Continuous
Wavelength: 1.540562
\Kalpha1: 1.540562	\Kalpha2: 1.544390	\Kbeta: 1.392218

Optics:
		Detector:
			 Type: Fixed Slits
		Tube: 
			 Type: Fixed Slits


Datas:
 Pos [deg]       Rate [CPS]      ESD [-]

Range 1 ---> Iteration 1
   3.000        472.50	    23.812
   3.020        461.67	    23.537
   3.040        437.50	    22.913
   3.060        448.33	    23.195
   3.080        454.17	    23.345
   3.100        443.33	    23.065
   3.120        446.67	    23.152
   3.140        465.00	    23.622
   3.160        434.17	    22.825
   3.180        428.33	    22.672
   3.200        409.17	    22.159
   3.220        431.67	    22.760
   3.240        422.50	    22.517
   3.260        439.17	    22.956
   3.280        402.50	    21.977
   3.300        391.67	    21.679
   3.320        415.00	    22.316
   3.340        415.83	    22.338
   3.360        371.67	    21.119
   3.380        420.83	    22.472
   3.400        362.50	    20.857
   3.420        387.50	    21.564
   3.440        398.33	    21.863
   3.460        401.67	    21.954
   3.480        417.50	    22.383
   3.500        394.17	    21.749
   3.520        372.50	    21.142
   3.540        402.50	    21.977
   3.560        369.17	    21.048
   3.580        375.83	    21.237
   3.600        387.50	    21.564
   3.620        340.00	    20.199
   3.640        333.33	    20.000
   3.660        361.67	    20.833
   3.680        355.00	    20.640
   3.700        360.00	    20.785
   3.720        356.67	    20.688
   3.740        356.67	    20.688
   3.760        339.17	    20.174
   3.780        360.83	    20.809
   3.800        350.83	    20.518
   3.820        337.50	    20.125
   3.840        362.50	    20.857
   3.860        346.67	    20.396
   3.880        335.00	    20.050
   3.900        311.67	    19.339
   3.920        331.67	    19.950
   3.940        326.67	    19.799
   3.960        338.33	    20.149
   3.980        336.67	    20.100
   4.000        329.17	    19.875
   4.020        315.83	    19.468
   4.040        308.33	    19.235
   4.060        333.33	    20.000
   4.080        291.67	    18.708
   4.100        313.33	    19.391
   4.120        303.33	    19.079
   4.140        306.67	    19.183
   4.160        313.33	    19.391
   4.180        291.67	    18.708
   4.200        313.33	    19.391
   4.220        305.00	    19.131
   4.240        326.67	    19.799
   4.260        330.00	    19.900
   4.280        325.83	    19.774
   4.300        295.00	    18.815
   4.320        291.67	    18.708
   4.340        283.33	    18.439
   4.360        283.33	    18.439
   4.380        268.33	    17.944
   4.400        292.50	    18.735
   4.420        298.33	    18.921
   4.440        296.67	    18.868
   4.460        310.00	    19.287
   4.480        301.67	    19.026
   4.500        282.50	    18.412
   4.520        277.50	    18.248
   4.540        250.83	    17.349
   4.560        276.67	    18.221
   4.580        277.50	    18.248
   4.600        260.00	    17.664
   4.620        265.83	    17.861
   4.640        257.50	    17.578
   4.660        266.67	    17.889
   4.680        259.17	    17.635
   4.700        285.00	    18.493
   4.720        272.50	    18.083
   4.740        240.00	    16.971
   4.760        241.67	    17.029
   4.780        270.00	    18.000
   4.800        252.50	    17.407
   4.820        247.50	    17.234
   4.840        255.83	    17.521
   4.860        270.83	    18.028
   4.880        279.17	    18.303
   4.900        275.00	    18.166
   4.920        252.50	    17.407
   4.940        275.00	    18.166
   4.960        255.83	    17.521
   4.980        250.00	    17.321
   5.000        254.17	    17.464
   5.020        226.67	    16.492
   5.040        222.50	    16.340
   5.060        254.17	    17.464
   5.080        230.83	    16.643
   5.100        253.33	    17.436
   5.120        229.17	    16.583
   5.140        230.83	    16.643
   5.160        250.00	    17.321
   5.180        240.83	    17.000
   5.200        234.17	    16.763
   5.220        233.33	    16.733
   5.240        225.00	    16.432
   5.260        250.83	    17.349
   5.280        260.83	    17.692
   5.300        252.50	    17.407
   5.320        260.00	    17.664
   5.340        238.33	    16.912
   5.360        266.67	    17.889
   5.380        252.50	    17.407
   5.400        235.83	    16.823
   5.420        237.50	    16.882
   5.440        230.00	    16.613
   5.460        225.83	    16.462
   5.480        203.33	    15.620
   5.500        236.67	    16.852
   5.520        232.50	    16.703
   5.540        211.67	    15.937
   5.560        204.17	    15.652
   5.580        234.17	    16.763
   5.600        234.17	    16.763
   5.620        235.00	    16.793
   5.640        219.17	    16.217
   5.660        239.17	    16.941
   5.680        217.50	    16.155
   5.700        222.50	    16.340
   5.720        222.50	    16.340
   5.740        234.17	    16.763
   5.760        242.50	    17.059
   5.780        235.00	    16.793
   5.800        243.33	    17.088
   5.820        232.50	    16.703
   5.840        213.33	    16.000
   5.860        260.83	    17.692
   5.880        260.00	    17.664
   5.900        239.17	    16.941
   5.920        255.83	    17.521
   5.940        234.17	    16.763
   5.960        257.50	    17.578
   5.980        252.50	    17.407
   6.000        262.50	    17.748
   6.020        237.50	    16.882
   6.040        235.83	    16.823
   6.060        285.00	    18.493
   6.080        257.50	    17.578
   6.100        270.00	    18.000
   6.120        306.67	    19.183
   6.140        304.17	    19.105
   6.160        270.83	    18.028
   6.180        225.00	    16.432
   6.200        198.33	    15.427
   6.220        203.33	    15.620
   6.240        222.50	    16.340
   6.260        223.33	    16.371
   6.280        182.50	    14.799
   6.300        203.33	    15.620
   6.320        206.67	    15.748
   6.340        180.00	    14.697
   6.360        193.33	    15.232
   6.380        195.83	    15.330
   6.400        179.17	    14.663
   6.420        192.50	    15.199
   6.440        219.17	    16.217
   6.460        170.83	    14.318
   6.480        190.83	    15.133
   6.500        211.67	    15.937
   6.520        190.00	    15.100
   6.540        209.17	    15.843
   6.560        200.00	    15.492
   6.580        180.00	    14.697
   6.600        191.67	    15.166
   6.620        170.83	    14.318
   6.640        187.50	    15.000
   6.660        186.67	    14.967
   6.680        176.67	    14.560
   6.700        183.33	    14.832
   6.720        200.83	    15.524
   6.740        182.50	    14.799
   6.760        183.33	    14.832
   6.780        178.33	    14.629
   6.800        182.50	    14.799
   6.820        170.00	    14.283
   6.840        181.67	    14.765
   6.860        190.83	    15.133
   6.880        193.33	    15.232
   6.900        190.00	    15.100
   6.920        158.33	    13.784
   6.940        195.00	    15.297
   6.960        183.33	    14.832
   6.980        175.83	    14.526
   7.000        168.33	    14.213
   7.020        172.50	    14.387
   7.040        170.00	    14.283
   7.060        170.00	    14.283
   7.080        175.00	    14.491
   7.100        165.83	    14.107
   7.120        186.67	    14.967
   7.140        190.00	    15.100
   7.160        155.00	    13.638
   7.180        191.67	    15.166
   7.200        161.67	    13.928
   7.220        182.50	    14.799
   7.240        177.50	    14.595
   7.260        172.50	    14.387
   7.280        155.00	    13.638
   7.300        164.17	    14.036
   7.320        172.50	    14.387
   7.340        148.33	    13.342
   7.360        179.17	    14.663
   7.380        170.83	    14.318
   7.400        161.67	    13.928
   7.420        167.50	    14.177
   7.440        169.17	    14.248
   7.460        182.50	    14.799
   7.480        160.83	    13.892
   7.500        145.83	    13.229
   7.520        158.33	    13.784
   7.540        149.17	    13.379
   7.560        164.17	    14.036
   7.580        187.50	    15.000
   7.600        148.33	    13.342
   7.620        159.17	    13.820
   7.640        159.17	    13.820
   7.660        143.33	    13.115
   7.680        155.83	    13.675
   7.700        149.17	    13.379
   7.720        160.83	    13.892
   7.740        152.50	    13.528
   7.760        151.67	    13.491
   7.780        158.33	    13.784
   7.800        150.83	    13.454
   7.820        144.17	    13.153
   7.840        145.83	    13.229
   7.860        150.00	    13.416
   7.880        166.67	    14.142
   7.900        145.83	    13.229
   7.920        150.83	    13.454
   7.940        148.33	    13.342
   7.960        151.67	    13.491
   7.980        143.33	    13.115
   8.000        150.00	    13.416
   8.020        156.67	    13.711
   8.040        150.83	    13.454
   8.060        147.50	    13.304
   8.080        128.33	    12.410
   8.100        145.00	    13.191
   8.120        155.83	    13.675
   8.140        145.83	    13.229
   8.160        145.83	    13.229
   8.180        164.17	    14.036
   8.200        164.17	    14.036
   8.220        162.50	    13.964
   8.240        155.00	    13.638
   8.260        182.50	    14.799
   8.280        138.33	    12.884
   8.300        134.17	    12.689
   8.320        147.50	    13.304
   8.340        150.83	    13.454
   8.360        144.17	    13.153
   8.380        159.17	    13.820
   8.400        157.50	    13.748
   8.420        140.00	    12.961
   8.440        172.50	    14.387
   8.460        162.50	    13.964
   8.480        150.83	    13.454
   8.500        173.33	    14.422
   8.520        165.00	    14.071
   8.540        175.83	    14.526
   8.560        176.67	    14.560
   8.580        200.83	    15.524
   8.600        207.50	    15.780
   8.620        233.33	    16.733
   8.640        210.83	    15.906
   8.660        230.83	    16.643
   8.680        254.17	    17.464
   8.700        287.50	    18.574
   8.720        358.33	    20.736
   8.740        456.67	    23.409
   8.760        590.83	    26.627
   8.780        606.67	    26.981
   8.800        517.50	    24.920
   8.820        321.67	    19.647
   8.840        197.50	    15.395
   8.860        161.67	    13.928
   8.880        159.17	    13.820
   8.900        132.50	    12.610
   8.920        138.33	    12.884
   8.940        141.67	    13.038
   8.960        130.83	    12.530
   8.980        148.33	    13.342
   9.000        155.83	    13.675
   9.020        145.00	    13.191
   9.040        155.00	    13.638
   9.060        155.83	    13.675
   9.080        154.17	    13.601
   9.100        129.17	    12.450
   9.120        145.83	    13.229
   9.140        141.67	    13.038
   9.160        132.50	    12.610
   9.180        138.33	    12.884
   9.200        120.83	    12.042
   9.220        117.50	    11.874
   9.240        129.17	    12.450
   9.260        120.00	    12.000
   9.280        160.00	    13.856
   9.300        144.17	    13.153
   9.320        146.67	    13.266
   9.340        132.50	    12.610
   9.360        151.67	    13.491
   9.380        146.67	    13.266
   9.400        134.17	    12.689
   9.420        113.33	    11.662
   9.440        122.50	    12.124
   9.460        119.17	    11.958
   9.480        109.17	    11.446
   9.500        130.83	    12.530
   9.520        114.17	    11.705
   9.540        125.83	    12.288
   9.560        130.00	    12.490
   9.580        113.33	    11.662
   9.600        112.50	    11.619
   9.620        111.67	    11.576
   9.640        131.67	    12.570
   9.660         99.17	    10.909
   9.680        117.50	    11.874
   9.700        115.00	    11.747
   9.720        111.67	    11.576
   9.740        120.00	    12.000
   9.760        125.00	    12.247
   9.780        111.67	    11.576
   9.800        107.50	    11.358
   9.820        111.67	    11.576
   9.840        100.00	    10.954
   9.860        120.83	    12.042
   9.880        116.67	    11.832
   9.900        100.00	    10.954
   9.920        115.00	    11.747
   9.940        112.50	    11.619
   9.960        127.50	    12.369
   9.980        107.50	    11.358
  10.000        104.17	    11.180
  10.020        110.83	    11.533
  10.040        112.50	    11.619
  10.060        110.83	    11.533
  10.080         99.17	    10.909
  10.100        105.00	    11.225
  10.120         95.00	    10.677
  10.140        115.00	    11.747
  10.160        106.67	    11.314
  10.180        109.17	    11.446
  10.200        103.33	    11.136
  10.220        115.83	    11.790
  10.240         96.67	    10.770
  10.260        119.17	    11.958
  10.280        122.50	    12.124
  10.300        120.83	    12.042
  10.320        102.50	    11.091
  10.340        124.17	    12.207
  10.360        130.83	    12.530
  10.380        115.00	    11.747
  10.400        135.00	    12.728
  10.420        150.00	    13.416
  10.440        120.83	    12.042
  10.460        128.33	    12.410
  10.480        102.50	    11.091
  10.500        120.00	    12.000
  10.520        114.17	    11.705
  10.540        110.83	    11.533
  10.560         97.50	    10.817
  10.580        114.17	    11.705
  10.600         83.33	    10.000
  10.620         85.00	    10.100
  10.640         91.67	    10.488
  10.660        108.33	    11.402
  10.680        104.17	    11.180
  10.700        113.33	    11.662
  10.720         90.83	    10.440
  10.740         96.67	    10.770
  10.760        102.50	    11.091
  10.780         90.00	    10.392
  10.800        111.67	    11.576
  10.820         85.00	    10.100
  10.840        122.50	    12.124
  10.860         91.67	    10.488
  10.880        109.17	    11.446
  10.900        109.17	    11.446
  10.920         99.17	    10.909
  10.940        121.67	    12.083
  10.960        102.50	    11.091
  10.980         90.00	    10.392
  11.000        100.83	    11.000
  11.020        100.83	    11.000
  11.040         92.50	    10.536
  11.060         90.83	    10.440
  11.080        130.00	    12.490
  11.100        100.00	    10.954
  11.120        103.33	    11.136
  11.140         88.33	    10.296
  11.160        104.17	    11.180
  11.180        105.00	    11.225
  11.200         93.33	    10.583
  11.220         87.50	    10.247
  11.240        105.83	    11.269
  11.260        101.67	    11.045
  11.280         86.67	    10.198
  11.300        111.67	    11.576
  11.320         98.33	    10.863
  11.340        103.33	    11.136
  11.360         99.17	    10.909
  11.380        101.67	    11.045
  11.400         90.83	    10.440
  11.420        104.17	    11.180
  11.440        110.83	    11.533
  11.460        105.00	    11.225
  11.480         80.83	     9.849
  11.500         80.83	     9.849
  11.520         96.67	    10.770
  11.540        101.67	    11.045
  11.560         92.50	    10.536
  11.580         99.17	    10.909
  11.600         86.67	    10.198
  11.620         90.83	    10.440
  11.640         99.17	    10.909
  11.660         87.50	    10.247
  11.680        109.17	    11.446
  11.700        103.33	    11.136
  11.720         80.00	     9.798
  11.740         76.67	     9.592
  11.760         93.33	    10.583
  11.780        108.33	    11.402
  11.800         80.83	     9.849
  11.820         92.50	    10.536
  11.840        103.33	    11.136
  11.860        114.17	    11.705
  11.880        100.00	    10.954
  11.900        100.00	    10.954
  11.920        102.50	    11.091
  11.940        108.33	    11.402
  11.960        117.50	    11.874
  11.980        138.33	    12.884
  12.000        155.83	    13.675
  12.020        234.17	    16.763
  12.040        315.83	    19.468
  12.060        397.50	    21.840
  12.080        425.00	    22.583
  12.100        396.67	    21.817
  12.120        305.83	    19.157
  12.140        218.33	    16.186
  12.160        161.67	    13.928
  12.180        181.67	    14.765
  12.200        191.67	    15.166
  12.220        177.50	    14.595
  12.240        202.50	    15.588
  12.260        181.67	    14.765
  12.280        193.33	    15.232
  12.300        183.33	    14.832
  12.320        209.17	    15.843
  12.340        204.17	    15.652
  12.360        267.50	    17.916
  12.380        297.50	    18.894
  12.400        308.33	    19.235
  12.420        281.67	    18.385
  12.440        190.00	    15.100
  12.460        170.83	    14.318
  12.480        130.83	    12.530
  12.500        144.17	    13.153
  12.520        103.33	    11.136
  12.540         90.83	    10.440
  12.560        116.67	    11.832
  12.580         88.33	    10.296
  12.600         90.83	    10.440
  12.620        106.67	    11.314
  12.640         95.00	    10.677
  12.660         80.00	     9.798
  12.680         76.67	     9.592
  12.700         85.83	    10.149
  12.720         85.83	    10.149
  12.740         92.50	    10.536
  12.760         76.67	     9.592
  12.780         80.83	     9.849
  12.800         80.83	     9.849
  12.820         80.83	     9.849
  12.840         94.17	    10.630
  12.860         81.67	     9.899
  12.880         91.67	    10.488
  12.900         97.50	    10.817
  12.920         78.33	     9.695
  12.940         85.00	    10.100
  12.960         80.83	     9.849
  12.980         80.83	     9.849
  13.000         88.33	    10.296
  13.020         82.50	     9.950
  13.040         67.50	     9.000
  13.060        105.83	    11.269
  13.080         82.50	     9.950
  13.100         95.00	    10.677
  13.120         95.00	    10.677
  13.140         82.50	     9.950
  13.160         80.00	     9.798
  13.180         80.83	     9.849
  13.200         85.83	    10.149
  13.220         85.00	    10.100
  13.240         81.67	     9.899
  13.260         82.50	     9.950
  13.280         74.17	     9.434
  13.300         87.50	    10.247
  13.320         80.83	     9.849
  13.340         92.50	    10.536
  13.360         78.33	     9.695
  13.380         77.50	     9.644
  13.400         68.33	     9.055
  13.420         66.67	     8.944
  13.440         70.83	     9.220
  13.460         77.50	     9.644
  13.480         82.50	     9.950
  13.500         79.17	     9.747
  13.520         96.67	    10.770
  13.540         91.67	    10.488
  13.560         90.00	    10.392
  13.580         85.83	    10.149
  13.600         84.17	    10.050
  13.620         92.50	    10.536
  13.640         97.50	    10.817
  13.660         81.67	     9.899
  13.680        114.17	    11.705
  13.700        129.17	    12.450
  13.720        135.00	    12.728
  13.740        160.00	    13.856
  13.760        173.33	    14.422
  13.780        164.17	    14.036
  13.800        114.17	    11.705
  13.820        116.67	    11.832
  13.840         95.83	    10.724
  13.860        105.00	    11.225
  13.880         88.33	    10.296
  13.900         83.33	    10.000
  13.920         88.33	    10.296
  13.940         80.83	     9.849
  13.960         71.67	     9.274
  13.980         84.17	    10.050
  14.000         60.83	     8.544
  14.020         78.33	     9.695
  14.040         74.17	     9.434
  14.060         81.67	     9.899
  14.080         85.83	    10.149
  14.100         64.17	     8.775
  14.120         81.67	     9.899
  14.140         73.33	     9.381
  14.160         79.17	     9.747
  14.180         60.83	     8.544
  14.200         75.83	     9.539
  14.220         72.50	     9.327
  14.240         90.83	    10.440
  14.260         81.67	     9.899
  14.280         69.17	     9.110
  14.300         82.50	     9.950
  14.320         65.83	     8.888
  14.340         79.17	     9.747
  14.360         61.67	     8.602
  14.380         71.67	     9.274
  14.400         73.33	     9.381
  14.420         76.67	     9.592
  14.440         81.67	     9.899
  14.460         67.50	     9.000
  14.480         63.33	     8.718
  14.500         71.67	     9.274
  14.520         65.00	     8.832
  14.540         82.50	     9.950
  14.560         68.33	     9.055
  14.580         68.33	     9.055
  14.600         65.00	     8.832
  14.620         72.50	     9.327
  14.640         75.83	     9.539
  14.660         75.83	     9.539
  14.680         89.17	    10.344
  14.700         83.33	    10.000
  14.720         56.67	     8.246
  14.740         79.17	     9.747
  14.760         64.17	     8.775
  14.780         82.50	     9.950
  14.800         73.33	     9.381
  14.820         69.17	     9.110
  14.840         68.33	     9.055
  14.860         82.50	     9.950
  14.880         82.50	     9.950
  14.900         86.67	    10.198
  14.920         84.17	    10.050
  14.940         60.83	     8.544
  14.960         75.00	     9.487
  14.980         70.83	     9.220
  15.000         60.83	     8.544
  15.020         79.17	     9.747
  15.040         72.50	     9.327
  15.060         85.00	    10.100
  15.080         72.50	     9.327
  15.100         65.00	     8.832
  15.120         75.00	     9.487
  15.140         77.50	     9.644
  15.160         76.67	     9.592
  15.180         67.50	     9.000
  15.200         60.00	     8.485
  15.220         71.67	     9.274
  15.240         64.17	     8.775
  15.260         70.83	     9.220
  15.280         63.33	     8.718
  15.300         70.00	     9.165
  15.320         62.50	     8.660
  15.340         83.33	    10.000
  15.360         77.50	     9.644
  15.380         82.50	     9.950
  15.400         71.67	     9.274
  15.420         53.33	     8.000
  15.440         75.83	     9.539
  15.460         69.17	     9.110
  15.480         64.17	     8.775
  15.500         51.67	     7.874
  15.520         62.50	     8.660
  15.540         70.00	     9.165
  15.560         66.67	     8.944
  15.580         70.00	     9.165
  15.600         64.17	     8.775
  15.620         78.33	     9.695
  15.640         70.83	     9.220
  15.660         65.83	     8.888
  15.680         68.33	     9.055
  15.700         82.50	     9.950
  15.720         71.67	     9.274
  15.740         64.17	     8.775
  15.760         73.33	     9.381
  15.780         71.67	     9.274
  15.800         67.50	     9.000
  15.820         75.83	     9.539
  15.840         56.67	     8.246
  15.860         67.50	     9.000
  15.880         51.67	     7.874
  15.900         66.67	     8.944
  15.920         65.83	     8.888
  15.940         67.50	     9.000
  15.960         55.00	     8.124
  15.980         60.83	     8.544
  16.000         70.83	     9.220
  16.020         80.83	     9.849
  16.040         67.50	     9.000
  16.060         75.00	     9.487
  16.080         70.83	     9.220
  16.100         60.83	     8.544
  16.120         70.83	     9.220
  16.140         50.00	     7.746
  16.160         55.00	     8.124
  16.180         81.67	     9.899
  16.200         70.00	     9.165
  16.220         70.00	     9.165
  16.240         65.00	     8.832
  16.260         65.00	     8.832
  16.280         63.33	     8.718
  16.300         58.33	     8.367
  16.320         55.00	     8.124
  16.340         73.33	     9.381
  16.360         59.17	     8.426
  16.380         60.00	     8.485
  16.400         75.00	     9.487
  16.420         56.67	     8.246
  16.440         54.17	     8.062
  16.460         59.17	     8.426
  16.480         60.00	     8.485
  16.500         55.83	     8.185
  16.520         44.17	     7.280
  16.540         50.00	     7.746
  16.560         50.83	     7.810
  16.580         54.17	     8.062
  16.600         50.00	     7.746
  16.620         60.83	     8.544
  16.640         52.50	     7.937
  16.660         45.83	     7.416
  16.680         69.17	     9.110
  16.700         69.17	     9.110
  16.720         61.67	     8.602
  16.740         70.00	     9.165
  16.760         78.33	     9.695
  16.780         69.17	     9.110
  16.800         75.83	     9.539
  16.820         51.67	     7.874
  16.840         68.33	     9.055
  16.860         63.33	     8.718
  16.880         59.17	     8.426
  16.900         64.17	     8.775
  16.920         60.00	     8.485
  16.940         61.67	     8.602
  16.960         58.33	     8.367
  16.980         47.50	     7.550
  17.000         58.33	     8.367
  17.020         53.33	     8.000
  17.040         55.83	     8.185
  17.060         61.67	     8.602
  17.080         60.00	     8.485
  17.100         51.67	     7.874
  17.120         68.33	     9.055
  17.140         60.00	     8.485
  17.160         47.50	     7.550
  17.180         63.33	     8.718
  17.200         67.50	     9.000
  17.220         59.17	     8.426
  17.240         70.00	     9.165
  17.260         69.17	     9.110
  17.280         64.17	     8.775
  17.300         78.33	     9.695
  17.320         64.17	     8.775
  17.340         75.83	     9.539
  17.360         65.83	     8.888
  17.380         71.67	     9.274
  17.400         58.33	     8.367
  17.420         61.67	     8.602
  17.440         64.17	     8.775
  17.460         71.67	     9.274
  17.480         85.83	    10.149
  17.500         75.83	     9.539
  17.520         67.50	     9.000
  17.540         75.00	     9.487
  17.560         71.67	     9.274
  17.580         81.67	     9.899
  17.600         79.17	     9.747
  17.620         89.17	    10.344
  17.640        112.50	    11.619
  17.660        150.00	    13.416
  17.680        205.83	    15.716
  17.700        230.00	    16.613
  17.720        225.83	    16.462
  17.740        224.17	    16.401
  17.760        180.83	    14.731
  17.780        115.83	    11.790
  17.800        101.67	    11.045
  17.820         85.00	    10.100
  17.840         65.83	     8.888
  17.860         69.17	     9.110
  17.880         61.67	     8.602
  17.900         67.50	     9.000
  17.920         66.67	     8.944
  17.940         69.17	     9.110
  17.960         66.67	     8.944
  17.980         67.50	     9.000
  18.000         65.00	     8.832
  18.020         72.50	     9.327
  18.040         75.00	     9.487
  18.060         58.33	     8.367
  18.080         55.00	     8.124
  18.100         49.17	     7.681
  18.120         60.00	     8.485
  18.140         63.33	     8.718
  18.160         59.17	     8.426
  18.180         77.50	     9.644
  18.200         83.33	    10.000
  18.220         77.50	     9.644
  18.240         64.17	     8.775
  18.260         75.83	     9.539
  18.280         75.00	     9.487
  18.300         94.17	    10.630
  18.320         82.50	     9.950
  18.340         83.33	    10.000
  18.360         79.17	     9.747
  18.380         67.50	     9.000
  18.400         90.00	    10.392
  18.420         95.83	    10.724
  18.440        119.17	    11.958
  18.460        110.00	    11.489
  18.480         93.33	    10.583
  18.500         94.17	    10.630
  18.520         89.17	    10.344
  18.540         82.50	     9.950
  18.560         60.00	     8.485
  18.580         82.50	     9.950
  18.600         82.50	     9.950
  18.620         96.67	    10.770
  18.640         97.50	    10.817
  18.660        132.50	    12.610
  18.680        150.00	    13.416
  18.700        130.83	    12.530
  18.720        124.17	    12.207
  18.740         95.83	    10.724
  18.760         91.67	    10.488
  18.780         60.83	     8.544
  18.800         68.33	     9.055
  18.820         68.33	     9.055
  18.840         80.83	     9.849
  18.860         65.83	     8.888
  18.880         79.17	     9.747
  18.900         75.00	     9.487
  18.920         78.33	     9.695
  18.940         77.50	     9.644
  18.960         66.67	     8.944
  18.980         58.33	     8.367
  19.000         70.83	     9.220
  19.020         63.33	     8.718
  19.040         58.33	     8.367
  19.060         73.33	     9.381
  19.080         74.17	     9.434
  19.100         57.50	     8.307
  19.120         61.67	     8.602
  19.140         56.67	     8.246
  19.160         74.17	     9.434
  19.180         60.00	     8.485
  19.200         66.67	     8.944
  19.220         65.83	     8.888
  19.240         78.33	     9.695
  19.260         72.50	     9.327
  19.280         57.50	     8.307
  19.300         53.33	     8.000
  19.320         66.67	     8.944
  19.340         74.17	     9.434
  19.360         75.00	     9.487
  19.380         56.67	     8.246
  19.400         61.67	     8.602
  19.420         80.00	     9.798
  19.440         62.50	     8.660
  19.460         65.00	     8.832
  19.480         58.33	     8.367
  19.500         69.17	     9.110
  19.520         60.00	     8.485
  19.540         75.83	     9.539
  19.560         80.00	     9.798
  19.580         75.00	     9.487
  19.600         70.83	     9.220
  19.620         93.33	    10.583
  19.640         70.83	     9.220
  19.660         70.83	     9.220
  19.680         80.83	     9.849
  19.700         87.50	    10.247
  19.720         90.00	    10.392
  19.740         94.17	    10.630
  19.760         87.50	    10.247
  19.780         95.00	    10.677
  19.800         90.00	    10.392
  19.820         86.67	    10.198
  19.840         94.17	    10.630
  19.860         65.83	     8.888
  19.880         87.50	    10.247
  19.900         86.67	    10.198
  19.920         55.00	     8.124
  19.940         65.83	     8.888
  19.960         57.50	     8.307
  19.980         70.83	     9.220
  20.000         56.67	     8.246
  20.020         61.67	     8.602
  20.040         65.83	     8.888
  20.060         52.50	     7.937
  20.080         60.83	     8.544
  20.100         70.83	     9.220
  20.120         69.17	     9.110
  20.140         69.17	     9.110
  20.160         60.00	     8.485
  20.180         65.00	     8.832
  20.200         41.67	     7.071
  20.220         59.17	     8.426
  20.240         60.00	     8.485
  20.260         54.17	     8.062
  20.280         72.50	     9.327
  20.300         75.83	     9.539
  20.320         54.17	     8.062
  20.340         65.83	     8.888
  20.360         57.50	     8.307
  20.380         62.50	     8.660
  20.400         65.83	     8.888
  20.420         72.50	     9.327
  20.440         57.50	     8.307
  20.460         67.50	     9.000
  20.480         70.83	     9.220
  20.500         68.33	     9.055
  20.520         68.33	     9.055
  20.540         76.67	     9.592
  20.560         61.67	     8.602
  20.580         83.33	    10.000
  20.600         80.00	     9.798
  20.620         91.67	    10.488
  20.640        107.50	    11.358
  20.660        123.33	    12.166
  20.680        175.83	    14.526
  20.700        241.67	    17.029
  20.720        396.67	    21.817
  20.740        553.33	    25.768
  20.760        565.00	    26.038
  20.780        451.67	    23.281
  20.800        342.50	    20.273
  20.820        256.67	    17.550
  20.840        155.00	    13.638
  20.860        107.50	    11.358
  20.880        100.00	    10.954
  20.900         93.33	    10.583
  20.920        115.83	    11.790
  20.940         87.50	    10.247
  20.960        101.67	    11.045
  20.980         72.50	     9.327
  21.000         61.67	     8.602
  21.020         70.00	     9.165
  21.040         81.67	     9.899
  21.060         74.17	     9.434
  21.080         63.33	     8.718
  21.100         72.50	     9.327
  21.120         73.33	     9.381
  21.140         72.50	     9.327
  21.160         51.67	     7.874
  21.180         55.00	     8.124
  21.200         60.83	     8.544
  21.220         70.83	     9.220
  21.240         59.17	     8.426
  21.260         46.67	     7.483
  21.280         60.00	     8.485
  21.300         59.17	     8.426
  21.320         57.50	     8.307
  21.340         64.17	     8.775
  21.360         46.67	     7.483
  21.380         54.17	     8.062
  21.400         52.50	     7.937
  21.420         54.17	     8.062
  21.440         69.17	     9.110
  21.460         66.67	     8.944
  21.480         50.83	     7.810
  21.500         77.50	     9.644
  21.520         67.50	     9.000
  21.540         58.33	     8.367
  21.560         63.33	     8.718
  21.580         53.33	     8.000
  21.600         53.33	     8.000
  21.620         55.00	     8.124
  21.640         60.00	     8.485
  21.660         59.17	     8.426
  21.680         49.17	     7.681
  21.700         68.33	     9.055
  21.720         55.83	     8.185
  21.740         59.17	     8.426
  21.760         60.83	     8.544
  21.780         69.17	     9.110
  21.800         70.00	     9.165
  21.820         85.00	    10.100
  21.840         75.00	     9.487
  21.860         95.83	    10.724
  21.880        138.33	    12.884
  21.900        185.83	    14.933
  21.920        315.83	    19.468
  21.940        736.67	    29.732
  21.960        844.17	    31.828
  21.980        636.67	    27.641
  22.000        494.17	    24.352
  22.020        395.00	    21.772
  22.040        264.17	    17.804
  22.060        129.17	    12.450
  22.080        103.33	    11.136
  22.100        105.83	    11.269
  22.120         76.67	     9.592
  22.140         71.67	     9.274
  22.160         72.50	     9.327
  22.180         63.33	     8.718
  22.200         66.67	     8.944
  22.220         68.33	     9.055
  22.240         68.33	     9.055
  22.260         89.17	    10.344
  22.280         67.50	     9.000
  22.300         65.00	     8.832
  22.320         54.17	     8.062
  22.340         66.67	     8.944
  22.360         80.00	     9.798
  22.380         77.50	     9.644
  22.400         78.33	     9.695
  22.420         89.17	    10.344
  22.440         90.00	    10.392
  22.460         75.83	     9.539
  22.480         80.00	     9.798
  22.500         62.50	     8.660
  22.520         72.50	     9.327
  22.540         60.83	     8.544
  22.560         62.50	     8.660
  22.580         52.50	     7.937
  22.600         54.17	     8.062
  22.620         70.83	     9.220
  22.640         67.50	     9.000
  22.660         75.83	     9.539
  22.680         72.50	     9.327
  22.700         70.83	     9.220
  22.720        125.83	    12.288
  22.740        139.17	    12.923
  22.760        105.83	    11.269
  22.780        118.33	    11.916
  22.800        131.67	    12.570
  22.820         97.50	    10.817
  22.840        122.50	    12.124
  22.860        105.00	    11.225
  22.880        156.67	    13.711
  22.900        135.00	    12.728
  22.920        143.33	    13.115
  22.940        155.83	    13.675
  22.960        119.17	    11.958
  22.980        120.83	    12.042
  23.000         88.33	    10.296
  23.020         72.50	     9.327
  23.040         67.50	     9.000
  23.060         59.17	     8.426
  23.080         68.33	     9.055
  23.100         53.33	     8.000
  23.120         66.67	     8.944
  23.140         64.17	     8.775
  23.160         63.33	     8.718
  23.180         65.00	     8.832
  23.200         71.67	     9.274
  23.220         66.67	     8.944
  23.240         67.50	     9.000
  23.260         63.33	     8.718
  23.280         63.33	     8.718
  23.300         50.00	     7.746
  23.320         60.00	     8.485
  23.340         80.00	     9.798
  23.360         90.83	    10.440
  23.380        113.33	    11.662
  23.400        161.67	    13.928
  23.420        211.67	    15.937
  23.440        190.00	    15.100
  23.460        164.17	    14.036
  23.480        165.00	    14.071
  23.500        136.67	    12.806
  23.520        115.00	    11.747
  23.540        118.33	    11.916
  23.560         80.00	     9.798
  23.580         90.00	    10.392
  23.600         80.83	     9.849
  23.620         90.00	    10.392
  23.640         83.33	    10.000
  23.660         91.67	    10.488
  23.680         94.17	    10.630
  23.700         87.50	    10.247
  23.720         87.50	    10.247
  23.740         80.00	     9.798
  23.760         80.83	     9.849
  23.780         77.50	     9.644
  23.800         71.67	     9.274
  23.820         75.00	     9.487
  23.840         72.50	     9.327
  23.860         80.83	     9.849
  23.880         60.83	     8.544
  23.900         91.67	    10.488
  23.920         70.83	     9.220
  23.940         90.83	    10.440
  23.960         87.50	    10.247
  23.980         79.17	     9.747
  24.000         80.83	     9.849
  24.020         90.00	    10.392
  24.040        102.50	    11.091
  24.060        121.67	    12.083
  24.080        137.50	    12.845
  24.100        140.00	    12.961
  24.120        152.50	    13.528
  24.140        155.83	    13.675
  24.160        182.50	    14.799
  24.180        177.50	    14.595
  24.200        175.83	    14.526
  24.220        168.33	    14.213
  24.240        135.00	    12.728
  24.260        127.50	    12.369
  24.280         96.67	    10.770
  24.300         77.50	     9.644
  24.320        100.83	    11.000
  24.340         90.00	    10.392
  24.360        107.50	    11.358
  24.380         98.33	    10.863
  24.400        176.67	    14.560
  24.420        202.50	    15.588
  24.440        287.50	    18.574
  24.460        375.83	    21.237
  24.480        374.17	    21.190
  24.500        470.00	    23.749
  24.520        521.67	    25.020
  24.540        447.50	    23.173
  24.560        347.50	    20.421
  24.580        306.67	    19.183
  24.600        266.67	    17.889
  24.620        206.67	    15.748
  24.640        164.17	    14.036
  24.660        136.67	    12.806
  24.680        135.83	    12.767
  24.700        137.50	    12.845
  24.720        141.67	    13.038
  24.740        119.17	    11.958
  24.760        122.50	    12.124
  24.780        103.33	    11.136
  24.800         90.00	    10.392
  24.820        115.00	    11.747
  24.840        100.00	    10.954
  24.860        100.83	    11.000
  24.880         98.33	    10.863
  24.900        110.83	    11.533
  24.920         92.50	    10.536
  24.940        102.50	    11.091
  24.960        117.50	    11.874
  24.980        125.00	    12.247
  25.000        170.00	    14.283
  25.020        193.33	    15.232
  25.040        219.17	    16.217
  25.060        195.00	    15.297
  25.080        166.67	    14.142
  25.100        189.17	    15.067
  25.120        149.17	    13.379
  25.140        121.67	    12.083
  25.160        113.33	    11.662
  25.180         80.00	     9.798
  25.200         85.00	    10.100
  25.220         93.33	    10.583
  25.240         94.17	    10.630
  25.260        100.83	    11.000
  25.280        117.50	    11.874
  25.300        112.50	    11.619
  25.320        120.00	    12.000
  25.340        112.50	    11.619
  25.360        134.17	    12.689
  25.380        140.00	    12.961
  25.400        158.33	    13.784
  25.420        144.17	    13.153
  25.440        125.83	    12.288
  25.460        125.83	    12.288
  25.480        124.17	    12.207
  25.500        135.83	    12.767
  25.520        132.50	    12.610
  25.540        124.17	    12.207
  25.560        108.33	    11.402
  25.580        107.50	    11.358
  25.600        101.67	    11.045
  25.620         75.00	     9.487
  25.640         65.83	     8.888
  25.660         90.00	    10.392
  25.680         70.00	     9.165
  25.700         77.50	     9.644
  25.720         68.33	     9.055
  25.740         57.50	     8.307
  25.760         64.17	     8.775
  25.780         79.17	     9.747
  25.800         65.00	     8.832
  25.820         66.67	     8.944
  25.840         65.83	     8.888
  25.860         68.33	     9.055
  25.880         62.50	     8.660
  25.900         73.33	     9.381
  25.920         65.83	     8.888
  25.940         57.50	     8.307
  25.960         74.17	     9.434
  25.980         70.83	     9.220
  26.000         68.33	     9.055
  26.020         71.67	     9.274
  26.040         65.83	     8.888
  26.060         70.00	     9.165
  26.080         70.83	     9.220
  26.100         83.33	    10.000
  26.120         75.83	     9.539
  26.140         99.17	    10.909
  26.160         97.50	    10.817
  26.180         79.17	     9.747
  26.200         83.33	    10.000
  26.220        119.17	    11.958
  26.240        116.67	    11.832
  26.260        135.83	    12.767
  26.280        144.17	    13.153
  26.300        150.00	    13.416
  26.320        158.33	    13.784
  26.340        167.50	    14.177
  26.360        211.67	    15.937
  26.380        197.50	    15.395
  26.400        224.17	    16.401
  26.420        256.67	    17.550
  26.440        338.33	    20.149
  26.460        463.33	    23.580
  26.480        896.67	    32.802
  26.500       1845.00	    47.053
  26.520       3405.00	    63.922
  26.540       3489.17	    64.707
  26.560       2204.17	    51.430
  26.580       2006.67	    49.071
  26.600       2019.17	    49.224
  26.620       1438.33	    41.545
  26.640        714.17	    29.275
  26.660        410.83	    22.204
  26.680        394.17	    21.749
  26.700        459.17	    23.473
  26.720        478.33	    23.958
  26.740        529.17	    25.199
  26.760        589.17	    26.589
  26.780        603.33	    26.907
  26.800        526.67	    25.140
  26.820        445.00	    23.108
  26.840        351.67	    20.543
  26.860        304.17	    19.105
  26.880        205.00	    15.684
  26.900        162.50	    13.964
  26.920        155.00	    13.638
  26.940        134.17	    12.689
  26.960        169.17	    14.248
  26.980        164.17	    14.036
  27.000        153.33	    13.565
  27.020        125.00	    12.247
  27.040        135.00	    12.728
  27.060        135.00	    12.728
  27.080        110.83	    11.533
  27.100         98.33	    10.863
  27.120         92.50	    10.536
  27.140         97.50	    10.817
  27.160         92.50	    10.536
  27.180         72.50	     9.327
  27.200         87.50	    10.247
  27.220         88.33	    10.296
  27.240         70.83	     9.220
  27.260         77.50	     9.644
  27.280        108.33	    11.402
  27.300        145.83	    13.229
  27.320        188.33	    15.033
  27.340        255.00	    17.493
  27.360        264.17	    17.804
  27.380        288.33	    18.601
  27.400        271.67	    18.055
  27.420        274.17	    18.138
  27.440        259.17	    17.635
  27.460        180.83	    14.731
  27.480        165.00	    14.071
  27.500        140.00	    12.961
  27.520        106.67	    11.314
  27.540        107.50	    11.358
  27.560        139.17	    12.923
  27.580        163.33	    14.000
  27.600        216.67	    16.125
  27.620        260.83	    17.692
  27.640        248.33	    17.263
  27.660        246.67	    17.205
  27.680        279.17	    18.303
  27.700        284.17	    18.466
  27.720        331.67	    19.950
  27.740        397.50	    21.840
  27.760        530.00	    25.219
  27.780        678.33	    28.531
  27.800        750.83	    30.017
  27.820        602.50	    26.889
  27.840        503.33	    24.576
  27.860        511.67	    24.779
  27.880        449.17	    23.216
  27.900        243.33	    17.088
  27.920        195.00	    15.297
  27.940        187.50	    15.000
  27.960        195.83	    15.330
  27.980        219.17	    16.217
  28.000        187.50	    15.000
  28.020        178.33	    14.629
  28.040        160.83	    13.892
  28.060        162.50	    13.964
  28.080        146.67	    13.266
  28.100        128.33	    12.410
  28.120        106.67	    11.314
  28.140        104.17	    11.180
  28.160        106.67	    11.314
  28.180        154.17	    13.601
  28.200        130.83	    12.530
  28.220        125.00	    12.247
  28.240        105.83	    11.269
  28.260         97.50	    10.817
  28.280        108.33	    11.402
  28.300         80.83	     9.849
  28.320         82.50	     9.950
  28.340         69.17	     9.110
  28.360         71.67	     9.274
  28.380         97.50	    10.817
  28.400         85.00	    10.100
  28.420        105.83	    11.269
  28.440        112.50	    11.619
  28.460        115.00	    11.747
  28.480        137.50	    12.845
  28.500        125.00	    12.247
  28.520        119.17	    11.958
  28.540        108.33	    11.402
  28.560        133.33	    12.649
  28.580        147.50	    13.304
  28.600        143.33	    13.115
  28.620        160.00	    13.856
  28.640        147.50	    13.304
  28.660        126.67	    12.329
  28.680        106.67	    11.314
  28.700        109.17	    11.446
  28.720         84.17	    10.050
  28.740         72.50	     9.327
  28.760         62.50	     8.660
  28.780         55.00	     8.124
  28.800         62.50	     8.660
  28.820         61.67	     8.602
  28.840         56.67	     8.246
  28.860         48.33	     7.616
  28.880         53.33	     8.000
  28.900         59.17	     8.426
  28.920         52.50	     7.937
  28.940         47.50	     7.550
  28.960         45.83	     7.416
  28.980         55.00	     8.124
  29.000         68.33	     9.055
  29.020         52.50	     7.937
  29.040         58.33	     8.367
  29.060         56.67	     8.246
  29.080         60.83	     8.544
  29.100         48.33	     7.616
  29.120         45.83	     7.416
  29.140         45.83	     7.416
  29.160         48.33	     7.616
  29.180         48.33	     7.616
  29.200         50.00	     7.746
  29.220         56.67	     8.246
  29.240         48.33	     7.616
  29.260         50.83	     7.810
  29.280         56.67	     8.246
  29.300         55.83	     8.185
  29.320         46.67	     7.483
  29.340         48.33	     7.616
  29.360         57.50	     8.307
  29.380         56.67	     8.246
  29.400         40.00	     6.928
  29.420         62.50	     8.660
  29.440         60.00	     8.485
  29.460         63.33	     8.718
  29.480         56.67	     8.246
  29.500         60.83	     8.544
  29.520         61.67	     8.602
  29.540         62.50	     8.660
  29.560         60.00	     8.485
  29.580         74.17	     9.434
  29.600         68.33	     9.055
  29.620         66.67	     8.944
  29.640         80.83	     9.849
  29.660         78.33	     9.695
  29.680         83.33	    10.000
  29.700        110.00	    11.489
  29.720         90.00	    10.392
  29.740        110.00	    11.489
  29.760        117.50	    11.874
  29.780        107.50	    11.358
  29.800         99.17	    10.909
  29.820        100.83	    11.000
  29.840         87.50	    10.247
  29.860         95.00	    10.677
  29.880         91.67	    10.488
  29.900         87.50	    10.247
  29.920         90.00	    10.392
  29.940         86.67	    10.198
  29.960         95.00	    10.677
  29.980        100.83	    11.000
  30.000         94.17	    10.630
  30.020         99.17	    10.909
  30.040         90.83	    10.440
  30.060         90.83	    10.440
  30.080        102.50	    11.091
  30.100        100.83	    11.000
  30.120         91.67	    10.488
  30.140         94.17	    10.630
  30.160         77.50	     9.644
  30.180         85.00	    10.100
  30.200         75.00	     9.487
  30.220        110.00	    11.489
  30.240         84.17	    10.050
  30.260         74.17	     9.434
  30.280         69.17	     9.110
  30.300         75.00	     9.487
  30.320         76.67	     9.592
  30.340         99.17	    10.909
  30.360         95.83	    10.724
  30.380        104.17	    11.180
  30.400         93.33	    10.583
  30.420         86.67	    10.198
  30.440         87.50	    10.247
  30.460         83.33	    10.000
  30.480         70.00	     9.165
  30.500         85.00	    10.100
  30.520         47.50	     7.550
  30.540         54.17	     8.062
  30.560         56.67	     8.246
  30.580         92.50	    10.536
  30.600         75.83	     9.539
  30.620         67.50	     9.000
  30.640         90.00	    10.392
  30.660        130.83	    12.530
  30.680        157.50	    13.748
  30.700        190.00	    15.100
  30.720        165.83	    14.107
  30.740        136.67	    12.806
  30.760        135.83	    12.767
  30.780        143.33	    13.115
  30.800        115.00	    11.747
  30.820         97.50	    10.817
  30.840         91.67	    10.488
  30.860         70.00	     9.165
  30.880         66.67	     8.944
  30.900         81.67	     9.899
  30.920         65.00	     8.832
  30.940         85.00	    10.100
  30.960         74.17	     9.434
  30.980         65.83	     8.888
  31.000         50.83	     7.810
  31.020         56.67	     8.246
  31.040         67.50	     9.000
  31.060         80.00	     9.798
  31.080        101.67	    11.045
  31.100        110.83	    11.533
  31.120        115.00	    11.747
  31.140        112.50	    11.619
  31.160         86.67	    10.198
  31.180         93.33	    10.583
  31.200         93.33	    10.583
  31.220         81.67	     9.899
  31.240         77.50	     9.644
  31.260         65.00	     8.832
  31.280         64.17	     8.775
  31.300         58.33	     8.367
  31.320         64.17	     8.775
  31.340         62.50	     8.660
  31.360         56.67	     8.246
  31.380         59.17	     8.426
  31.400         55.00	     8.124
  31.420         51.67	     7.874
  31.440         70.83	     9.220
  31.460         76.67	     9.592
  31.480         74.17	     9.434
  31.500         70.00	     9.165
  31.520         71.67	     9.274
  31.540         56.67	     8.246
  31.560         52.50	     7.937
  31.580         68.33	     9.055
  31.600         54.17	     8.062
  31.620         42.50	     7.141
  31.640         50.00	     7.746
  31.660         55.00	     8.124
  31.680         56.67	     8.246
  31.700         55.00	     8.124
  31.720         64.17	     8.775
  31.740         71.67	     9.274
  31.760         92.50	    10.536
  31.780         70.00	     9.165
  31.800         80.00	     9.798
  31.820         70.83	     9.220
  31.840         81.67	     9.899
  31.860         66.67	     8.944
  31.880         64.17	     8.775
  31.900         69.17	     9.110
  31.920         70.00	     9.165
  31.940         80.83	     9.849
  31.960         90.83	    10.440
  31.980         60.83	     8.544
  32.000         69.17	     9.110
  32.020         66.67	     8.944
  32.040         62.50	     8.660
  32.060         60.83	     8.544
  32.080         60.83	     8.544
  32.100         55.83	     8.185
  32.120         74.17	     9.434
  32.140         71.67	     9.274
  32.160         83.33	    10.000
  32.180         61.67	     8.602
  32.200         77.50	     9.644
  32.220         91.67	    10.488
  32.240         68.33	     9.055
  32.260         65.83	     8.888
  32.280         64.17	     8.775
  32.300         55.83	     8.185
  32.320         54.17	     8.062
  32.340         48.33	     7.616
  32.360         48.33	     7.616
  32.380         57.50	     8.307
  32.400         54.17	     8.062
  32.420         48.33	     7.616
  32.440         32.50	     6.245
  32.460         41.67	     7.071
  32.480         49.17	     7.681
  32.500         44.17	     7.280
  32.520         36.67	     6.633
  32.540         45.00	     7.348
  32.560         38.33	     6.782
  32.580         53.33	     8.000
  32.600         50.00	     7.746
  32.620         38.33	     6.782
  32.640         58.33	     8.367
  32.660         74.17	     9.434
  32.680         55.00	     8.124
  32.700         57.50	     8.307
  32.720         55.00	     8.124
  32.740         53.33	     8.000
  32.760         46.67	     7.483
  32.780         45.00	     7.348
  32.800         51.67	     7.874
  32.820         42.50	     7.141
  32.840         36.67	     6.633
  32.860         45.00	     7.348
  32.880         47.50	     7.550
  32.900         68.33	     9.055
  32.920         63.33	     8.718
  32.940         59.17	     8.426
  32.960         47.50	     7.550
  32.980         45.00	     7.348
  33.000         50.83	     7.810
  33.020         60.00	     8.485
  33.040         45.83	     7.416
  33.060         46.67	     7.483
  33.080         45.83	     7.416
  33.100         43.33	     7.211
  33.120         42.50	     7.141
  33.140         48.33	     7.616
  33.160         41.67	     7.071
  33.180         33.33	     6.325
  33.200         55.00	     8.124
  33.220         52.50	     7.937
  33.240         49.17	     7.681
  33.260         56.67	     8.246
  33.280         52.50	     7.937
  33.300         55.00	     8.124
  33.320         40.00	     6.928
  33.340         49.17	     7.681
  33.360         57.50	     8.307
  33.380         50.83	     7.810
  33.400         39.17	     6.856
  33.420         43.33	     7.211
  33.440         47.50	     7.550
  33.460         41.67	     7.071
  33.480         40.83	     7.000
  33.500         47.50	     7.550
  33.520         48.33	     7.616
  33.540         51.67	     7.874
  33.560         38.33	     6.782
  33.580         45.83	     7.416
  33.600         45.83	     7.416
  33.620         43.33	     7.211
  33.640         38.33	     6.782
  33.660         50.00	     7.746
  33.680         47.50	     7.550
  33.700         42.50	     7.141
  33.720         50.83	     7.810
  33.740         42.50	     7.141
  33.760         46.67	     7.483
  33.780         64.17	     8.775
  33.800         53.33	     8.000
  33.820         54.17	     8.062
  33.840         54.17	     8.062
  33.860         53.33	     8.000
  33.880         62.50	     8.660
  33.900         60.00	     8.485
  33.920         54.17	     8.062
  33.940         63.33	     8.718
  33.960         53.33	     8.000
  33.980         56.67	     8.246
  34.000         47.50	     7.550
  34.020         58.33	     8.367
  34.040         56.67	     8.246
  34.060         64.17	     8.775
  34.080         56.67	     8.246
  34.100         50.83	     7.810
  34.120         52.50	     7.937
  34.140         62.50	     8.660
  34.160         57.50	     8.307
  34.180         55.00	     8.124
  34.200         45.83	     7.416
  34.220         60.83	     8.544
  34.240         65.00	     8.832
  34.260         53.33	     8.000
  34.280         52.50	     7.937
  34.300         58.33	     8.367
  34.320         75.00	     9.487
  34.340         69.17	     9.110
  34.360         87.50	    10.247
  34.380         94.17	    10.630
  34.400         81.67	     9.899
  34.420         90.83	    10.440
  34.440        111.67	    11.576
  34.460        100.83	    11.000
  34.480         87.50	    10.247
  34.500         83.33	    10.000
  34.520         81.67	     9.899
  34.540         84.17	    10.050
  34.560         71.67	     9.274
  34.580         75.00	     9.487
  34.600         75.00	     9.487
  34.620         73.33	     9.381
  34.640         68.33	     9.055
  34.660         66.67	     8.944
  34.680         76.67	     9.592
  34.700         80.83	     9.849
  34.720         73.33	     9.381
  34.740        111.67	    11.576
  34.760         77.50	     9.644
  34.780         63.33	     8.718
  34.800        109.17	    11.446
  34.820        101.67	    11.045
  34.840         88.33	    10.296
  34.860         82.50	     9.950
  34.880        100.83	    11.000
  34.900        110.83	    11.533
  34.920         96.67	    10.770
  34.940         82.50	     9.950
  34.960         89.17	    10.344
  34.980        100.00	    10.954
  35.000        100.00	    10.954
  35.020         82.50	     9.950
  35.040         76.67	     9.592
  35.060         68.33	     9.055
  35.080         90.83	    10.440
  35.100         64.17	     8.775
  35.120         75.83	     9.539
  35.140         62.50	     8.660
  35.160         77.50	     9.644
  35.180         75.00	     9.487
  35.200         85.00	    10.100
  35.220         67.50	     9.000
  35.240         77.50	     9.644
  35.260         68.33	     9.055
  35.280         81.67	     9.899
  35.300         74.17	     9.434
  35.320         74.17	     9.434
  35.340         86.67	    10.198
  35.360         91.67	    10.488
  35.380        107.50	    11.358
  35.400        119.17	    11.958
  35.420        131.67	    12.570
  35.440        145.83	    13.229
  35.460        141.67	    13.038
  35.480        114.17	    11.705
  35.500        106.67	    11.314
  35.520        137.50	    12.845
  35.540        105.00	    11.225
  35.560         91.67	    10.488
  35.580         75.83	     9.539
  35.600         76.67	     9.592
  35.620         80.83	     9.849
  35.640         80.83	     9.849
  35.660         65.83	     8.888
  35.680         74.17	     9.434
  35.700         72.50	     9.327
  35.720         75.83	     9.539
  35.740         62.50	     8.660
  35.760         64.17	     8.775
  35.780         63.33	     8.718
  35.800         60.83	     8.544
  35.820         55.00	     8.124
  35.840         56.67	     8.246
  35.860         54.17	     8.062
  35.880         55.00	     8.124
  35.900         67.50	     9.000
  35.920         75.00	     9.487
  35.940         75.83	     9.539
  35.960         74.17	     9.434
  35.980         63.33	     8.718
  36.000         74.17	     9.434
  36.020         69.17	     9.110
  36.040         75.83	     9.539
  36.060         62.50	     8.660
  36.080         56.67	     8.246
  36.100         72.50	     9.327
  36.120         58.33	     8.367
  36.140         61.67	     8.602
  36.160         55.83	     8.185
  36.180         45.83	     7.416
  36.200         55.00	     8.124
  36.220         48.33	     7.616
  36.240         55.83	     8.185
  36.260         48.33	     7.616
  36.280         62.50	     8.660
  36.300         62.50	     8.660
  36.320         64.17	     8.775
  36.340         89.17	    10.344
  36.360         89.17	    10.344
  36.380        120.83	    12.042
  36.400        152.50	    13.528
  36.420        235.83	    16.823
  36.440        238.33	    16.912
  36.460        200.00	    15.492
  36.480        140.00	    12.961
  36.500        139.17	    12.923
  36.520        156.67	    13.711
  36.540        136.67	    12.806
  36.560         98.33	    10.863
  36.580         85.00	    10.100
  36.600         81.67	     9.899
  36.620         81.67	     9.899
  36.640         81.67	     9.899
  36.660         89.17	    10.344
  36.680         71.67	     9.274
  36.700         70.83	     9.220
  36.720         60.83	     8.544
  36.740         60.83	     8.544
  36.760         65.00	     8.832
  36.780         67.50	     9.000
  36.800         50.83	     7.810
  36.820         53.33	     8.000
  36.840         82.50	     9.950
  36.860         85.83	    10.149
  36.880        114.17	    11.705
  36.900         68.33	     9.055
  36.920         69.17	     9.110
  36.940         63.33	     8.718
  36.960         79.17	     9.747
  36.980         91.67	    10.488
  37.000         71.67	     9.274
  37.020         70.00	     9.165
  37.040         63.33	     8.718
  37.060         61.67	     8.602
  37.080         63.33	     8.718
  37.100         67.50	     9.000
  37.120         60.83	     8.544
  37.140         81.67	     9.899
  37.160         73.33	     9.381
  37.180         53.33	     8.000
  37.200         64.17	     8.775
  37.220         58.33	     8.367
  37.240         60.83	     8.544
  37.260         70.00	     9.165
  37.280         70.00	     9.165
  37.300         81.67	     9.899
  37.320         58.33	     8.367
  37.340         79.17	     9.747
  37.360         75.83	     9.539
  37.380         77.50	     9.644
  37.400         63.33	     8.718
  37.420         71.67	     9.274
  37.440         64.17	     8.775
  37.460         58.33	     8.367
  37.480         79.17	     9.747
  37.500         76.67	     9.592
  37.520         63.33	     8.718
  37.540        102.50	    11.091
  37.560         76.67	     9.592
  37.580         96.67	    10.770
  37.600         82.50	     9.950
  37.620         88.33	    10.296
  37.640         83.33	    10.000
  37.660        101.67	    11.045
  37.680         82.50	     9.950
  37.700         55.00	     8.124
  37.720         74.17	     9.434
  37.740         75.83	     9.539
  37.760         60.83	     8.544
  37.780         55.00	     8.124
  37.800         57.50	     8.307
  37.820         60.00	     8.485
  37.840         50.00	     7.746
  37.860         53.33	     8.000
  37.880         53.33	     8.000
  37.900         45.83	     7.416
  37.920         47.50	     7.550
  37.940         45.83	     7.416
  37.960         51.67	     7.874
  37.980         41.67	     7.071
  38.000         39.17	     6.856
  38.020         32.50	     6.245
  38.040         39.17	     6.856
  38.060         54.17	     8.062
  38.080         39.17	     6.856
  38.100         45.83	     7.416
  38.120         47.50	     7.550
  38.140         31.67	     6.164
  38.160         31.67	     6.164
  38.180         38.33	     6.782
  38.200         47.50	     7.550
  38.220         30.00	     6.000
  38.240         38.33	     6.782
  38.260         42.50	     7.141
  38.280         33.33	     6.325
  38.300         39.17	     6.856
  38.320         39.17	     6.856
  38.340         37.50	     6.708
  38.360         48.33	     7.616
  38.380         47.50	     7.550
  38.400         50.00	     7.746
  38.420         42.50	     7.141
  38.440         53.33	     8.000
  38.460         40.83	     7.000
  38.480         56.67	     8.246
  38.500         65.83	     8.888
  38.520         75.00	     9.487
  38.540         70.00	     9.165
  38.560         67.50	     9.000
  38.580         56.67	     8.246
  38.600         64.17	     8.775
  38.620         64.17	     8.775
  38.640         65.00	     8.832
  38.660         51.67	     7.874
  38.680         62.50	     8.660
  38.700         75.00	     9.487
  38.720         58.33	     8.367
  38.740         58.33	     8.367
  38.760         50.00	     7.746
  38.780         59.17	     8.426
  38.800         57.50	     8.307
  38.820         45.83	     7.416
  38.840         50.00	     7.746
  38.860         42.50	     7.141
  38.880         38.33	     6.782
  38.900         40.83	     7.000
  38.920         55.83	     8.185
  38.940         43.33	     7.211
  38.960         39.17	     6.856
  38.980         51.67	     7.874
  39.000         37.50	     6.708
  39.020         46.67	     7.483
  39.040         35.00	     6.481
  39.060         47.50	     7.550
  39.080         54.17	     8.062
  39.100         50.83	     7.810
  39.120         46.67	     7.483
  39.140         60.00	     8.485
  39.160         65.83	     8.888
  39.180         57.50	     8.307
  39.200         57.50	     8.307
  39.220         55.83	     8.185
  39.240         60.83	     8.544
  39.260         69.17	     9.110
  39.280         88.33	    10.296
  39.300         97.50	    10.817
  39.320        181.67	    14.765
  39.340        314.17	    19.416
  39.360        402.50	    21.977
  39.380        427.50	    22.650
  39.400        286.67	    18.547
  39.420        169.17	    14.248
  39.440        203.33	    15.620
  39.460        232.50	    16.703
  39.480        261.67	    17.720
  39.500        173.33	    14.422
  39.520        115.00	    11.747
  39.540         78.33	     9.695
  39.560         63.33	     8.718
  39.580         70.00	     9.165
  39.600         60.00	     8.485
  39.620         60.83	     8.544
  39.640         64.17	     8.775
  39.660         54.17	     8.062
  39.680         57.50	     8.307
  39.700         52.50	     7.937
  39.720         50.00	     7.746
  39.740         58.33	     8.367
  39.760         47.50	     7.550
  39.780         52.50	     7.937
  39.800         48.33	     7.616
  39.820         59.17	     8.426
  39.840         40.83	     7.000
  39.860         45.83	     7.416
  39.880         46.67	     7.483
  39.900         52.50	     7.937
  39.920         60.00	     8.485
  39.940         45.83	     7.416
  39.960         59.17	     8.426
  39.980         62.50	     8.660
  40.000         69.17	     9.110
  40.020         71.67	     9.274
  40.040         60.83	     8.544
  40.060         55.00	     8.124
  40.080         40.83	     7.000
  40.100         58.33	     8.367
  40.120         74.17	     9.434
  40.140         84.17	    10.050
  40.160        126.67	    12.329
  40.180        121.67	    12.083
  40.200        109.17	    11.446
  40.220         75.83	     9.539
  40.240         73.33	     9.381
  40.260         62.50	     8.660
  40.280         90.00	    10.392
  40.300         89.17	    10.344
  40.320         65.83	     8.888
  40.340         53.33	     8.000
  40.360         55.83	     8.185
  40.380         35.83	     6.557
  40.400         43.33	     7.211
  40.420         43.33	     7.211
  40.440         43.33	     7.211
  40.460         45.83	     7.416
  40.480         49.17	     7.681
  40.500         42.50	     7.141
  40.520         40.00	     6.928
  40.540         41.67	     7.071
  40.560         43.33	     7.211
  40.580         48.33	     7.616
  40.600         43.33	     7.211
  40.620         50.00	     7.746
  40.640         47.50	     7.550
  40.660         57.50	     8.307
  40.680         34.17	     6.403
  40.700         45.00	     7.348
  40.720         47.50	     7.550
  40.740         47.50	     7.550
  40.760         50.00	     7.746
  40.780         48.33	     7.616
  40.800         47.50	     7.550
  40.820         55.00	     8.124
  40.840         47.50	     7.550
  40.860         53.33	     8.000
  40.880         44.17	     7.280
  40.900         51.67	     7.874
  40.920         54.17	     8.062
  40.940         44.17	     7.280
  40.960         48.33	     7.616
  40.980         47.50	     7.550
  41.000         56.67	     8.246
  41.020         54.17	     8.062
  41.040         49.17	     7.681
  41.060         53.33	     8.000
  41.080         56.67	     8.246
  41.100         57.50	     8.307
  41.120         61.67	     8.602
  41.140         60.83	     8.544
  41.160         55.00	     8.124
  41.180         49.17	     7.681
  41.200         56.67	     8.246
  41.220         60.00	     8.485
  41.240         49.17	     7.681
  41.260         47.50	     7.550
  41.280         51.67	     7.874
  41.300         51.67	     7.874
  41.320         40.00	     6.928
  41.340         45.83	     7.416
  41.360         46.67	     7.483
  41.380         40.83	     7.000
  41.400         57.50	     8.307
  41.420         45.00	     7.348
  41.440         52.50	     7.937
  41.460         65.00	     8.832
  41.480         62.50	     8.660
  41.500         68.33	     9.055
  41.520         80.83	     9.849
  41.540         84.17	    10.050
  41.560         84.17	    10.050
  41.580        105.00	    11.225
  41.600        104.17	    11.180
  41.620        100.00	    10.954
  41.640        110.00	    11.489
  41.660         89.17	    10.344
  41.680        117.50	    11.874
  41.700         88.33	    10.296
  41.720         89.17	    10.344
  41.740         88.33	    10.296
  41.760         69.17	     9.110
  41.780         60.00	     8.485
  41.800         66.67	     8.944
  41.820         65.00	     8.832
  41.840         60.83	     8.544
  41.860         68.33	     9.055
  41.880         61.67	     8.602
  41.900         73.33	     9.381
  41.920         60.83	     8.544
  41.940         65.00	     8.832
  41.960         57.50	     8.307
  41.980         58.33	     8.367
  42.000         65.83	     8.888
  42.020         58.33	     8.367
  42.040         57.50	     8.307
  42.060         54.17	     8.062
  42.080         45.83	     7.416
  42.100         49.17	     7.681
  42.120         68.33	     9.055
  42.140         78.33	     9.695
  42.160         79.17	     9.747
  42.180         69.17	     9.110
  42.200         84.17	    10.050
  42.220         83.33	    10.000
  42.240         71.67	     9.274
  42.260         93.33	    10.583
  42.280        105.83	    11.269
  42.300        118.33	    11.916
  42.320        160.00	    13.856
  42.340        198.33	    15.427
  42.360        186.67	    14.967
  42.380        135.00	    12.728
  42.400        127.50	    12.369
  42.420        135.00	    12.728
  42.440        113.33	    11.662
  42.460        133.33	    12.649
  42.480        109.17	    11.446
  42.500         92.50	    10.536
  42.520         75.00	     9.487
  42.540         54.17	     8.062
  42.560         54.17	     8.062
  42.580         56.67	     8.246
  42.600         66.67	     8.944
  42.620         57.50	     8.307
  42.640         73.33	     9.381
  42.660         60.00	     8.485
  42.680         61.67	     8.602
  42.700         55.83	     8.185
  42.720         57.50	     8.307
  42.740         65.00	     8.832
  42.760         60.83	     8.544
  42.780         65.00	     8.832
  42.800         67.50	     9.000
  42.820         55.00	     8.124
  42.840         58.33	     8.367
  42.860         52.50	     7.937
  42.880         51.67	     7.874
  42.900         69.17	     9.110
  42.920         58.33	     8.367
  42.940         55.83	     8.185
  42.960         47.50	     7.550
  42.980         49.17	     7.681
  43.000         59.17	     8.426
  43.020         58.33	     8.367
  43.040         55.00	     8.124
  43.060         60.00	     8.485
  43.080         54.17	     8.062
  43.100         56.67	     8.246
  43.120         59.17	     8.426
  43.140         56.67	     8.246
  43.160         70.00	     9.165
  43.180         51.67	     7.874
  43.200         62.50	     8.660
  43.220         71.67	     9.274
  43.240         69.17	     9.110
  43.260         70.00	     9.165
  43.280         61.67	     8.602
  43.300         65.83	     8.888
  43.320         95.83	    10.724
  43.340         84.17	    10.050
  43.360         90.83	    10.440
  43.380         90.00	    10.392
  43.400        103.33	    11.136
  43.420        106.67	    11.314
  43.440         97.50	    10.817
  43.460        115.83	    11.790
  43.480        113.33	    11.662
  43.500        132.50	    12.610
  43.520        111.67	    11.576
  43.540        100.83	    11.000
  43.560        125.00	    12.247
  43.580        129.17	    12.450
  43.600        132.50	    12.610
  43.620        139.17	    12.923
  43.640        102.50	    11.091
  43.660        122.50	    12.124
  43.680        135.00	    12.728
  43.700        119.17	    11.958
  43.720        109.17	    11.446
  43.740        109.17	    11.446
  43.760         92.50	    10.536
  43.780        102.50	    11.091
  43.800        121.67	    12.083
  43.820        106.67	    11.314
  43.840         93.33	    10.583
  43.860        108.33	    11.402
  43.880         89.17	    10.344
  43.900        110.83	    11.533
  43.920         82.50	     9.950
  43.940        121.67	    12.083
  43.960        100.83	    11.000
  43.980        135.00	    12.728
  44.000        120.00	    12.000
  44.020        111.67	    11.576
  44.040        125.00	    12.247
  44.060        137.50	    12.845
  44.080        139.17	    12.923
  44.100        162.50	    13.964
  44.120        160.00	    13.856
  44.140        169.17	    14.248
  44.160        176.67	    14.560
  44.180        185.83	    14.933
  44.200        208.33	    15.811
  44.220        222.50	    16.340
  44.240        215.83	    16.093
  44.260        241.67	    17.029
  44.280        247.50	    17.234
  44.300        260.83	    17.692
  44.320        250.00	    17.321
  44.340        284.17	    18.466
  44.360        304.17	    19.105
  44.380        281.67	    18.385
  44.400        320.00	    19.596
  44.420        316.67	    19.494
  44.440        310.00	    19.287
  44.460        265.00	    17.833
  44.480        265.83	    17.861
  44.500        288.33	    18.601
  44.520        263.33	    17.776
  44.540        250.83	    17.349
  44.560        226.67	    16.492
  44.580        240.83	    17.000
  44.600        200.00	    15.492
  44.620        194.17	    15.264
  44.640        184.17	    14.866
  44.660        187.50	    15.000
  44.680        168.33	    14.213
  44.700        159.17	    13.820
  44.720        152.50	    13.528
  44.740        168.33	    14.213
  44.760        155.00	    13.638
  44.780        131.67	    12.570
  44.800        135.83	    12.767
  44.820        125.83	    12.288
  44.840        116.67	    11.832
  44.860        126.67	    12.329
  44.880        164.17	    14.036
  44.900        145.83	    13.229
  44.920        129.17	    12.450
  44.940        111.67	    11.576
  44.960        126.67	    12.329
  44.980        105.83	    11.269
  45.000        115.00	    11.747
  45.020         90.83	    10.440
  45.040         82.50	     9.950
  45.060         91.67	    10.488
  45.080         67.50	     9.000
  45.100         79.17	     9.747
  45.120         88.33	    10.296
  45.140         82.50	     9.950
  45.160         88.33	    10.296
  45.180         85.00	    10.100
  45.200         92.50	    10.536
  45.220         82.50	     9.950
  45.240         87.50	    10.247
  45.260         98.33	    10.863
  45.280         80.00	     9.798
  45.300        117.50	    11.874
  45.320        130.83	    12.530
  45.340        140.83	    13.000
  45.360        156.67	    13.711
  45.380        152.50	    13.528
  45.400        171.67	    14.353
  45.420        197.50	    15.395
  45.440        169.17	    14.248
  45.460        223.33	    16.371
  45.480        212.50	    15.969
  45.500        241.67	    17.029
  45.520        230.83	    16.643
  45.540        195.00	    15.297
  45.560        149.17	    13.379
  45.580        160.83	    13.892
  45.600        157.50	    13.748
  45.620        180.83	    14.731
  45.640        206.67	    15.748
  45.660        297.50	    18.894
  45.680        387.50	    21.564
  45.700        275.83	    18.193
  45.720        205.00	    15.684
  45.740        124.17	    12.207
  45.760        109.17	    11.446
  45.780        193.33	    15.232
  45.800        225.00	    16.432
  45.820        218.33	    16.186
  45.840        188.33	    15.033
  45.860        102.50	    11.091
  45.880         93.33	    10.583
  45.900         91.67	    10.488
  45.920         92.50	    10.536
  45.940        105.83	    11.269
  45.960         81.67	     9.899
  45.980         64.17	     8.775
  46.000         69.17	     9.110
  46.020         70.00	     9.165
  46.040         62.50	     8.660
  46.060         62.50	     8.660
  46.080         45.00	     7.348
  46.100         54.17	     8.062
  46.120         50.00	     7.746
  46.140         50.00	     7.746
  46.160         42.50	     7.141
  46.180         45.83	     7.416
  46.200         49.17	     7.681
  46.220         40.83	     7.000
  46.240         41.67	     7.071
  46.260         45.00	     7.348
  46.280         41.67	     7.071
  46.300         46.67	     7.483
  46.320         43.33	     7.211
  46.340         48.33	     7.616
  46.360         48.33	     7.616
  46.380         42.50	     7.141
  46.400         39.17	     6.856
  46.420         41.67	     7.071
  46.440         39.17	     6.856
  46.460         40.00	     6.928
  46.480         37.50	     6.708
  46.500         41.67	     7.071
  46.520         40.83	     7.000
  46.540         35.83	     6.557
  46.560         41.67	     7.071
  46.580         40.83	     7.000
  46.600         46.67	     7.483
  46.620         39.17	     6.856
  46.640         43.33	     7.211
  46.660         35.00	     6.481
  46.680         45.00	     7.348
  46.700         45.83	     7.416
  46.720         49.17	     7.681
  46.740         47.50	     7.550
  46.760         31.67	     6.164
  46.780         36.67	     6.633
  46.800         38.33	     6.782
  46.820         43.33	     7.211
  46.840         40.83	     7.000
  46.860         44.17	     7.280
  46.880         36.67	     6.633
  46.900         49.17	     7.681
  46.920         43.33	     7.211
  46.940         53.33	     8.000
  46.960         43.33	     7.211
  46.980         59.17	     8.426
  47.000         52.50	     7.937
  47.020         48.33	     7.616
  47.040         55.00	     8.124
  47.060         47.50	     7.550
  47.080         53.33	     8.000
  47.100         42.50	     7.141
  47.120         44.17	     7.280
  47.140         47.50	     7.550
  47.160         44.17	     7.280
  47.180         42.50	     7.141
  47.200         34.17	     6.403
  47.220         37.50	     6.708
  47.240         37.50	     6.708
  47.260         30.00	     6.000
  47.280         40.00	     6.928
  47.300         37.50	     6.708
  47.320         40.83	     7.000
  47.340         34.17	     6.403
  47.360         46.67	     7.483
  47.380         45.00	     7.348
  47.400         45.83	     7.416
  47.420         42.50	     7.141
  47.440         32.50	     6.245
  47.460         36.67	     6.633
  47.480         50.00	     7.746
  47.500         40.83	     7.000
  47.520         32.50	     6.245
  47.540         26.67	     5.657
  47.560         41.67	     7.071
  47.580         43.33	     7.211
  47.600         43.33	     7.211
  47.620         36.67	     6.633
  47.640         29.17	     5.916
  47.660         33.33	     6.325
  47.680         39.17	     6.856
  47.700         34.17	     6.403
  47.720         26.67	     5.657
  47.740         41.67	     7.071
  47.760         45.00	     7.348
  47.780         50.83	     7.810
  47.800         36.67	     6.633
  47.820         49.17	     7.681
  47.840         67.50	     9.000
  47.860         40.83	     7.000
  47.880         47.50	     7.550
  47.900         50.00	     7.746
  47.920         53.33	     8.000
  47.940         69.17	     9.110
  47.960         51.67	     7.874
  47.980         50.00	     7.746
  48.000         53.33	     8.000
  48.020         71.67	     9.274
  48.040         68.33	     9.055
  48.060         58.33	     8.367
  48.080         60.00	     8.485
  48.100         60.00	     8.485
  48.120         63.33	     8.718
  48.140         57.50	     8.307
  48.160         57.50	     8.307
  48.180         60.83	     8.544
  48.200         62.50	     8.660
  48.220         49.17	     7.681
  48.240         60.83	     8.544
  48.260         51.67	     7.874
  48.280         47.50	     7.550
  48.300         49.17	     7.681
  48.320         43.33	     7.211
  48.340         47.50	     7.550
  48.360         42.50	     7.141
  48.380         56.67	     8.246
  48.400         40.00	     6.928
  48.420         35.83	     6.557
  48.440         37.50	     6.708
  48.460         40.00	     6.928
  48.480         43.33	     7.211
  48.500         45.00	     7.348
  48.520         58.33	     8.367
  48.540         50.83	     7.810
  48.560         69.17	     9.110
  48.580         44.17	     7.280
  48.600         59.17	     8.426
  48.620         65.83	     8.888
  48.640         45.00	     7.348
  48.660         53.33	     8.000
  48.680         50.83	     7.810
  48.700         51.67	     7.874
  48.720         55.83	     8.185
  48.740         51.67	     7.874
  48.760         40.00	     6.928
  48.780         53.33	     8.000
  48.800         35.83	     6.557
  48.820         47.50	     7.550
  48.840         49.17	     7.681
  48.860         38.33	     6.782
  48.880         48.33	     7.616
  48.900         47.50	     7.550
  48.920         60.00	     8.485
  48.940         58.33	     8.367
  48.960         41.67	     7.071
  48.980         44.17	     7.280
  49.000         40.00	     6.928
  49.020         40.83	     7.000
  49.040         51.67	     7.874
  49.060         55.00	     8.124
  49.080         65.00	     8.832
  49.100         62.50	     8.660
  49.120         47.50	     7.550
  49.140         48.33	     7.616
  49.160         39.17	     6.856
  49.180         45.00	     7.348
  49.200         54.17	     8.062
  49.220         46.67	     7.483
  49.240         46.67	     7.483
  49.260         54.17	     8.062
  49.280         34.17	     6.403
  49.300         38.33	     6.782
  49.320         49.17	     7.681
  49.340         55.00	     8.124
  49.360         35.83	     6.557
  49.380         44.17	     7.280
  49.400         48.33	     7.616
  49.420         48.33	     7.616
  49.440         47.50	     7.550
  49.460         38.33	     6.782
  49.480         45.00	     7.348
  49.500         61.67	     8.602
  49.520         37.50	     6.708
  49.540         52.50	     7.937
  49.560         55.00	     8.124
  49.580         47.50	     7.550
  49.600         50.00	     7.746
  49.620         60.00	     8.485
  49.640         40.00	     6.928
  49.660         66.67	     8.944
  49.680         50.83	     7.810
  49.700         57.50	     8.307
  49.720         61.67	     8.602
  49.740         66.67	     8.944
  49.760         63.33	     8.718
  49.780         70.83	     9.220
  49.800        100.83	    11.000
  49.820        102.50	    11.091
  49.840         77.50	     9.644
  49.860         84.17	    10.050
  49.880         90.83	    10.440
  49.900         90.83	    10.440
  49.920        110.83	    11.533
  49.940        133.33	    12.649
  49.960        180.83	    14.731
  49.980        331.67	    19.950
  50.000        519.17	    24.960
  50.020        555.83	    25.826
  50.040        515.83	    24.880
  50.060        339.17	    20.174
  50.080        215.83	    16.093
  50.100        205.83	    15.716
  50.120        240.00	    16.971
  50.140        294.17	    18.788
  50.160        322.50	    19.672
  50.180        256.67	    17.550
  50.200        198.33	    15.427
  50.220        130.83	    12.530
  50.240        104.17	    11.180
  50.260         65.83	     8.888
  50.280         90.00	    10.392
  50.300         58.33	     8.367
  50.320         65.83	     8.888
  50.340         58.33	     8.367
  50.360         73.33	     9.381
  50.380         66.67	     8.944
  50.400         66.67	     8.944
  50.420         75.00	     9.487
  50.440         97.50	    10.817
  50.460         88.33	    10.296
  50.480         86.67	    10.198
  50.500         80.00	     9.798
  50.520         87.50	    10.247
  50.540         89.17	    10.344
  50.560         91.67	    10.488
  50.580         77.50	     9.644
  50.600         92.50	    10.536
  50.620         80.83	     9.849
  50.640         64.17	     8.775
  50.660         85.83	    10.149
  50.680         64.17	     8.775
  50.700         75.00	     9.487
  50.720         59.17	     8.426
  50.740         51.67	     7.874
  50.760         55.00	     8.124
  50.780         56.67	     8.246
  50.800         52.50	     7.937
  50.820         50.00	     7.746
  50.840         52.50	     7.937
  50.860         40.83	     7.000
  50.880         35.83	     6.557
  50.900         62.50	     8.660
  50.920         45.00	     7.348
  50.940         57.50	     8.307
  50.960         51.67	     7.874
  50.980         59.17	     8.426
  51.000         72.50	     9.327
  51.020         80.00	     9.798
  51.040         80.83	     9.849
  51.060         84.17	    10.050
  51.080         77.50	     9.644
  51.100         71.67	     9.274
  51.120         57.50	     8.307
  51.140         75.00	     9.487
  51.160         67.50	     9.000
  51.180         82.50	     9.950
  51.200         70.00	     9.165
  51.220         47.50	     7.550
  51.240         52.50	     7.937
  51.260         43.33	     7.211
  51.280         40.83	     7.000
  51.300         47.50	     7.550
  51.320         42.50	     7.141
  51.340         36.67	     6.633
  51.360         40.00	     6.928
  51.380         35.00	     6.481
  51.400         27.50	     5.745
  51.420         32.50	     6.245
  51.440         33.33	     6.325
  51.460         29.17	     5.916
  51.480         40.83	     7.000
  51.500         30.00	     6.000
  51.520         43.33	     7.211
  51.540         34.17	     6.403
  51.560         25.83	     5.568
  51.580         30.00	     6.000
  51.600         26.67	     5.657
  51.620         26.67	     5.657
  51.640         35.83	     6.557
  51.660         28.33	     5.831
  51.680         44.17	     7.280
  51.700         37.50	     6.708
  51.720         30.00	     6.000
  51.740         41.67	     7.071
  51.760         19.17	     4.796
  51.780         46.67	     7.483
  51.800         27.50	     5.745
  51.820         35.00	     6.481
  51.840         25.83	     5.568
  51.860         36.67	     6.633
  51.880         43.33	     7.211
  51.900         46.67	     7.483
  51.920         37.50	     6.708
  51.940         45.83	     7.416
  51.960         45.00	     7.348
  51.980         75.00	     9.487
  52.000         95.83	    10.724
  52.020        107.50	    11.358
  52.040         75.00	     9.487
  52.060         65.83	     8.888
  52.080         65.00	     8.832
  52.100         45.00	     7.348
  52.120         60.83	     8.544
  52.140         64.17	     8.775
  52.160         65.83	     8.888
  52.180         65.83	     8.888
  52.200         49.17	     7.681
  52.220         55.00	     8.124
  52.240         48.33	     7.616
  52.260         45.00	     7.348
  52.280         48.33	     7.616
  52.300         55.00	     8.124
  52.320         40.00	     6.928
  52.340         60.83	     8.544
  52.360         52.50	     7.937
  52.380         54.17	     8.062
  52.400         56.67	     8.246
  52.420         44.17	     7.280
  52.440         55.83	     8.185
  52.460         50.83	     7.810
  52.480         51.67	     7.874
  52.500         54.17	     8.062
  52.520         45.83	     7.416
  52.540         45.00	     7.348
  52.560         43.33	     7.211
  52.580         50.00	     7.746
  52.600         54.17	     8.062
  52.620         46.67	     7.483
  52.640         53.33	     8.000
  52.660         51.67	     7.874
  52.680         49.17	     7.681
  52.700         50.00	     7.746
  52.720         48.33	     7.616
  52.740         40.00	     6.928
  52.760         40.83	     7.000
  52.780         43.33	     7.211
  52.800         32.50	     6.245
  52.820         39.17	     6.856
  52.840         40.00	     6.928
  52.860         56.67	     8.246
  52.880         40.00	     6.928
  52.900         63.33	     8.718
  52.920         62.50	     8.660
  52.940         50.83	     7.810
  52.960         50.00	     7.746
  52.980         48.33	     7.616
  53.000         44.17	     7.280
  53.020         56.67	     8.246
  53.040         50.00	     7.746
  53.060         59.17	     8.426
  53.080         59.17	     8.426
  53.100         65.00	     8.832
  53.120         43.33	     7.211
  53.140         48.33	     7.616
  53.160         45.83	     7.416
  53.180         35.00	     6.481
  53.200         30.00	     6.000
  53.220         55.00	     8.124
  53.240         40.83	     7.000
  53.260         39.17	     6.856
  53.280         34.17	     6.403
  53.300         40.83	     7.000
  53.320         41.67	     7.071
  53.340         25.00	     5.477
  53.360         35.00	     6.481
  53.380         36.67	     6.633
  53.400         45.83	     7.416
  53.420         42.50	     7.141
  53.440         35.00	     6.481
  53.460         38.33	     6.782
  53.480         33.33	     6.325
  53.500         33.33	     6.325
  53.520         37.50	     6.708
  53.540         43.33	     7.211
  53.560         37.50	     6.708
  53.580         40.00	     6.928
  53.600         35.00	     6.481
  53.620         39.17	     6.856
  53.640         48.33	     7.616
  53.660         33.33	     6.325
  53.680         41.67	     7.071
  53.700         32.50	     6.245
  53.720         35.00	     6.481
  53.740         40.83	     7.000
  53.760         44.17	     7.280
  53.780         40.00	     6.928
  53.800         40.83	     7.000
  53.820         40.00	     6.928
  53.840         35.83	     6.557
  53.860         49.17	     7.681
  53.880         41.67	     7.071
  53.900         42.50	     7.141
  53.920         30.83	     6.083
  53.940         35.00	     6.481
  53.960         36.67	     6.633
  53.980         36.67	     6.633
  54.000         41.67	     7.071
  54.020         33.33	     6.325
  54.040         32.50	     6.245
  54.060         41.67	     7.071
  54.080         32.50	     6.245
  54.100         32.50	     6.245
  54.120         29.17	     5.916
  54.140         38.33	     6.782
  54.160         33.33	     6.325
  54.180         40.00	     6.928
  54.200         42.50	     7.141
  54.220         34.17	     6.403
  54.240         50.83	     7.810
  54.260         43.33	     7.211
  54.280         37.50	     6.708
  54.300         37.50	     6.708
  54.320         45.83	     7.416
  54.340         34.17	     6.403
  54.360         45.83	     7.416
  54.380         36.67	     6.633
  54.400         37.50	     6.708
  54.420         31.67	     6.164
  54.440         40.00	     6.928
  54.460         35.83	     6.557
  54.480         31.67	     6.164
  54.500         58.33	     8.367
  54.520         48.33	     7.616
  54.540         38.33	     6.782
  54.560         57.50	     8.307
  54.580         45.83	     7.416
  54.600         45.83	     7.416
  54.620         47.50	     7.550
  54.640         65.00	     8.832
  54.660         55.83	     8.185
  54.680         60.00	     8.485
  54.700         67.50	     9.000
  54.720        110.00	    11.489
  54.740        155.83	    13.675
  54.760        156.67	    13.711
  54.780        165.83	    14.107
  54.800        127.50	    12.369
  54.820         89.17	    10.344
  54.840         73.33	     9.381
  54.860         64.17	     8.775
  54.880         92.50	    10.536
  54.900        127.50	    12.369
  54.920        105.83	    11.269
  54.940        103.33	    11.136
  54.960         78.33	     9.695
  54.980         55.83	     8.185
  55.000         39.17	     6.856
  55.020         51.67	     7.874
  55.040         49.17	     7.681
  55.060         36.67	     6.633
  55.080         50.83	     7.810
  55.100         47.50	     7.550
  55.120         52.50	     7.937
  55.140         50.83	     7.810
  55.160         50.83	     7.810
  55.180         55.00	     8.124
  55.200         72.50	     9.327
  55.220         73.33	     9.381
  55.240         61.67	     8.602
  55.260         50.83	     7.810
  55.280         53.33	     8.000
  55.300         57.50	     8.307
  55.320         56.67	     8.246
  55.340         56.67	     8.246
  55.360         56.67	     8.246
  55.380         57.50	     8.307
  55.400         46.67	     7.483
  55.420         47.50	     7.550
  55.440         34.17	     6.403
  55.460         39.17	     6.856
  55.480         33.33	     6.325
  55.500         45.83	     7.416
  55.520         44.17	     7.280
  55.540         50.00	     7.746
  55.560         51.67	     7.874
  55.580         48.33	     7.616
  55.600         55.83	     8.185
  55.620         51.67	     7.874
  55.640         80.83	     9.849
  55.660         57.50	     8.307
  55.680         54.17	     8.062
  55.700         70.83	     9.220
  55.720         62.50	     8.660
  55.740         63.33	     8.718
  55.760         68.33	     9.055
  55.780         62.50	     8.660
  55.800         60.83	     8.544
  55.820         68.33	     9.055
  55.840         67.50	     9.000
  55.860         59.17	     8.426
  55.880         52.50	     7.937
  55.900         57.50	     8.307
  55.920         51.67	     7.874
  55.940         60.83	     8.544
  55.960         48.33	     7.616
  55.980         55.83	     8.185
  56.000         45.83	     7.416
  56.020         55.00	     8.124
  56.040         50.83	     7.810
  56.060         65.83	     8.888
  56.080         60.00	     8.485
  56.100         33.33	     6.325
  56.120         43.33	     7.211
  56.140         40.00	     6.928
  56.160         43.33	     7.211
  56.180         43.33	     7.211
  56.200         55.00	     8.124
  56.220         51.67	     7.874
  56.240         44.17	     7.280
  56.260         41.67	     7.071
  56.280         30.00	     6.000
  56.300         33.33	     6.325
  56.320         45.83	     7.416
  56.340         35.00	     6.481
  56.360         30.83	     6.083
  56.380         32.50	     6.245
  56.400         47.50	     7.550
  56.420         56.67	     8.246
  56.440         35.83	     6.557
  56.460         47.50	     7.550
  56.480         50.83	     7.810
  56.500         58.33	     8.367
  56.520         52.50	     7.937
  56.540         60.00	     8.485
  56.560         57.50	     8.307
  56.580         58.33	     8.367
  56.600         55.83	     8.185
  56.620         58.33	     8.367
  56.640         45.00	     7.348
  56.660         70.83	     9.220
  56.680         50.00	     7.746
  56.700         60.00	     8.485
  56.720         69.17	     9.110
  56.740         64.17	     8.775
  56.760         54.17	     8.062
  56.780         40.83	     7.000
  56.800         45.00	     7.348
  56.820         45.00	     7.348
  56.840         57.50	     8.307
  56.860         43.33	     7.211
  56.880         57.50	     8.307
  56.900         44.17	     7.280
  56.920         37.50	     6.708
  56.940         40.83	     7.000
  56.960         51.67	     7.874
  56.980         40.83	     7.000
  57.000         43.33	     7.211
  57.020         31.67	     6.164
  57.040         35.00	     6.481
  57.060         38.33	     6.782
  57.080         43.33	     7.211
  57.100         35.00	     6.481
  57.120         41.67	     7.071
  57.140         50.00	     7.746
  57.160         47.50	     7.550
  57.180         45.00	     7.348
  57.200         53.33	     8.000
  57.220         47.50	     7.550
  57.240         39.17	     6.856
  57.260         42.50	     7.141
  57.280         43.33	     7.211
  57.300         37.50	     6.708
  57.320         35.00	     6.481
  57.340         45.00	     7.348
  57.360         55.00	     8.124
  57.380         45.83	     7.416
  57.400         41.67	     7.071
  57.420         53.33	     8.000
  57.440         26.67	     5.657
  57.460         42.50	     7.141
  57.480         40.00	     6.928
  57.500         58.33	     8.367
  57.520         42.50	     7.141
  57.540         35.83	     6.557
  57.560         56.67	     8.246
  57.580         40.00	     6.928
  57.600         40.00	     6.928
  57.620         39.17	     6.856
  57.640         43.33	     7.211
  57.660         43.33	     7.211
  57.680         43.33	     7.211
  57.700         39.17	     6.856
  57.720         42.50	     7.141
  57.740         39.17	     6.856
  57.760         41.67	     7.071
  57.780         31.67	     6.164
  57.800         41.67	     7.071
  57.820         37.50	     6.708
  57.840         35.83	     6.557
  57.860         31.67	     6.164
  57.880         29.17	     5.916
  57.900         30.00	     6.000
  57.920         30.83	     6.083
  57.940         40.83	     7.000
  57.960         30.83	     6.083
  57.980         37.50	     6.708
  58.000         36.67	     6.633
  58.020         47.50	     7.550
  58.040         40.83	     7.000
  58.060         45.00	     7.348
  58.080         31.67	     6.164
  58.100         49.17	     7.681
  58.120         49.17	     7.681
  58.140         33.33	     6.325
  58.160         41.67	     7.071
  58.180         55.83	     8.185
  58.200         43.33	     7.211
  58.220         45.83	     7.416
  58.240         45.00	     7.348
  58.260         35.83	     6.557
  58.280         37.50	     6.708
  58.300         53.33	     8.000
  58.320         31.67	     6.164
  58.340         35.83	     6.557
  58.360         32.50	     6.245
  58.380         43.33	     7.211
  58.400         42.50	     7.141
  58.420         46.67	     7.483
  58.440         47.50	     7.550
  58.460         59.17	     8.426
  58.480         57.50	     8.307
  58.500         56.67	     8.246
  58.520         56.67	     8.246
  58.540         50.00	     7.746
  58.560         53.33	     8.000
  58.580         49.17	     7.681
  58.600         74.17	     9.434
  58.620         49.17	     7.681
  58.640         47.50	     7.550
  58.660         55.83	     8.185
  58.680         43.33	     7.211
  58.700         43.33	     7.211
  58.720         58.33	     8.367
  58.740         38.33	     6.782
  58.760         42.50	     7.141
  58.780         50.83	     7.810
  58.800         47.50	     7.550
  58.820         42.50	     7.141
  58.840         41.67	     7.071
  58.860         53.33	     8.000
  58.880         53.33	     8.000
  58.900         52.50	     7.937
  58.920         51.67	     7.874
  58.940         51.67	     7.874
  58.960         43.33	     7.211
  58.980         44.17	     7.280
  59.000         51.67	     7.874
  59.020         65.00	     8.832
  59.040         62.50	     8.660
  59.060         54.17	     8.062
  59.080         66.67	     8.944
  59.100         69.17	     9.110
  59.120         67.50	     9.000
  59.140         55.83	     8.185
  59.160         47.50	     7.550
  59.180         49.17	     7.681
  59.200         50.00	     7.746
  59.220         59.17	     8.426
  59.240         57.50	     8.307
  59.260         64.17	     8.775
  59.280         48.33	     7.616
  59.300         52.50	     7.937
  59.320         45.00	     7.348
  59.340         42.50	     7.141
  59.360         38.33	     6.782
  59.380         45.83	     7.416
  59.400         51.67	     7.874
  59.420         43.33	     7.211
  59.440         44.17	     7.280
  59.460         30.00	     6.000
  59.480         42.50	     7.141
  59.500         32.50	     6.245
  59.520         48.33	     7.616
  59.540         56.67	     8.246
  59.560         45.00	     7.348
  59.580         46.67	     7.483
  59.600         47.50	     7.550
  59.620         50.83	     7.810
  59.640         48.33	     7.616
  59.660         55.00	     8.124
  59.680         70.00	     9.165
  59.700         76.67	     9.592
  59.720         65.83	     8.888
  59.740         69.17	     9.110
  59.760         96.67	    10.770
  59.780        129.17	    12.450
  59.800        189.17	    15.067
  59.820        258.33	    17.607
  59.840        289.17	    18.628
  59.860        308.33	    19.235
  59.880        240.00	    16.971
  59.900        175.00	    14.491
  59.920        135.00	    12.728
  59.940        115.00	    11.747
  59.960        138.33	    12.884
  59.980        145.00	    13.191
  60.000        181.67	    14.765
  60.020        174.17	    14.457
  60.040        145.00	    13.191
  60.060        115.00	    11.747
  60.080         89.17	    10.344
  60.100         79.17	     9.747
  60.120         72.50	     9.327
  60.140         42.50	     7.141
  60.160         64.17	     8.775
  60.180         52.50	     7.937
  60.200         64.17	     8.775
  60.220         65.83	     8.888
  60.240         49.17	     7.681
  60.260         50.00	     7.746
  60.280         48.33	     7.616
  60.300         49.17	     7.681
  60.320         51.67	     7.874
  60.340         55.00	     8.124
  60.360         52.50	     7.937
  60.380         57.50	     8.307
  60.400         50.00	     7.746
  60.420         47.50	     7.550
  60.440         55.83	     8.185
  60.460         50.83	     7.810
  60.480         44.17	     7.280
  60.500         60.00	     8.485
  60.520         39.17	     6.856
  60.540         45.00	     7.348
  60.560         48.33	     7.616
  60.580         55.00	     8.124
  60.600         51.67	     7.874
  60.620         45.00	     7.348
  60.640         59.17	     8.426
  60.660         40.00	     6.928
  60.680         51.67	     7.874
  60.700         52.50	     7.937
  60.720         60.00	     8.485
  60.740         55.00	     8.124
  60.760         45.00	     7.348
  60.780         60.83	     8.544
  60.800         51.67	     7.874
  60.820         46.67	     7.483
  60.840         50.83	     7.810
  60.860         54.17	     8.062
  60.880         50.83	     7.810
  60.900         51.67	     7.874
  60.920         55.00	     8.124
  60.940         55.83	     8.185
  60.960         49.17	     7.681
  60.980         43.33	     7.211
  61.000         52.50	     7.937
  61.020         44.17	     7.280
  61.040         35.83	     6.557
  61.060         40.00	     6.928
  61.080         39.17	     6.856
  61.100         41.67	     7.071
  61.120         43.33	     7.211
  61.140         52.50	     7.937
  61.160         41.67	     7.071
  61.180         54.17	     8.062
  61.200         50.00	     7.746
  61.220         40.00	     6.928
  61.240         58.33	     8.367
  61.260         39.17	     6.856
  61.280         79.17	     9.747
  61.300         57.50	     8.307
  61.320         71.67	     9.274
  61.340         88.33	    10.296
  61.360         96.67	    10.770
  61.380         95.00	    10.677
  61.400         88.33	    10.296
  61.420         63.33	     8.718
  61.440         72.50	     9.327
  61.460         60.83	     8.544
  61.480         57.50	     8.307
  61.500         68.33	     9.055
  61.520         73.33	     9.381
  61.540         78.33	     9.695
  61.560         75.83	     9.539
  61.580         72.50	     9.327
  61.600         67.50	     9.000
  61.620         57.50	     8.307
  61.640         69.17	     9.110
  61.660         54.17	     8.062
  61.680         60.83	     8.544
  61.700         51.67	     7.874
  61.720         55.00	     8.124
  61.740         52.50	     7.937
  61.760         47.50	     7.550
  61.780         50.83	     7.810
  61.800         40.83	     7.000
  61.820         55.83	     8.185
  61.840         44.17	     7.280
  61.860         47.50	     7.550
  61.880         53.33	     8.000
  61.900         51.67	     7.874
  61.920         47.50	     7.550
  61.940         46.67	     7.483
  61.960         38.33	     6.782
  61.980         55.00	     8.124
  62.000         46.67	     7.483
  62.020         42.50	     7.141
  62.040         44.17	     7.280
  62.060         45.83	     7.416
  62.080         40.00	     6.928
  62.100         40.83	     7.000
  62.120         40.00	     6.928
  62.140         43.33	     7.211
  62.160         46.67	     7.483
  62.180         30.83	     6.083
  62.200         47.50	     7.550
  62.220         45.00	     7.348
  62.240         39.17	     6.856
  62.260         41.67	     7.071
  62.280         35.00	     6.481
  62.300         42.50	     7.141
  62.320         40.00	     6.928
  62.340         41.67	     7.071
  62.360         38.33	     6.782
  62.380         35.00	     6.481
  62.400         36.67	     6.633
  62.420         30.83	     6.083
  62.440         45.00	     7.348
  62.460         40.00	     6.928
  62.480         45.83	     7.416
  62.500         41.67	     7.071
  62.520         50.00	     7.746
  62.540         37.50	     6.708
  62.560         55.00	     8.124
  62.580         45.00	     7.348
  62.600         44.17	     7.280
  62.620         39.17	     6.856
  62.640         42.50	     7.141
  62.660         42.50	     7.141
  62.680         40.83	     7.000
  62.700         44.17	     7.280
  62.720         34.17	     6.403
  62.740         34.17	     6.403
  62.760         29.17	     5.916
  62.780         40.00	     6.928
  62.800         42.50	     7.141
  62.820         38.33	     6.782
  62.840         20.83	     5.000
  62.860         35.83	     6.557
  62.880         34.17	     6.403
  62.900         33.33	     6.325
  62.920         36.67	     6.633
  62.940         42.50	     7.141
  62.960         36.67	     6.633
  62.980         32.50	     6.245
  63.000         38.33	     6.782
  63.020         45.00	     7.348
  63.040         35.00	     6.481
  63.060         34.17	     6.403
  63.080         40.00	     6.928
  63.100         33.33	     6.325
  63.120         39.17	     6.856
  63.140         42.50	     7.141
  63.160         47.50	     7.550
  63.180         35.83	     6.557
  63.200         40.83	     7.000
  63.220         40.83	     7.000
  63.240         35.00	     6.481
  63.260         38.33	     6.782
  63.280         45.00	     7.348
  63.300         43.33	     7.211
  63.320         44.17	     7.280
  63.340         46.67	     7.483
  63.360         45.00	     7.348
  63.380         43.33	     7.211
  63.400         40.83	     7.000
  63.420         44.17	     7.280
  63.440         52.50	     7.937
  63.460         44.17	     7.280
  63.480         42.50	     7.141
  63.500         51.67	     7.874
  63.520         48.33	     7.616
  63.540         51.67	     7.874
  63.560         50.00	     7.746
  63.580         50.00	     7.746
  63.600         55.83	     8.185
  63.620         55.83	     8.185
  63.640         62.50	     8.660
  63.660         55.00	     8.124
  63.680         70.00	     9.165
  63.700         64.17	     8.775
  63.720         55.00	     8.124
  63.740         58.33	     8.367
  63.760         44.17	     7.280
  63.780         68.33	     9.055
  63.800         65.00	     8.832
  63.820         65.83	     8.888
  63.840         69.17	     9.110
  63.860         65.00	     8.832
  63.880         77.50	     9.644
  63.900         76.67	     9.592
  63.920        100.83	    11.000
  63.940         85.00	    10.100
  63.960         93.33	    10.583
  63.980         68.33	     9.055
  64.000         74.17	     9.434
  64.020         63.33	     8.718
  64.040         72.50	     9.327
  64.060         66.67	     8.944
  64.080         83.33	    10.000
  64.100         57.50	     8.307
  64.120         66.67	     8.944
  64.140         60.00	     8.485
  64.160         43.33	     7.211
  64.180         55.83	     8.185
  64.200         43.33	     7.211
  64.220         48.33	     7.616
  64.240         56.67	     8.246
  64.260         40.00	     6.928
  64.280         34.17	     6.403
  64.300         58.33	     8.367
  64.320         50.00	     7.746
  64.340         41.67	     7.071
  64.360         42.50	     7.141
  64.380         46.67	     7.483
  64.400         46.67	     7.483
  64.420         53.33	     8.000
  64.440         39.17	     6.856
  64.460         51.67	     7.874
  64.480         40.83	     7.000
  64.500         37.50	     6.708
  64.520         40.00	     6.928
  64.540         53.33	     8.000
  64.560         49.17	     7.681
  64.580         59.17	     8.426
  64.600         53.33	     8.000
  64.620         63.33	     8.718
  64.640         60.83	     8.544
  64.660         66.67	     8.944
  64.680         53.33	     8.000
  64.700         60.00	     8.485
  64.720         62.50	     8.660
  64.740         56.67	     8.246
  64.760         65.00	     8.832
  64.780         54.17	     8.062
  64.800         53.33	     8.000
  64.820         58.33	     8.367
  64.840         50.00	     7.746
  64.860         55.83	     8.185
  64.880         50.83	     7.810
  64.900         52.50	     7.937
  64.920         57.50	     8.307
  64.940         60.83	     8.544
  64.960         52.50	     7.937
  64.980         70.00	     9.165
  65.000         60.00	     8.485
