
Filename:
	C:\Program Files\Thermo Electron\WinXRD\Datafiles\F_HERMAN\FIEN\G48A_FT.raw

File Created:
	October 02, 2019 - 06:10 PM

Specimen Id:
	G48A FT

Specimen Name:
	

Specimen Description:
	

Comment:
Scan Type: 2Theta Scan
Start Angle: 1 deg.
Stop Angle: 65 deg.
Num Points: 3201
Step Size: 0.02 deg.
Scan Rate: 1.000000
Scan Mode: Continuous
Wavelength: 1.540562
\Kalpha1: 1.540562	\Kalpha2: 1.544390	\Kbeta: 1.392218

Optics:
		Detector:
			 Type: Fixed Slits
		Tube: 
			 Type: Fixed Slits


Datas:
 Pos [deg]       Rate [CPS]      ESD [-]

Range 1 ---> Iteration 1
   1.000         73.33	     9.381
   1.020         67.50	     9.000
   1.040         78.33	     9.695
   1.060         75.83	     9.539
   1.080         97.50	    10.817
   1.100        105.00	    11.225
   1.120        109.17	    11.446
   1.140         88.33	    10.296
   1.160         95.00	    10.677
   1.180         79.17	     9.747
   1.200         90.83	    10.440
   1.220         97.50	    10.817
   1.240         90.83	    10.440
   1.260         85.83	    10.149
   1.280         90.00	    10.392
   1.300         93.33	    10.583
   1.320        105.00	    11.225
   1.340        112.50	    11.619
   1.360         80.83	     9.849
   1.380        101.67	    11.045
   1.400        107.50	    11.358
   1.420         84.17	    10.050
   1.440        115.83	    11.790
   1.460         97.50	    10.817
   1.480        112.50	    11.619
   1.500        109.17	    11.446
   1.520        115.00	    11.747
   1.540        105.83	    11.269
   1.560        108.33	    11.402
   1.580        121.67	    12.083
   1.600        107.50	    11.358
   1.620        125.00	    12.247
   1.640        118.33	    11.916
   1.660        116.67	    11.832
   1.680        113.33	    11.662
   1.700        137.50	    12.845
   1.720        118.33	    11.916
   1.740        114.17	    11.705
   1.760        131.67	    12.570
   1.780        126.67	    12.329
   1.800        118.33	    11.916
   1.820        130.83	    12.530
   1.840        126.67	    12.329
   1.860        139.17	    12.923
   1.880        126.67	    12.329
   1.900        126.67	    12.329
   1.920        147.50	    13.304
   1.940        147.50	    13.304
   1.960        160.00	    13.856
   1.980        130.83	    12.530
   2.000        138.33	    12.884
   2.020        147.50	    13.304
   2.040        165.00	    14.071
   2.060        140.83	    13.000
   2.080        166.67	    14.142
   2.100        168.33	    14.213
   2.120        173.33	    14.422
   2.140        163.33	    14.000
   2.160        185.00	    14.900
   2.180        188.33	    15.033
   2.200        189.17	    15.067
   2.220        178.33	    14.629
   2.240        172.50	    14.387
   2.260        194.17	    15.264
   2.280        182.50	    14.799
   2.300        195.00	    15.297
   2.320        200.83	    15.524
   2.340        193.33	    15.232
   2.360        207.50	    15.780
   2.380        237.50	    16.882
   2.400        232.50	    16.703
   2.420        277.50	    18.248
   2.440        262.50	    17.748
   2.460        280.00	    18.330
   2.480        272.50	    18.083
   2.500        285.00	    18.493
   2.520        277.50	    18.248
   2.540        299.17	    18.947
   2.560        304.17	    19.105
   2.580        334.17	    20.025
   2.600        362.50	    20.857
   2.620        394.17	    21.749
   2.640        387.50	    21.564
   2.660        435.00	    22.847
   2.680        487.50	    24.187
   2.700        496.67	    24.413
   2.720        550.00	    25.690
   2.740        590.83	    26.627
   2.760        586.67	    26.533
   2.780        730.00	    29.597
   2.800        812.50	    31.225
   2.820        882.50	    32.542
   2.840        960.83	    33.956
   2.860       1203.33	    38.000
   2.880       1384.17	    40.755
   2.900       1695.00	    45.100
   2.920       2410.00	    53.777
   2.940       4700.83	    75.107
   2.960       7175.83	    92.795
   2.980       4929.17	    76.909
   3.000          0.00	     0.000
   3.020          0.00	     0.000
   3.040          0.00	     0.000
   3.060          0.00	     0.000
   3.080          0.00	     0.000
   3.100          0.00	     0.000
   3.120        923.33	    33.287
   3.140          0.00	     0.000
   3.160          0.00	     0.000
   3.180          0.83	     1.000
   3.200          0.00	     0.000
   3.220          0.00	     0.000
   3.240          0.00	     0.000
   3.260          0.00	     0.000
   3.280          0.00	     0.000
   3.300          0.00	     0.000
   3.320          0.00	     0.000
   3.340          0.00	     0.000
   3.360          0.00	     0.000
   3.380          0.00	     0.000
   3.400          0.00	     0.000
   3.420          0.00	     0.000
   3.440          0.00	     0.000
   3.460          0.00	     0.000
   3.480          0.00	     0.000
   3.500          0.00	     0.000
   3.520          0.00	     0.000
   3.540          0.00	     0.000
   3.560          0.00	     0.000
   3.580          0.00	     0.000
   3.600          0.00	     0.000
   3.620          0.00	     0.000
   3.640          0.00	     0.000
   3.660          0.00	     0.000
   3.680          0.00	     0.000
   3.700          0.00	     0.000
   3.720          0.00	     0.000
   3.740          0.83	     1.000
   3.760          0.00	     0.000
   3.780         15.00	     4.243
   3.800          0.00	     0.000
   3.820          0.00	     0.000
   3.840          0.00	     0.000
   3.860          0.00	     0.000
   3.880          0.00	     0.000
   3.900          5.83	     2.646
   3.920        619.17	    27.258
   3.940          0.00	     0.000
   3.960          0.00	     0.000
   3.980          0.00	     0.000
   4.000          0.00	     0.000
   4.020          0.00	     0.000
   4.040          0.00	     0.000
   4.060          0.00	     0.000
   4.080          0.00	     0.000
   4.100          0.83	     1.000
   4.120          0.00	     0.000
   4.140        740.00	    29.799
   4.160        236.67	    16.852
   4.180        169.17	    14.248
   4.200        401.67	    21.954
   4.220        235.00	    16.793
   4.240        427.50	    22.650
   4.260        231.67	    16.673
   4.280        300.00	    18.974
   4.300        311.67	    19.339
   4.320        319.17	    19.570
   4.340        324.17	    19.723
   4.360        288.33	    18.601
   4.380        420.83	    22.472
   4.400        541.67	    25.495
   4.420        732.50	    29.648
   4.440       1025.00	    35.071
   4.460       1435.00	    41.497
   4.480       2037.50	    49.447
   4.500       2482.50	    54.580
   4.520       2638.33	    56.267
   4.540       2616.67	    56.036
   4.560       2509.17	    54.873
   4.580       2474.17	    54.489
   4.600       2338.33	    52.972
   4.620       2490.00	    54.663
   4.640       2341.67	    53.009
   4.660       2264.17	    52.125
   4.680       2325.00	    52.820
   4.700       2184.17	    51.196
   4.720       2165.83	    50.980
   4.740       2107.50	    50.289
   4.760       2055.83	    49.669
   4.780       1995.83	    48.939
   4.800       1845.00	    47.053
   4.820       1848.33	    47.096
   4.840       1550.00	    43.128
   4.860       1424.17	    41.340
   4.880       1258.33	    38.859
   4.900       1007.50	    34.771
   4.920        939.17	    33.571
   4.940        830.83	    31.575
   4.960        777.50	    30.545
   4.980        754.17	    30.083
   5.000        727.50	    29.547
   5.020        667.50	    28.302
   5.040        702.50	    29.034
   5.060        683.33	    28.636
   5.080        706.67	    29.120
   5.100        669.17	    28.337
   5.120        652.50	    27.982
   5.140        662.50	    28.196
   5.160        631.67	    27.532
   5.180        617.50	    27.221
   5.200        650.83	    27.946
   5.220        602.50	    26.889
   5.240        615.83	    27.185
   5.260        615.83	    27.185
   5.280        600.00	    26.833
   5.300        589.17	    26.589
   5.320        586.67	    26.533
   5.340        589.17	    26.589
   5.360        568.33	    26.115
   5.380        544.17	    25.554
   5.400        534.17	    25.318
   5.420        558.33	    25.884
   5.440        530.00	    25.219
   5.460        515.83	    24.880
   5.480        516.67	    24.900
   5.500        511.67	    24.779
   5.520        508.33	    24.698
   5.540        491.67	    24.290
   5.560        510.00	    24.739
   5.580        519.17	    24.960
   5.600        520.00	    24.980
   5.620        479.17	    23.979
   5.640        460.83	    23.516
   5.660        504.17	    24.597
   5.680        439.17	    22.956
   5.700        445.83	    23.130
   5.720        465.83	    23.643
   5.740        435.83	    22.869
   5.760        452.50	    23.302
   5.780        465.00	    23.622
   5.800        455.83	    23.388
   5.820        460.83	    23.516
   5.840        424.17	    22.561
   5.860        465.00	    23.622
   5.880        405.00	    22.045
   5.900        420.00	    22.450
   5.920        425.00	    22.583
   5.940        446.67	    23.152
   5.960        418.33	    22.405
   5.980        435.83	    22.869
   6.000        432.50	    22.782
   6.020        422.50	    22.517
   6.040        410.00	    22.181
   6.060        405.00	    22.045
   6.080        402.50	    21.977
   6.100        388.33	    21.587
   6.120        395.00	    21.772
   6.140        355.83	    20.664
   6.160        405.83	    22.068
   6.180        373.33	    21.166
   6.200        380.83	    21.378
   6.220        380.00	    21.354
   6.240        340.00	    20.199
   6.260        378.33	    21.307
   6.280        384.17	    21.471
   6.300        429.17	    22.694
   6.320        373.33	    21.166
   6.340        372.50	    21.142
   6.360        335.00	    20.050
   6.380        329.17	    19.875
   6.400        326.67	    19.799
   6.420        340.00	    20.199
   6.440        355.00	    20.640
   6.460        342.50	    20.273
   6.480        334.17	    20.025
   6.500        355.00	    20.640
   6.520        320.00	    19.596
   6.540        405.83	    22.068
   6.560        332.50	    19.975
   6.580        349.17	    20.469
   6.600        330.00	    19.900
   6.620        322.50	    19.672
   6.640        322.50	    19.672
   6.660        310.83	    19.313
   6.680        309.17	    19.261
   6.700        332.50	    19.975
   6.720        340.00	    20.199
   6.740        345.83	    20.372
   6.760        310.00	    19.287
   6.780        301.67	    19.026
   6.800        320.83	    19.621
   6.820        311.67	    19.339
   6.840        302.50	    19.053
   6.860        305.00	    19.131
   6.880        304.17	    19.105
   6.900        309.17	    19.261
   6.920        287.50	    18.574
   6.940        292.50	    18.735
   6.960        268.33	    17.944
   6.980        285.00	    18.493
   7.000        312.50	    19.365
   7.020        297.50	    18.894
   7.040        300.00	    18.974
   7.060        302.50	    19.053
   7.080        261.67	    17.720
   7.100        275.00	    18.166
   7.120        298.33	    18.921
   7.140        278.33	    18.276
   7.160        298.33	    18.921
   7.180        284.17	    18.466
   7.200        297.50	    18.894
   7.220        290.83	    18.682
   7.240        264.17	    17.804
   7.260        262.50	    17.748
   7.280        256.67	    17.550
   7.300        261.67	    17.720
   7.320        250.00	    17.321
   7.340        272.50	    18.083
   7.360        295.83	    18.841
   7.380        293.33	    18.762
   7.400        262.50	    17.748
   7.420        253.33	    17.436
   7.440        267.50	    17.916
   7.460        254.17	    17.464
   7.480        253.33	    17.436
   7.500        251.67	    17.378
   7.520        250.00	    17.321
   7.540        260.83	    17.692
   7.560        237.50	    16.882
   7.580        290.83	    18.682
   7.600        240.83	    17.000
   7.620        226.67	    16.492
   7.640        250.00	    17.321
   7.660        234.17	    16.763
   7.680        256.67	    17.550
   7.700        225.00	    16.432
   7.720        233.33	    16.733
   7.740        241.67	    17.029
   7.760        238.33	    16.912
   7.780        222.50	    16.340
   7.800        215.83	    16.093
   7.820        220.00	    16.248
   7.840        221.67	    16.310
   7.860        217.50	    16.155
   7.880        219.17	    16.217
   7.900        232.50	    16.703
   7.920        251.67	    17.378
   7.940        218.33	    16.186
   7.960        242.50	    17.059
   7.980        229.17	    16.583
   8.000        208.33	    15.811
   8.020        200.83	    15.524
   8.040        233.33	    16.733
   8.060        240.00	    16.971
   8.080        230.83	    16.643
   8.100        232.50	    16.703
   8.120        239.17	    16.941
   8.140        228.33	    16.553
   8.160        239.17	    16.941
   8.180        215.83	    16.093
   8.200        239.17	    16.941
   8.220        214.17	    16.031
   8.240        242.50	    17.059
   8.260        203.33	    15.620
   8.280        224.17	    16.401
   8.300        206.67	    15.748
   8.320        210.83	    15.906
   8.340        199.17	    15.460
   8.360        190.00	    15.100
   8.380        260.00	    17.664
   8.400        226.67	    16.492
   8.420        197.50	    15.395
   8.440        215.83	    16.093
   8.460        206.67	    15.748
   8.480        222.50	    16.340
   8.500        203.33	    15.620
   8.520        228.33	    16.553
   8.540        190.83	    15.133
   8.560        195.83	    15.330
   8.580        193.33	    15.232
   8.600        211.67	    15.937
   8.620        203.33	    15.620
   8.640        186.67	    14.967
   8.660        208.33	    15.811
   8.680        178.33	    14.629
   8.700        210.83	    15.906
   8.720        187.50	    15.000
   8.740        194.17	    15.264
   8.760        180.83	    14.731
   8.780        210.83	    15.906
   8.800        203.33	    15.620
   8.820        211.67	    15.937
   8.840        200.00	    15.492
   8.860        210.83	    15.906
   8.880        216.67	    16.125
   8.900        209.17	    15.843
   8.920        179.17	    14.663
   8.940        203.33	    15.620
   8.960        208.33	    15.811
   8.980        188.33	    15.033
   9.000        181.67	    14.765
   9.020        195.83	    15.330
   9.040        172.50	    14.387
   9.060        194.17	    15.264
   9.080        175.83	    14.526
   9.100        208.33	    15.811
   9.120        191.67	    15.166
   9.140        215.83	    16.093
   9.160        212.50	    15.969
   9.180        209.17	    15.843
   9.200        220.83	    16.279
   9.220        218.33	    16.186
   9.240        193.33	    15.232
   9.260        190.00	    15.100
   9.280        185.83	    14.933
   9.300        194.17	    15.264
   9.320        217.50	    16.155
   9.340        210.00	    15.875
   9.360        206.67	    15.748
   9.380        199.17	    15.460
   9.400        209.17	    15.843
   9.420        204.17	    15.652
   9.440        205.00	    15.684
   9.460        210.83	    15.906
   9.480        190.83	    15.133
   9.500        197.50	    15.395
   9.520        215.00	    16.062
   9.540        169.17	    14.248
   9.560        169.17	    14.248
   9.580        183.33	    14.832
   9.600        175.83	    14.526
   9.620        174.17	    14.457
   9.640        158.33	    13.784
   9.660        175.00	    14.491
   9.680        173.33	    14.422
   9.700        162.50	    13.964
   9.720        176.67	    14.560
   9.740        170.83	    14.318
   9.760        165.83	    14.107
   9.780        165.83	    14.107
   9.800        159.17	    13.820
   9.820        163.33	    14.000
   9.840        174.17	    14.457
   9.860        167.50	    14.177
   9.880        175.83	    14.526
   9.900        151.67	    13.491
   9.920        188.33	    15.033
   9.940        155.00	    13.638
   9.960        163.33	    14.000
   9.980        189.17	    15.067
  10.000        184.17	    14.866
  10.020        165.00	    14.071
  10.040        156.67	    13.711
  10.060        163.33	    14.000
  10.080        140.00	    12.961
  10.100        140.83	    13.000
  10.120        155.00	    13.638
  10.140        165.83	    14.107
  10.160        151.67	    13.491
  10.180        154.17	    13.601
  10.200        142.50	    13.077
  10.220        148.33	    13.342
  10.240        157.50	    13.748
  10.260        160.83	    13.892
  10.280        160.00	    13.856
  10.300        129.17	    12.450
  10.320        130.83	    12.530
  10.340        165.83	    14.107
  10.360        166.67	    14.142
  10.380        146.67	    13.266
  10.400        145.83	    13.229
  10.420        161.67	    13.928
  10.440        116.67	    11.832
  10.460        154.17	    13.601
  10.480        140.83	    13.000
  10.500        135.00	    12.728
  10.520        130.00	    12.490
  10.540        150.00	    13.416
  10.560        146.67	    13.266
  10.580        145.83	    13.229
  10.600        114.17	    11.705
  10.620        137.50	    12.845
  10.640        118.33	    11.916
  10.660        139.17	    12.923
  10.680        123.33	    12.166
  10.700        147.50	    13.304
  10.720        133.33	    12.649
  10.740        145.00	    13.191
  10.760        146.67	    13.266
  10.780        125.00	    12.247
  10.800        154.17	    13.601
  10.820        127.50	    12.369
  10.840        142.50	    13.077
  10.860        122.50	    12.124
  10.880        154.17	    13.601
  10.900        115.83	    11.790
  10.920        153.33	    13.565
  10.940        130.00	    12.490
  10.960        137.50	    12.845
  10.980        133.33	    12.649
  11.000        131.67	    12.570
  11.020        157.50	    13.748
  11.040        118.33	    11.916
  11.060        129.17	    12.450
  11.080        146.67	    13.266
  11.100        139.17	    12.923
  11.120        145.83	    13.229
  11.140        140.00	    12.961
  11.160        138.33	    12.884
  11.180        145.00	    13.191
  11.200        120.00	    12.000
  11.220        128.33	    12.410
  11.240        131.67	    12.570
  11.260        114.17	    11.705
  11.280        118.33	    11.916
  11.300        118.33	    11.916
  11.320        128.33	    12.410
  11.340        125.83	    12.288
  11.360        125.83	    12.288
  11.380        130.00	    12.490
  11.400        129.17	    12.450
  11.420        124.17	    12.207
  11.440        150.83	    13.454
  11.460        134.17	    12.689
  11.480        119.17	    11.958
  11.500        144.17	    13.153
  11.520        135.83	    12.767
  11.540        132.50	    12.610
  11.560        126.67	    12.329
  11.580        122.50	    12.124
  11.600        108.33	    11.402
  11.620        115.00	    11.747
  11.640        130.83	    12.530
  11.660        139.17	    12.923
  11.680        124.17	    12.207
  11.700        156.67	    13.711
  11.720        135.00	    12.728
  11.740        135.00	    12.728
  11.760        148.33	    13.342
  11.780        158.33	    13.784
  11.800        155.00	    13.638
  11.820        164.17	    14.036
  11.840        161.67	    13.928
  11.860        165.00	    14.071
  11.880        180.00	    14.697
  11.900        180.00	    14.697
  11.920        217.50	    16.155
  11.940        214.17	    16.031
  11.960        226.67	    16.492
  11.980        197.50	    15.395
  12.000        206.67	    15.748
  12.020        226.67	    16.492
  12.040        179.17	    14.663
  12.060        203.33	    15.620
  12.080        216.67	    16.125
  12.100        175.83	    14.526
  12.120        143.33	    13.115
  12.140        141.67	    13.038
  12.160        135.83	    12.767
  12.180        141.67	    13.038
  12.200        129.17	    12.450
  12.220        115.00	    11.747
  12.240        129.17	    12.450
  12.260        100.00	    10.954
  12.280        122.50	    12.124
  12.300        119.17	    11.958
  12.320        101.67	    11.045
  12.340        109.17	    11.446
  12.360        121.67	    12.083
  12.380        123.33	    12.166
  12.400        119.17	    11.958
  12.420        115.00	    11.747
  12.440        113.33	    11.662
  12.460        115.83	    11.790
  12.480        113.33	    11.662
  12.500        128.33	    12.410
  12.520        110.83	    11.533
  12.540        109.17	    11.446
  12.560        125.83	    12.288
  12.580        126.67	    12.329
  12.600        123.33	    12.166
  12.620        116.67	    11.832
  12.640        109.17	    11.446
  12.660        119.17	    11.958
  12.680        104.17	    11.180
  12.700        109.17	    11.446
  12.720         81.67	     9.899
  12.740        111.67	    11.576
  12.760        106.67	    11.314
  12.780         95.00	    10.677
  12.800         96.67	    10.770
  12.820        100.83	    11.000
  12.840        100.00	    10.954
  12.860        102.50	    11.091
  12.880         91.67	    10.488
  12.900        106.67	    11.314
  12.920        113.33	    11.662
  12.940         98.33	    10.863
  12.960        113.33	    11.662
  12.980        118.33	    11.916
  13.000         98.33	    10.863
  13.020         92.50	    10.536
  13.040        101.67	    11.045
  13.060        107.50	    11.358
  13.080         96.67	    10.770
  13.100        107.50	    11.358
  13.120         85.83	    10.149
  13.140         97.50	    10.817
  13.160        107.50	    11.358
  13.180         71.67	     9.274
  13.200        105.00	    11.225
  13.220         80.83	     9.849
  13.240         95.83	    10.724
  13.260        106.67	    11.314
  13.280         74.17	     9.434
  13.300        117.50	    11.874
  13.320         88.33	    10.296
  13.340         96.67	    10.770
  13.360        109.17	    11.446
  13.380         87.50	    10.247
  13.400         95.00	    10.677
  13.420        104.17	    11.180
  13.440        100.83	    11.000
  13.460        118.33	    11.916
  13.480         96.67	    10.770
  13.500        100.00	    10.954
  13.520        106.67	    11.314
  13.540        115.00	    11.747
  13.560        114.17	    11.705
  13.580        120.00	    12.000
  13.600        106.67	    11.314
  13.620        130.83	    12.530
  13.640        117.50	    11.874
  13.660        104.17	    11.180
  13.680        136.67	    12.806
  13.700        111.67	    11.576
  13.720        120.83	    12.042
  13.740        132.50	    12.610
  13.760        119.17	    11.958
  13.780        103.33	    11.136
  13.800        106.67	    11.314
  13.820         99.17	    10.909
  13.840         81.67	     9.899
  13.860         95.83	    10.724
  13.880         91.67	    10.488
  13.900         77.50	     9.644
  13.920         88.33	    10.296
  13.940         92.50	    10.536
  13.960         87.50	    10.247
  13.980         80.00	     9.798
  14.000         88.33	    10.296
  14.020         90.00	    10.392
  14.040         81.67	     9.899
  14.060        103.33	    11.136
  14.080        100.00	    10.954
  14.100         81.67	     9.899
  14.120         76.67	     9.592
  14.140         92.50	    10.536
  14.160         81.67	     9.899
  14.180         86.67	    10.198
  14.200         72.50	     9.327
  14.220         87.50	    10.247
  14.240         87.50	    10.247
  14.260         93.33	    10.583
  14.280         80.83	     9.849
  14.300         74.17	     9.434
  14.320         85.83	    10.149
  14.340         75.00	     9.487
  14.360         80.00	     9.798
  14.380         67.50	     9.000
  14.400         80.00	     9.798
  14.420         76.67	     9.592
  14.440         83.33	    10.000
  14.460         84.17	    10.050
  14.480         66.67	     8.944
  14.500         85.83	    10.149
  14.520         77.50	     9.644
  14.540         87.50	    10.247
  14.560         92.50	    10.536
  14.580         71.67	     9.274
  14.600         76.67	     9.592
  14.620         80.83	     9.849
  14.640         92.50	    10.536
  14.660         90.83	    10.440
  14.680         82.50	     9.950
  14.700         82.50	     9.950
  14.720         79.17	     9.747
  14.740         84.17	    10.050
  14.760         68.33	     9.055
  14.780         74.17	     9.434
  14.800         80.83	     9.849
  14.820         61.67	     8.602
  14.840        102.50	    11.091
  14.860         76.67	     9.592
  14.880         89.17	    10.344
  14.900         77.50	     9.644
  14.920         73.33	     9.381
  14.940         75.00	     9.487
  14.960         75.00	     9.487
  14.980         91.67	    10.488
  15.000         97.50	    10.817
  15.020        101.67	    11.045
  15.040        105.00	    11.225
  15.060         92.50	    10.536
  15.080        100.00	    10.954
  15.100        119.17	    11.958
  15.120        161.67	    13.928
  15.140        182.50	    14.799
  15.160        183.33	    14.832
  15.180        207.50	    15.780
  15.200        240.83	    17.000
  15.220        281.67	    18.385
  15.240        292.50	    18.735
  15.260        350.83	    20.518
  15.280        323.33	    19.698
  15.300        378.33	    21.307
  15.320        420.83	    22.472
  15.340        397.50	    21.840
  15.360        417.50	    22.383
  15.380        389.17	    21.610
  15.400        328.33	    19.849
  15.420        295.83	    18.841
  15.440        266.67	    17.889
  15.460        286.67	    18.547
  15.480        261.67	    17.720
  15.500        230.83	    16.643
  15.520        260.83	    17.692
  15.540        220.00	    16.248
  15.560        252.50	    17.407
  15.580        241.67	    17.029
  15.600        228.33	    16.553
  15.620        238.33	    16.912
  15.640        203.33	    15.620
  15.660        214.17	    16.031
  15.680        215.00	    16.062
  15.700        170.83	    14.318
  15.720        147.50	    13.304
  15.740        141.67	    13.038
  15.760        130.00	    12.490
  15.780        118.33	    11.916
  15.800         91.67	    10.488
  15.820         88.33	    10.296
  15.840         85.83	    10.149
  15.860         92.50	    10.536
  15.880         71.67	     9.274
  15.900         81.67	     9.899
  15.920         80.00	     9.798
  15.940         85.83	    10.149
  15.960         73.33	     9.381
  15.980         83.33	    10.000
  16.000         67.50	     9.000
  16.020         69.17	     9.110
  16.040         75.00	     9.487
  16.060         68.33	     9.055
  16.080         68.33	     9.055
  16.100         73.33	     9.381
  16.120         70.00	     9.165
  16.140         75.00	     9.487
  16.160         73.33	     9.381
  16.180         53.33	     8.000
  16.200         63.33	     8.718
  16.220         83.33	    10.000
  16.240         64.17	     8.775
  16.260         61.67	     8.602
  16.280         70.83	     9.220
  16.300         68.33	     9.055
  16.320         74.17	     9.434
  16.340         70.83	     9.220
  16.360         59.17	     8.426
  16.380         64.17	     8.775
  16.400         60.00	     8.485
  16.420         68.33	     9.055
  16.440         51.67	     7.874
  16.460         74.17	     9.434
  16.480         71.67	     9.274
  16.500         76.67	     9.592
  16.520         63.33	     8.718
  16.540         75.00	     9.487
  16.560         73.33	     9.381
  16.580         75.83	     9.539
  16.600         80.00	     9.798
  16.620         79.17	     9.747
  16.640         83.33	    10.000
  16.660         70.83	     9.220
  16.680         66.67	     8.944
  16.700         76.67	     9.592
  16.720         68.33	     9.055
  16.740         65.83	     8.888
  16.760         74.17	     9.434
  16.780         80.83	     9.849
  16.800         60.00	     8.485
  16.820         81.67	     9.899
  16.840         69.17	     9.110
  16.860         85.00	    10.100
  16.880         80.00	     9.798
  16.900         76.67	     9.592
  16.920         64.17	     8.775
  16.940         86.67	    10.198
  16.960         90.00	    10.392
  16.980        121.67	    12.083
  17.000        104.17	    11.180
  17.020         90.00	    10.392
  17.040         80.00	     9.798
  17.060         84.17	    10.050
  17.080         81.67	     9.899
  17.100         72.50	     9.327
  17.120         73.33	     9.381
  17.140         73.33	     9.381
  17.160         59.17	     8.426
  17.180         71.67	     9.274
  17.200         70.83	     9.220
  17.220         53.33	     8.000
  17.240         68.33	     9.055
  17.260         63.33	     8.718
  17.280         74.17	     9.434
  17.300         58.33	     8.367
  17.320         46.67	     7.483
  17.340         45.00	     7.348
  17.360         64.17	     8.775
  17.380         54.17	     8.062
  17.400         56.67	     8.246
  17.420         54.17	     8.062
  17.440         48.33	     7.616
  17.460         54.17	     8.062
  17.480         64.17	     8.775
  17.500         43.33	     7.211
  17.520         54.17	     8.062
  17.540         64.17	     8.775
  17.560         50.00	     7.746
  17.580         54.17	     8.062
  17.600         55.83	     8.185
  17.620         41.67	     7.071
  17.640         63.33	     8.718
  17.660         46.67	     7.483
  17.680         57.50	     8.307
  17.700         57.50	     8.307
  17.720         52.50	     7.937
  17.740         60.00	     8.485
  17.760         45.83	     7.416
  17.780         61.67	     8.602
  17.800         46.67	     7.483
  17.820         60.00	     8.485
  17.840         52.50	     7.937
  17.860         59.17	     8.426
  17.880         57.50	     8.307
  17.900         64.17	     8.775
  17.920         60.83	     8.544
  17.940         58.33	     8.367
  17.960         47.50	     7.550
  17.980         69.17	     9.110
  18.000         74.17	     9.434
  18.020         65.83	     8.888
  18.040         52.50	     7.937
  18.060         50.00	     7.746
  18.080         64.17	     8.775
  18.100         54.17	     8.062
  18.120         48.33	     7.616
  18.140         55.00	     8.124
  18.160         70.00	     9.165
  18.180         59.17	     8.426
  18.200         65.00	     8.832
  18.220         57.50	     8.307
  18.240         61.67	     8.602
  18.260         62.50	     8.660
  18.280         62.50	     8.660
  18.300         50.83	     7.810
  18.320         57.50	     8.307
  18.340         53.33	     8.000
  18.360         35.00	     6.481
  18.380         55.00	     8.124
  18.400         46.67	     7.483
  18.420         67.50	     9.000
  18.440         46.67	     7.483
  18.460         48.33	     7.616
  18.480         46.67	     7.483
  18.500         45.83	     7.416
  18.520         44.17	     7.280
  18.540         44.17	     7.280
  18.560         65.83	     8.888
  18.580         50.00	     7.746
  18.600         45.83	     7.416
  18.620         55.00	     8.124
  18.640         54.17	     8.062
  18.660         55.00	     8.124
  18.680         52.50	     7.937
  18.700         63.33	     8.718
  18.720         53.33	     8.000
  18.740         47.50	     7.550
  18.760         54.17	     8.062
  18.780         55.00	     8.124
  18.800         54.17	     8.062
  18.820         54.17	     8.062
  18.840         43.33	     7.211
  18.860         46.67	     7.483
  18.880         67.50	     9.000
  18.900         64.17	     8.775
  18.920         61.67	     8.602
  18.940         53.33	     8.000
  18.960         50.83	     7.810
  18.980         61.67	     8.602
  19.000         65.00	     8.832
  19.020         55.83	     8.185
  19.040         60.00	     8.485
  19.060         55.83	     8.185
  19.080         45.83	     7.416
  19.100         53.33	     8.000
  19.120         45.00	     7.348
  19.140         51.67	     7.874
  19.160         57.50	     8.307
  19.180         55.83	     8.185
  19.200         66.67	     8.944
  19.220         54.17	     8.062
  19.240         46.67	     7.483
  19.260         49.17	     7.681
  19.280         50.83	     7.810
  19.300         55.00	     8.124
  19.320         46.67	     7.483
  19.340         37.50	     6.708
  19.360         45.00	     7.348
  19.380         43.33	     7.211
  19.400         41.67	     7.071
  19.420         45.00	     7.348
  19.440         50.83	     7.810
  19.460         47.50	     7.550
  19.480         27.50	     5.745
  19.500         44.17	     7.280
  19.520         56.67	     8.246
  19.540         45.83	     7.416
  19.560         49.17	     7.681
  19.580         47.50	     7.550
  19.600         40.83	     7.000
  19.620         49.17	     7.681
  19.640         43.33	     7.211
  19.660         45.83	     7.416
  19.680         46.67	     7.483
  19.700         48.33	     7.616
  19.720         52.50	     7.937
  19.740         38.33	     6.782
  19.760         48.33	     7.616
  19.780         45.00	     7.348
  19.800         54.17	     8.062
  19.820         45.00	     7.348
  19.840         33.33	     6.325
  19.860         40.00	     6.928
  19.880         36.67	     6.633
  19.900         47.50	     7.550
  19.920         45.00	     7.348
  19.940         46.67	     7.483
  19.960         44.17	     7.280
  19.980         42.50	     7.141
  20.000         46.67	     7.483
  20.020         55.83	     8.185
  20.040         45.00	     7.348
  20.060         41.67	     7.071
  20.080         48.33	     7.616
  20.100         53.33	     8.000
  20.120         43.33	     7.211
  20.140         48.33	     7.616
  20.160         54.17	     8.062
  20.180         44.17	     7.280
  20.200         50.83	     7.810
  20.220         35.00	     6.481
  20.240         47.50	     7.550
  20.260         47.50	     7.550
  20.280         50.83	     7.810
  20.300         51.67	     7.874
  20.320         41.67	     7.071
  20.340         44.17	     7.280
  20.360         52.50	     7.937
  20.380         47.50	     7.550
  20.400         56.67	     8.246
  20.420         71.67	     9.274
  20.440         56.67	     8.246
  20.460         55.00	     8.124
  20.480         53.33	     8.000
  20.500         51.67	     7.874
  20.520         48.33	     7.616
  20.540         46.67	     7.483
  20.560         55.83	     8.185
  20.580         51.67	     7.874
  20.600         71.67	     9.274
  20.620         56.67	     8.246
  20.640         65.83	     8.888
  20.660         59.17	     8.426
  20.680         69.17	     9.110
  20.700         75.00	     9.487
  20.720         62.50	     8.660
  20.740         59.17	     8.426
  20.760         62.50	     8.660
  20.780         75.00	     9.487
  20.800         81.67	     9.899
  20.820         90.83	    10.440
  20.840        102.50	    11.091
  20.860        100.83	    11.000
  20.880         97.50	    10.817
  20.900        101.67	    11.045
  20.920         99.17	    10.909
  20.940         92.50	    10.536
  20.960         94.17	    10.630
  20.980        106.67	    11.314
  21.000         98.33	    10.863
  21.020         95.00	    10.677
  21.040         69.17	     9.110
  21.060         68.33	     9.055
  21.080         78.33	     9.695
  21.100         70.83	     9.220
  21.120         63.33	     8.718
  21.140         55.00	     8.124
  21.160         61.67	     8.602
  21.180         56.67	     8.246
  21.200         54.17	     8.062
  21.220         48.33	     7.616
  21.240         57.50	     8.307
  21.260         51.67	     7.874
  21.280         54.17	     8.062
  21.300         52.50	     7.937
  21.320         47.50	     7.550
  21.340         50.00	     7.746
  21.360         64.17	     8.775
  21.380         60.83	     8.544
  21.400         47.50	     7.550
  21.420         56.67	     8.246
  21.440         62.50	     8.660
  21.460         53.33	     8.000
  21.480         75.00	     9.487
  21.500         92.50	    10.536
  21.520         80.83	     9.849
  21.540         78.33	     9.695
  21.560         84.17	    10.050
  21.580         86.67	    10.198
  21.600         82.50	     9.950
  21.620         77.50	     9.644
  21.640         77.50	     9.644
  21.660         87.50	    10.247
  21.680         85.83	    10.149
  21.700        100.83	    11.000
  21.720         90.83	    10.440
  21.740        116.67	    11.832
  21.760        117.50	    11.874
  21.780        102.50	    11.091
  21.800        106.67	    11.314
  21.820        100.00	    10.954
  21.840        103.33	    11.136
  21.860        101.67	    11.045
  21.880         97.50	    10.817
  21.900        113.33	    11.662
  21.920        102.50	    11.091
  21.940        113.33	    11.662
  21.960        108.33	    11.402
  21.980        104.17	    11.180
  22.000        107.50	    11.358
  22.020         90.00	    10.392
  22.040         75.83	     9.539
  22.060         70.83	     9.220
  22.080         66.67	     8.944
  22.100         58.33	     8.367
  22.120         55.83	     8.185
  22.140         70.83	     9.220
  22.160         57.50	     8.307
  22.180         59.17	     8.426
  22.200         65.83	     8.888
  22.220         56.67	     8.246
  22.240         60.83	     8.544
  22.260         66.67	     8.944
  22.280         65.00	     8.832
  22.300         52.50	     7.937
  22.320         65.83	     8.888
  22.340         57.50	     8.307
  22.360         64.17	     8.775
  22.380         59.17	     8.426
  22.400         60.83	     8.544
  22.420         68.33	     9.055
  22.440         60.00	     8.485
  22.460         66.67	     8.944
  22.480         60.83	     8.544
  22.500         70.83	     9.220
  22.520         68.33	     9.055
  22.540         69.17	     9.110
  22.560         70.83	     9.220
  22.580         61.67	     8.602
  22.600         57.50	     8.307
  22.620         67.50	     9.000
  22.640         59.17	     8.426
  22.660         47.50	     7.550
  22.680         60.00	     8.485
  22.700         65.00	     8.832
  22.720         80.00	     9.798
  22.740         75.00	     9.487
  22.760         72.50	     9.327
  22.780         80.83	     9.849
  22.800         80.83	     9.849
  22.820         84.17	    10.050
  22.840         63.33	     8.718
  22.860         90.00	    10.392
  22.880         89.17	    10.344
  22.900         66.67	     8.944
  22.920         88.33	    10.296
  22.940         86.67	    10.198
  22.960         83.33	    10.000
  22.980         78.33	     9.695
  23.000         73.33	     9.381
  23.020         78.33	     9.695
  23.040         70.83	     9.220
  23.060         64.17	     8.775
  23.080         53.33	     8.000
  23.100         90.83	    10.440
  23.120         65.83	     8.888
  23.140         58.33	     8.367
  23.160         51.67	     7.874
  23.180         53.33	     8.000
  23.200         59.17	     8.426
  23.220         60.83	     8.544
  23.240         51.67	     7.874
  23.260         55.83	     8.185
  23.280         49.17	     7.681
  23.300         49.17	     7.681
  23.320         42.50	     7.141
  23.340         59.17	     8.426
  23.360         55.00	     8.124
  23.380         63.33	     8.718
  23.400         42.50	     7.141
  23.420         51.67	     7.874
  23.440         48.33	     7.616
  23.460         45.83	     7.416
  23.480         50.00	     7.746
  23.500         46.67	     7.483
  23.520         34.17	     6.403
  23.540         51.67	     7.874
  23.560         64.17	     8.775
  23.580         60.00	     8.485
  23.600         50.00	     7.746
  23.620         57.50	     8.307
  23.640         64.17	     8.775
  23.660         55.83	     8.185
  23.680         67.50	     9.000
  23.700         53.33	     8.000
  23.720         52.50	     7.937
  23.740         66.67	     8.944
  23.760         54.17	     8.062
  23.780         74.17	     9.434
  23.800         70.00	     9.165
  23.820        128.33	    12.410
  23.840        138.33	    12.884
  23.860        145.83	    13.229
  23.880        164.17	    14.036
  23.900        147.50	    13.304
  23.920        187.50	    15.000
  23.940        167.50	    14.177
  23.960        155.83	    13.675
  23.980        200.00	    15.492
  24.000        179.17	    14.663
  24.020        170.00	    14.283
  24.040        210.83	    15.906
  24.060        145.83	    13.229
  24.080        140.83	    13.000
  24.100        137.50	    12.845
  24.120        120.83	    12.042
  24.140         77.50	     9.644
  24.160        102.50	    11.091
  24.180         80.00	     9.798
  24.200         73.33	     9.381
  24.220         53.33	     8.000
  24.240         70.00	     9.165
  24.260         62.50	     8.660
  24.280         59.17	     8.426
  24.300         50.00	     7.746
  24.320         63.33	     8.718
  24.340         51.67	     7.874
  24.360         63.33	     8.718
  24.380         55.83	     8.185
  24.400         66.67	     8.944
  24.420         46.67	     7.483
  24.440         51.67	     7.874
  24.460         56.67	     8.246
  24.480         55.00	     8.124
  24.500         41.67	     7.071
  24.520         59.17	     8.426
  24.540         44.17	     7.280
  24.560         65.83	     8.888
  24.580         60.00	     8.485
  24.600         47.50	     7.550
  24.620         52.50	     7.937
  24.640         48.33	     7.616
  24.660         50.00	     7.746
  24.680         51.67	     7.874
  24.700         66.67	     8.944
  24.720         60.83	     8.544
  24.740         73.33	     9.381
  24.760         57.50	     8.307
  24.780         53.33	     8.000
  24.800         67.50	     9.000
  24.820         58.33	     8.367
  24.840         56.67	     8.246
  24.860         70.83	     9.220
  24.880         70.00	     9.165
  24.900         63.33	     8.718
  24.920         86.67	    10.198
  24.940         80.00	     9.798
  24.960         75.83	     9.539
  24.980         77.50	     9.644
  25.000         95.83	    10.724
  25.020         91.67	    10.488
  25.040         97.50	    10.817
  25.060         95.83	    10.724
  25.080        104.17	    11.180
  25.100        145.83	    13.229
  25.120        164.17	    14.036
  25.140        176.67	    14.560
  25.160        197.50	    15.395
  25.180        199.17	    15.460
  25.200        237.50	    16.882
  25.220        175.83	    14.526
  25.240        167.50	    14.177
  25.260        129.17	    12.450
  25.280        110.83	    11.533
  25.300        107.50	    11.358
  25.320         84.17	    10.050
  25.340         78.33	     9.695
  25.360         60.00	     8.485
  25.380         70.83	     9.220
  25.400         63.33	     8.718
  25.420         60.83	     8.544
  25.440         66.67	     8.944
  25.460         73.33	     9.381
  25.480         72.50	     9.327
  25.500         66.67	     8.944
  25.520         72.50	     9.327
  25.540         74.17	     9.434
  25.560         66.67	     8.944
  25.580         69.17	     9.110
  25.600         65.83	     8.888
  25.620         60.83	     8.544
  25.640         61.67	     8.602
  25.660         57.50	     8.307
  25.680         59.17	     8.426
  25.700         60.83	     8.544
  25.720         53.33	     8.000
  25.740         54.17	     8.062
  25.760         57.50	     8.307
  25.780         57.50	     8.307
  25.800         50.83	     7.810
  25.820         53.33	     8.000
  25.840         61.67	     8.602
  25.860         52.50	     7.937
  25.880         84.17	    10.050
  25.900         74.17	     9.434
  25.920         85.00	    10.100
  25.940         75.00	     9.487
  25.960         86.67	    10.198
  25.980         88.33	    10.296
  26.000        107.50	    11.358
  26.020        119.17	    11.958
  26.040        111.67	    11.576
  26.060         91.67	    10.488
  26.080         90.83	    10.440
  26.100        102.50	    11.091
  26.120        106.67	    11.314
  26.140        104.17	    11.180
  26.160        100.83	    11.000
  26.180         95.00	    10.677
  26.200         98.33	    10.863
  26.220         64.17	     8.775
  26.240         70.83	     9.220
  26.260         73.33	     9.381
  26.280         55.83	     8.185
  26.300         65.00	     8.832
  26.320         50.00	     7.746
  26.340         55.00	     8.124
  26.360         57.50	     8.307
  26.380         61.67	     8.602
  26.400         79.17	     9.747
  26.420         63.33	     8.718
  26.440         67.50	     9.000
  26.460         67.50	     9.000
  26.480         63.33	     8.718
  26.500         71.67	     9.274
  26.520         89.17	    10.344
  26.540         90.00	    10.392
  26.560        123.33	    12.166
  26.580        119.17	    11.958
  26.600        127.50	    12.369
  26.620        150.83	    13.454
  26.640        144.17	    13.153
  26.660        127.50	    12.369
  26.680        137.50	    12.845
  26.700        148.33	    13.342
  26.720        155.83	    13.675
  26.740        138.33	    12.884
  26.760        125.00	    12.247
  26.780        115.00	    11.747
  26.800        109.17	    11.446
  26.820        119.17	    11.958
  26.840         90.00	    10.392
  26.860        106.67	    11.314
  26.880        105.83	    11.269
  26.900         99.17	    10.909
  26.920         95.00	    10.677
  26.940         95.83	    10.724
  26.960         92.50	    10.536
  26.980        103.33	    11.136
  27.000         79.17	     9.747
  27.020        100.00	    10.954
  27.040         93.33	    10.583
  27.060         80.83	     9.849
  27.080         75.00	     9.487
  27.100         82.50	     9.950
  27.120         75.00	     9.487
  27.140         92.50	    10.536
  27.160         96.67	    10.770
  27.180         90.00	    10.392
  27.200        108.33	    11.402
  27.220        115.83	    11.790
  27.240        109.17	    11.446
  27.260        120.00	    12.000
  27.280        117.50	    11.874
  27.300        133.33	    12.649
  27.320        146.67	    13.266
  27.340        169.17	    14.248
  27.360        179.17	    14.663
  27.380        194.17	    15.264
  27.400        168.33	    14.213
  27.420        172.50	    14.387
  27.440        179.17	    14.663
  27.460        198.33	    15.427
  27.480        228.33	    16.553
  27.500        166.67	    14.142
  27.520        217.50	    16.155
  27.540        186.67	    14.967
  27.560        230.00	    16.613
  27.580        236.67	    16.852
  27.600        290.00	    18.655
  27.620        280.00	    18.330
  27.640        300.00	    18.974
  27.660        348.33	    20.445
  27.680        400.83	    21.932
  27.700        452.50	    23.302
  27.720        435.00	    22.847
  27.740        496.67	    24.413
  27.760        439.17	    22.956
  27.780        410.00	    22.181
  27.800        401.67	    21.954
  27.820        329.17	    19.875
  27.840        282.50	    18.412
  27.860        302.50	    19.053
  27.880        254.17	    17.464
  27.900        217.50	    16.155
  27.920        214.17	    16.031
  27.940        203.33	    15.620
  27.960        180.00	    14.697
  27.980        162.50	    13.964
  28.000        179.17	    14.663
  28.020        153.33	    13.565
  28.040        162.50	    13.964
  28.060        167.50	    14.177
  28.080        161.67	    13.928
  28.100        185.00	    14.900
  28.120        200.83	    15.524
  28.140        198.33	    15.427
  28.160        230.83	    16.643
  28.180        217.50	    16.155
  28.200        240.00	    16.971
  28.220        217.50	    16.155
  28.240        240.00	    16.971
  28.260        233.33	    16.733
  28.280        285.83	    18.520
  28.300        255.83	    17.521
  28.320        237.50	    16.882
  28.340        193.33	    15.232
  28.360        181.67	    14.765
  28.380        165.83	    14.107
  28.400        145.00	    13.191
  28.420        142.50	    13.077
  28.440        147.50	    13.304
  28.460        143.33	    13.115
  28.480        135.00	    12.728
  28.500        157.50	    13.748
  28.520        179.17	    14.663
  28.540        193.33	    15.232
  28.560        168.33	    14.213
  28.580        180.83	    14.731
  28.600        166.67	    14.142
  28.620        195.00	    15.297
  28.640        169.17	    14.248
  28.660        170.00	    14.283
  28.680        175.00	    14.491
  28.700        158.33	    13.784
  28.720        134.17	    12.689
  28.740        135.00	    12.728
  28.760        135.00	    12.728
  28.780        106.67	    11.314
  28.800        110.83	    11.533
  28.820        114.17	    11.705
  28.840         96.67	    10.770
  28.860         88.33	    10.296
  28.880         76.67	     9.592
  28.900         73.33	     9.381
  28.920         68.33	     9.055
  28.940         70.00	     9.165
  28.960         59.17	     8.426
  28.980         80.00	     9.798
  29.000         56.67	     8.246
  29.020         60.00	     8.485
  29.040         72.50	     9.327
  29.060         66.67	     8.944
  29.080         77.50	     9.644
  29.100         61.67	     8.602
  29.120         76.67	     9.592
  29.140         65.00	     8.832
  29.160         63.33	     8.718
  29.180         65.00	     8.832
  29.200         70.00	     9.165
  29.220         87.50	    10.247
  29.240        105.83	    11.269
  29.260         79.17	     9.747
  29.280         95.83	    10.724
  29.300         88.33	    10.296
  29.320        103.33	    11.136
  29.340         94.17	    10.630
  29.360        122.50	    12.124
  29.380        128.33	    12.410
  29.400        127.50	    12.369
  29.420        137.50	    12.845
  29.440        166.67	    14.142
  29.460        174.17	    14.457
  29.480        170.83	    14.318
  29.500        192.50	    15.199
  29.520        209.17	    15.843
  29.540        234.17	    16.763
  29.560        265.00	    17.833
  29.580        299.17	    18.947
  29.600        350.83	    20.518
  29.620        398.33	    21.863
  29.640        479.17	    23.979
  29.660        563.33	    26.000
  29.680        672.50	    28.408
  29.700        815.00	    31.273
  29.720        871.67	    32.342
  29.740        900.83	    32.879
  29.760       1035.00	    35.242
  29.780       1007.50	    34.771
  29.800        898.33	    32.833
  29.820        806.67	    31.113
  29.840        717.50	    29.343
  29.860        609.17	    27.037
  29.880        548.33	    25.652
  29.900        471.67	    23.791
  29.920        414.17	    22.293
  29.940        355.83	    20.664
  29.960        385.00	    21.494
  29.980        376.67	    21.260
  30.000        356.67	    20.688
  30.020        350.00	    20.494
  30.040        351.67	    20.543
  30.060        306.67	    19.183
  30.080        282.50	    18.412
  30.100        280.83	    18.358
  30.120        224.17	    16.401
  30.140        185.83	    14.933
  30.160        149.17	    13.379
  30.180        141.67	    13.038
  30.200        132.50	    12.610
  30.220        115.00	    11.747
  30.240        107.50	    11.358
  30.260        131.67	    12.570
  30.280        115.00	    11.747
  30.300        136.67	    12.806
  30.320        128.33	    12.410
  30.340        134.17	    12.689
  30.360        125.00	    12.247
  30.380        149.17	    13.379
  30.400        160.83	    13.892
  30.420        160.83	    13.892
  30.440        141.67	    13.038
  30.460        145.00	    13.191
  30.480        175.00	    14.491
  30.500        157.50	    13.748
  30.520        158.33	    13.784
  30.540        132.50	    12.610
  30.560        179.17	    14.663
  30.580        172.50	    14.387
  30.600        167.50	    14.177
  30.620        160.83	    13.892
  30.640        183.33	    14.832
  30.660        175.83	    14.526
  30.680        185.00	    14.900
  30.700        204.17	    15.652
  30.720        169.17	    14.248
  30.740        177.50	    14.595
  30.760        195.83	    15.330
  30.780        199.17	    15.460
  30.800        223.33	    16.371
  30.820        262.50	    17.748
  30.840        378.33	    21.307
  30.860        569.17	    26.134
  30.880        460.83	    23.516
  30.900        418.33	    22.405
  30.920        430.83	    22.738
  30.940        473.33	    23.833
  30.960        449.17	    23.216
  30.980        437.50	    22.913
  31.000        696.67	    28.914
  31.020        812.50	    31.225
  31.040        721.67	    29.428
  31.060        665.83	    28.267
  31.080        693.33	    28.844
  31.100        574.17	    26.249
  31.120        478.33	    23.958
  31.140        333.33	    20.000
  31.160        275.83	    18.193
  31.180        226.67	    16.492
  31.200        210.00	    15.875
  31.220        180.83	    14.731
  31.240        167.50	    14.177
  31.260        160.00	    13.856
  31.280        143.33	    13.115
  31.300        165.00	    14.071
  31.320        160.00	    13.856
  31.340        139.17	    12.923
  31.360        117.50	    11.874
  31.380        135.83	    12.767
  31.400        126.67	    12.329
  31.420        131.67	    12.570
  31.440        114.17	    11.705
  31.460         99.17	    10.909
  31.480        108.33	    11.402
  31.500        114.17	    11.705
  31.520        116.67	    11.832
  31.540        124.17	    12.207
  31.560        122.50	    12.124
  31.580        114.17	    11.705
  31.600        111.67	    11.576
  31.620        144.17	    13.153
  31.640        185.83	    14.933
  31.660        173.33	    14.422
  31.680        170.83	    14.318
  31.700        155.83	    13.675
  31.720        210.83	    15.906
  31.740        241.67	    17.029
  31.760        240.83	    17.000
  31.780        205.83	    15.716
  31.800        172.50	    14.387
  31.820        169.17	    14.248
  31.840        152.50	    13.528
  31.860        144.17	    13.153
  31.880        118.33	    11.916
  31.900         68.33	     9.055
  31.920         80.00	     9.798
  31.940         74.17	     9.434
  31.960         59.17	     8.426
  31.980         70.00	     9.165
  32.000         61.67	     8.602
  32.020         54.17	     8.062
  32.040         44.17	     7.280
  32.060         45.00	     7.348
  32.080         55.00	     8.124
  32.100         60.00	     8.485
  32.120         38.33	     6.782
  32.140         44.17	     7.280
  32.160         32.50	     6.245
  32.180         48.33	     7.616
  32.200         50.83	     7.810
  32.220         65.00	     8.832
  32.240         72.50	     9.327
  32.260         47.50	     7.550
  32.280         60.00	     8.485
  32.300         55.83	     8.185
  32.320         45.83	     7.416
  32.340         60.00	     8.485
  32.360         55.83	     8.185
  32.380         38.33	     6.782
  32.400         46.67	     7.483
  32.420         41.67	     7.071
  32.440         45.83	     7.416
  32.460         45.83	     7.416
  32.480         51.67	     7.874
  32.500         43.33	     7.211
  32.520         46.67	     7.483
  32.540         58.33	     8.367
  32.560         50.83	     7.810
  32.580         47.50	     7.550
  32.600         44.17	     7.280
  32.620         59.17	     8.426
  32.640         58.33	     8.367
  32.660         57.50	     8.307
  32.680         45.00	     7.348
  32.700         65.00	     8.832
  32.720         65.00	     8.832
  32.740         60.00	     8.485
  32.760         79.17	     9.747
  32.780         59.17	     8.426
  32.800         70.83	     9.220
  32.820        100.83	    11.000
  32.840        100.00	    10.954
  32.860        124.17	    12.207
  32.880        120.83	    12.042
  32.900        148.33	    13.342
  32.920        142.50	    13.077
  32.940        155.83	    13.675
  32.960        142.50	    13.077
  32.980        195.83	    15.330
  33.000        165.83	    14.107
  33.020        165.00	    14.071
  33.040        181.67	    14.765
  33.060        130.83	    12.530
  33.080        159.17	    13.820
  33.100        145.83	    13.229
  33.120        130.00	    12.490
  33.140        135.00	    12.728
  33.160        110.83	    11.533
  33.180        131.67	    12.570
  33.200        123.33	    12.166
  33.220        149.17	    13.379
  33.240        115.00	    11.747
  33.260        117.50	    11.874
  33.280        108.33	    11.402
  33.300        107.50	    11.358
  33.320        129.17	    12.450
  33.340        133.33	    12.649
  33.360        119.17	    11.958
  33.380        110.83	    11.533
  33.400        115.00	    11.747
  33.420        120.00	    12.000
  33.440        115.83	    11.790
  33.460        131.67	    12.570
  33.480        133.33	    12.649
  33.500        159.17	    13.820
  33.520        143.33	    13.115
  33.540        130.00	    12.490
  33.560        108.33	    11.402
  33.580        120.83	    12.042
  33.600        115.83	    11.790
  33.620         99.17	    10.909
  33.640        120.00	    12.000
  33.660        111.67	    11.576
  33.680         98.33	    10.863
  33.700         90.00	    10.392
  33.720         74.17	     9.434
  33.740         80.00	     9.798
  33.760         74.17	     9.434
  33.780         66.67	     8.944
  33.800         83.33	    10.000
  33.820         60.83	     8.544
  33.840         73.33	     9.381
  33.860         92.50	    10.536
  33.880         95.00	    10.677
  33.900        135.83	    12.767
  33.920        128.33	    12.410
  33.940        115.83	    11.790
  33.960        117.50	    11.874
  33.980         99.17	    10.909
  34.000        120.83	    12.042
  34.020        111.67	    11.576
  34.040        134.17	    12.689
  34.060        115.83	    11.790
  34.080        114.17	    11.705
  34.100        130.83	    12.530
  34.120        120.83	    12.042
  34.140        100.00	    10.954
  34.160        110.83	    11.533
  34.180         89.17	    10.344
  34.200        110.00	    11.489
  34.220         97.50	    10.817
  34.240        113.33	    11.662
  34.260         99.17	    10.909
  34.280        128.33	    12.410
  34.300        109.17	    11.446
  34.320        134.17	    12.689
  34.340        133.33	    12.649
  34.360        150.00	    13.416
  34.380        148.33	    13.342
  34.400        141.67	    13.038
  34.420        120.83	    12.042
  34.440        110.83	    11.533
  34.460        122.50	    12.124
  34.480        105.00	    11.225
  34.500         98.33	    10.863
  34.520        104.17	    11.180
  34.540         80.00	     9.798
  34.560         88.33	    10.296
  34.580         93.33	    10.583
  34.600         91.67	    10.488
  34.620         94.17	    10.630
  34.640         95.00	    10.677
  34.660         80.83	     9.849
  34.680         75.83	     9.539
  34.700         95.00	    10.677
  34.720         91.67	    10.488
  34.740         70.00	     9.165
  34.760         70.00	     9.165
  34.780         73.33	     9.381
  34.800         61.67	     8.602
  34.820         70.83	     9.220
  34.840         71.67	     9.274
  34.860         78.33	     9.695
  34.880         83.33	    10.000
  34.900         84.17	    10.050
  34.920         77.50	     9.644
  34.940         87.50	    10.247
  34.960         80.83	     9.849
  34.980         80.83	     9.849
  35.000        104.17	    11.180
  35.020         78.33	     9.695
  35.040         91.67	    10.488
  35.060         90.00	    10.392
  35.080         85.00	    10.100
  35.100        105.00	    11.225
  35.120         81.67	     9.899
  35.140         98.33	    10.863
  35.160         99.17	    10.909
  35.180        106.67	    11.314
  35.200        110.00	    11.489
  35.220        109.17	    11.446
  35.240        109.17	    11.446
  35.260        105.83	    11.269
  35.280         95.83	    10.724
  35.300         95.00	    10.677
  35.320         95.83	    10.724
  35.340         86.67	    10.198
  35.360         72.50	     9.327
  35.380         82.50	     9.950
  35.400         68.33	     9.055
  35.420         61.67	     8.602
  35.440         66.67	     8.944
  35.460         60.00	     8.485
  35.480         53.33	     8.000
  35.500         55.00	     8.124
  35.520         50.83	     7.810
  35.540         41.67	     7.071
  35.560         33.33	     6.325
  35.580         40.83	     7.000
  35.600         33.33	     6.325
  35.620         39.17	     6.856
  35.640         50.00	     7.746
  35.660         41.67	     7.071
  35.680         39.17	     6.856
  35.700         36.67	     6.633
  35.720         38.33	     6.782
  35.740         40.00	     6.928
  35.760         46.67	     7.483
  35.780         51.67	     7.874
  35.800         37.50	     6.708
  35.820         45.83	     7.416
  35.840         34.17	     6.403
  35.860         55.83	     8.185
  35.880         53.33	     8.000
  35.900         40.83	     7.000
  35.920         49.17	     7.681
  35.940         48.33	     7.616
  35.960         50.83	     7.810
  35.980         43.33	     7.211
  36.000         57.50	     8.307
  36.020         72.50	     9.327
  36.040         62.50	     8.660
  36.060         70.83	     9.220
  36.080         52.50	     7.937
  36.100         81.67	     9.899
  36.120         55.83	     8.185
  36.140         77.50	     9.644
  36.160         65.83	     8.888
  36.180         81.67	     9.899
  36.200         63.33	     8.718
  36.220         76.67	     9.592
  36.240         78.33	     9.695
  36.260         73.33	     9.381
  36.280         80.00	     9.798
  36.300         55.00	     8.124
  36.320         59.17	     8.426
  36.340         60.83	     8.544
  36.360         72.50	     9.327
  36.380         53.33	     8.000
  36.400         63.33	     8.718
  36.420         56.67	     8.246
  36.440         67.50	     9.000
  36.460         59.17	     8.426
  36.480         55.83	     8.185
  36.500         55.83	     8.185
  36.520         67.50	     9.000
  36.540         55.00	     8.124
  36.560         55.83	     8.185
  36.580         48.33	     7.616
  36.600         50.83	     7.810
  36.620         56.67	     8.246
  36.640         50.83	     7.810
  36.660         46.67	     7.483
  36.680         48.33	     7.616
  36.700         44.17	     7.280
  36.720         45.83	     7.416
  36.740         65.00	     8.832
  36.760         42.50	     7.141
  36.780         41.67	     7.071
  36.800         47.50	     7.550
  36.820         45.00	     7.348
  36.840         51.67	     7.874
  36.860         42.50	     7.141
  36.880         55.00	     8.124
  36.900         61.67	     8.602
  36.920         49.17	     7.681
  36.940         50.00	     7.746
  36.960         53.33	     8.000
  36.980         51.67	     7.874
  37.000         65.83	     8.888
  37.020         69.17	     9.110
  37.040         74.17	     9.434
  37.060         66.67	     8.944
  37.080         58.33	     8.367
  37.100         64.17	     8.775
  37.120         75.00	     9.487
  37.140         61.67	     8.602
  37.160         61.67	     8.602
  37.180         77.50	     9.644
  37.200         71.67	     9.274
  37.220         60.83	     8.544
  37.240         55.00	     8.124
  37.260         60.83	     8.544
  37.280         68.33	     9.055
  37.300         50.00	     7.746
  37.320         68.33	     9.055
  37.340         69.17	     9.110
  37.360         58.33	     8.367
  37.380         64.17	     8.775
  37.400         69.17	     9.110
  37.420         76.67	     9.592
  37.440         70.83	     9.220
  37.460         70.00	     9.165
  37.480         95.00	    10.677
  37.500        103.33	    11.136
  37.520        110.00	    11.489
  37.540        136.67	    12.806
  37.560        198.33	    15.427
  37.580        159.17	    13.820
  37.600        135.83	    12.767
  37.620        132.50	    12.610
  37.640        152.50	    13.528
  37.660        175.83	    14.526
  37.680        130.00	    12.490
  37.700        120.00	    12.000
  37.720        125.83	    12.288
  37.740        120.83	    12.042
  37.760        106.67	    11.314
  37.780         97.50	    10.817
  37.800         89.17	    10.344
  37.820         87.50	    10.247
  37.840         73.33	     9.381
  37.860         86.67	    10.198
  37.880         79.17	     9.747
  37.900         80.00	     9.798
  37.920        101.67	    11.045
  37.940         95.00	    10.677
  37.960        108.33	    11.402
  37.980        122.50	    12.124
  38.000        113.33	    11.662
  38.020        127.50	    12.369
  38.040        128.33	    12.410
  38.060        124.17	    12.207
  38.080        145.83	    13.229
  38.100        132.50	    12.610
  38.120        140.83	    13.000
  38.140        130.00	    12.490
  38.160        123.33	    12.166
  38.180        138.33	    12.884
  38.200        115.00	    11.747
  38.220        116.67	    11.832
  38.240        116.67	    11.832
  38.260         90.00	    10.392
  38.280         85.00	    10.100
  38.300         98.33	    10.863
  38.320         92.50	    10.536
  38.340         93.33	    10.583
  38.360         90.00	    10.392
  38.380         98.33	    10.863
  38.400         75.00	     9.487
  38.420         76.67	     9.592
  38.440        104.17	    11.180
  38.460        115.83	    11.790
  38.480        106.67	    11.314
  38.500        118.33	    11.916
  38.520        122.50	    12.124
  38.540        153.33	    13.565
  38.560        146.67	    13.266
  38.580        150.83	    13.454
  38.600        192.50	    15.199
  38.620        220.00	    16.248
  38.640        224.17	    16.401
  38.660        215.00	    16.062
  38.680        229.17	    16.583
  38.700        205.00	    15.684
  38.720        205.00	    15.684
  38.740        187.50	    15.000
  38.760        155.83	    13.675
  38.780        164.17	    14.036
  38.800        138.33	    12.884
  38.820        116.67	    11.832
  38.840        126.67	    12.329
  38.860         90.83	    10.440
  38.880        112.50	    11.619
  38.900         82.50	     9.950
  38.920         94.17	    10.630
  38.940         71.67	     9.274
  38.960         86.67	    10.198
  38.980         77.50	     9.644
  39.000         70.83	     9.220
  39.020         84.17	    10.050
  39.040         73.33	     9.381
  39.060         67.50	     9.000
  39.080         64.17	     8.775
  39.100         83.33	    10.000
  39.120         70.83	     9.220
  39.140         73.33	     9.381
  39.160         84.17	    10.050
  39.180         70.00	     9.165
  39.200         70.00	     9.165
  39.220         73.33	     9.381
  39.240         74.17	     9.434
  39.260         72.50	     9.327
  39.280         61.67	     8.602
  39.300         56.67	     8.246
  39.320         63.33	     8.718
  39.340         77.50	     9.644
  39.360         49.17	     7.681
  39.380         58.33	     8.367
  39.400         54.17	     8.062
  39.420         70.00	     9.165
  39.440         58.33	     8.367
  39.460         72.50	     9.327
  39.480        107.50	    11.358
  39.500        151.67	    13.491
  39.520        140.00	    12.961
  39.540        172.50	    14.387
  39.560        130.83	    12.530
  39.580        156.67	    13.711
  39.600        181.67	    14.765
  39.620        206.67	    15.748
  39.640        227.50	    16.523
  39.660        240.83	    17.000
  39.680        220.83	    16.279
  39.700        195.00	    15.297
  39.720        165.83	    14.107
  39.740        173.33	    14.422
  39.760        175.00	    14.491
  39.780        150.83	    13.454
  39.800        124.17	    12.207
  39.820        138.33	    12.884
  39.840        115.00	    11.747
  39.860         96.67	    10.770
  39.880         98.33	    10.863
  39.900         87.50	    10.247
  39.920         95.83	    10.724
  39.940         75.83	     9.539
  39.960         78.33	     9.695
  39.980         80.00	     9.798
  40.000         70.83	     9.220
  40.020         60.00	     8.485
  40.040         55.83	     8.185
  40.060         68.33	     9.055
  40.080         80.83	     9.849
  40.100         68.33	     9.055
  40.120         61.67	     8.602
  40.140         72.50	     9.327
  40.160         75.00	     9.487
  40.180         60.00	     8.485
  40.200         70.00	     9.165
  40.220         78.33	     9.695
  40.240         75.83	     9.539
  40.260         71.67	     9.274
  40.280         77.50	     9.644
  40.300         79.17	     9.747
  40.320         84.17	    10.050
  40.340         77.50	     9.644
  40.360         85.00	    10.100
  40.380        100.00	    10.954
  40.400         77.50	     9.644
  40.420         85.00	    10.100
  40.440         95.00	    10.677
  40.460         84.17	    10.050
  40.480         87.50	    10.247
  40.500        104.17	    11.180
  40.520        109.17	    11.446
  40.540        111.67	    11.576
  40.560        108.33	    11.402
  40.580         90.83	    10.440
  40.600         98.33	    10.863
  40.620         98.33	    10.863
  40.640         87.50	    10.247
  40.660        110.00	    11.489
  40.680         86.67	    10.198
  40.700        106.67	    11.314
  40.720         98.33	    10.863
  40.740         99.17	    10.909
  40.760         97.50	    10.817
  40.780        108.33	    11.402
  40.800         90.83	    10.440
  40.820        110.00	    11.489
  40.840         86.67	    10.198
  40.860         91.67	    10.488
  40.880         76.67	     9.592
  40.900         70.00	     9.165
  40.920         80.00	     9.798
  40.940         46.67	     7.483
  40.960         52.50	     7.937
  40.980         47.50	     7.550
  41.000         55.83	     8.185
  41.020         66.67	     8.944
  41.040         41.67	     7.071
  41.060         46.67	     7.483
  41.080         53.33	     8.000
  41.100         50.83	     7.810
  41.120         36.67	     6.633
  41.140         42.50	     7.141
  41.160         50.83	     7.810
  41.180         35.83	     6.557
  41.200         48.33	     7.616
  41.220         36.67	     6.633
  41.240         48.33	     7.616
  41.260         30.83	     6.083
  41.280         35.00	     6.481
  41.300         39.17	     6.856
  41.320         39.17	     6.856
  41.340         44.17	     7.280
  41.360         37.50	     6.708
  41.380         33.33	     6.325
  41.400         40.00	     6.928
  41.420         32.50	     6.245
  41.440         36.67	     6.633
  41.460         34.17	     6.403
  41.480         24.17	     5.385
  41.500         43.33	     7.211
  41.520         36.67	     6.633
  41.540         45.83	     7.416
  41.560         60.00	     8.485
  41.580         54.17	     8.062
  41.600         48.33	     7.616
  41.620         44.17	     7.280
  41.640         43.33	     7.211
  41.660         46.67	     7.483
  41.680         74.17	     9.434
  41.700         65.00	     8.832
  41.720         69.17	     9.110
  41.740         49.17	     7.681
  41.760         65.83	     8.888
  41.780         53.33	     8.000
  41.800         44.17	     7.280
  41.820         64.17	     8.775
  41.840         60.83	     8.544
  41.860         48.33	     7.616
  41.880         43.33	     7.211
  41.900         56.67	     8.246
  41.920         60.00	     8.485
  41.940         66.67	     8.944
  41.960         56.67	     8.246
  41.980         55.00	     8.124
  42.000         45.00	     7.348
  42.020         55.83	     8.185
  42.040         41.67	     7.071
  42.060         46.67	     7.483
  42.080         42.50	     7.141
  42.100         44.17	     7.280
  42.120         40.83	     7.000
  42.140         55.83	     8.185
  42.160         56.67	     8.246
  42.180         58.33	     8.367
  42.200         45.00	     7.348
  42.220         45.83	     7.416
  42.240         49.17	     7.681
  42.260         53.33	     8.000
  42.280         50.00	     7.746
  42.300         47.50	     7.550
  42.320         60.83	     8.544
  42.340         71.67	     9.274
  42.360         53.33	     8.000
  42.380         50.00	     7.746
  42.400         50.83	     7.810
  42.420         51.67	     7.874
  42.440         60.83	     8.544
  42.460         61.67	     8.602
  42.480         60.83	     8.544
  42.500         72.50	     9.327
  42.520         78.33	     9.695
  42.540         92.50	    10.536
  42.560         99.17	    10.909
  42.580         78.33	     9.695
  42.600        100.00	    10.954
  42.620         79.17	     9.747
  42.640         94.17	    10.630
  42.660        100.00	    10.954
  42.680         90.83	    10.440
  42.700         87.50	    10.247
  42.720         76.67	     9.592
  42.740         65.00	     8.832
  42.760         79.17	     9.747
  42.780         53.33	     8.000
  42.800         60.00	     8.485
  42.820         71.67	     9.274
  42.840         62.50	     8.660
  42.860         56.67	     8.246
  42.880         54.17	     8.062
  42.900         70.00	     9.165
  42.920         56.67	     8.246
  42.940         45.83	     7.416
  42.960         50.00	     7.746
  42.980         54.17	     8.062
  43.000         42.50	     7.141
  43.020         50.83	     7.810
  43.040         40.83	     7.000
  43.060         42.50	     7.141
  43.080         70.00	     9.165
  43.100         56.67	     8.246
  43.120         44.17	     7.280
  43.140         43.33	     7.211
  43.160         46.67	     7.483
  43.180         55.83	     8.185
  43.200         56.67	     8.246
  43.220         47.50	     7.550
  43.240         52.50	     7.937
  43.260         42.50	     7.141
  43.280         55.00	     8.124
  43.300         65.83	     8.888
  43.320         62.50	     8.660
  43.340         71.67	     9.274
  43.360         90.00	    10.392
  43.380         81.67	     9.899
  43.400         91.67	    10.488
  43.420         81.67	     9.899
  43.440         68.33	     9.055
  43.460         62.50	     8.660
  43.480         78.33	     9.695
  43.500         67.50	     9.000
  43.520         71.67	     9.274
  43.540         68.33	     9.055
  43.560         46.67	     7.483
  43.580         53.33	     8.000
  43.600         54.17	     8.062
  43.620         53.33	     8.000
  43.640         46.67	     7.483
  43.660         50.83	     7.810
  43.680         36.67	     6.633
  43.700         35.83	     6.557
  43.720         37.50	     6.708
  43.740         39.17	     6.856
  43.760         45.00	     7.348
  43.780         33.33	     6.325
  43.800         35.83	     6.557
  43.820         39.17	     6.856
  43.840         40.83	     7.000
  43.860         49.17	     7.681
  43.880         50.00	     7.746
  43.900         52.50	     7.937
  43.920         43.33	     7.211
  43.940         59.17	     8.426
  43.960         58.33	     8.367
  43.980         50.83	     7.810
  44.000         57.50	     8.307
  44.020         57.50	     8.307
  44.040         36.67	     6.633
  44.060         60.83	     8.544
  44.080         50.00	     7.746
  44.100         59.17	     8.426
  44.120         52.50	     7.937
  44.140         55.83	     8.185
  44.160         55.00	     8.124
  44.180         57.50	     8.307
  44.200         56.67	     8.246
  44.220         53.33	     8.000
  44.240         40.83	     7.000
  44.260         31.67	     6.164
  44.280         52.50	     7.937
  44.300         66.67	     8.944
  44.320         60.83	     8.544
  44.340         55.83	     8.185
  44.360         60.00	     8.485
  44.380         55.00	     8.124
  44.400         64.17	     8.775
  44.420         59.17	     8.426
  44.440         56.67	     8.246
  44.460         52.50	     7.937
  44.480         39.17	     6.856
  44.500         60.83	     8.544
  44.520         55.83	     8.185
  44.540         46.67	     7.483
  44.560         63.33	     8.718
  44.580         51.67	     7.874
  44.600         60.83	     8.544
  44.620         53.33	     8.000
  44.640         57.50	     8.307
  44.660         52.50	     7.937
  44.680         70.00	     9.165
  44.700         69.17	     9.110
  44.720        104.17	    11.180
  44.740         95.00	    10.677
  44.760         92.50	    10.536
  44.780         97.50	    10.817
  44.800        107.50	    11.358
  44.820        115.00	    11.747
  44.840        106.67	    11.314
  44.860        111.67	    11.576
  44.880         91.67	    10.488
  44.900        100.00	    10.954
  44.920        102.50	    11.091
  44.940         92.50	    10.536
  44.960         86.67	    10.198
  44.980         97.50	    10.817
  45.000         88.33	    10.296
  45.020         95.00	    10.677
  45.040         78.33	     9.695
  45.060         97.50	    10.817
  45.080         83.33	    10.000
  45.100         68.33	     9.055
  45.120         83.33	    10.000
  45.140         80.83	     9.849
  45.160         81.67	     9.899
  45.180         68.33	     9.055
  45.200         49.17	     7.681
  45.220         60.00	     8.485
  45.240         60.83	     8.544
  45.260         75.83	     9.539
  45.280         52.50	     7.937
  45.300         58.33	     8.367
  45.320         70.00	     9.165
  45.340         53.33	     8.000
  45.360         68.33	     9.055
  45.380         74.17	     9.434
  45.400         80.00	     9.798
  45.420         85.00	    10.100
  45.440         94.17	    10.630
  45.460         80.00	     9.798
  45.480         90.00	    10.392
  45.500        110.00	    11.489
  45.520        116.67	    11.832
  45.540        125.83	    12.288
  45.560        120.83	    12.042
  45.580        124.17	    12.207
  45.600        124.17	    12.207
  45.620        112.50	    11.619
  45.640         86.67	    10.198
  45.660         78.33	     9.695
  45.680         80.83	     9.849
  45.700         87.50	    10.247
  45.720        101.67	    11.045
  45.740         79.17	     9.747
  45.760         69.17	     9.110
  45.780         69.17	     9.110
  45.800         77.50	     9.644
  45.820         50.83	     7.810
  45.840         66.67	     8.944
  45.860         64.17	     8.775
  45.880         64.17	     8.775
  45.900         82.50	     9.950
  45.920         70.83	     9.220
  45.940         50.83	     7.810
  45.960         66.67	     8.944
  45.980         64.17	     8.775
  46.000         66.67	     8.944
  46.020         67.50	     9.000
  46.040         59.17	     8.426
  46.060         42.50	     7.141
  46.080         58.33	     8.367
  46.100         70.83	     9.220
  46.120         47.50	     7.550
  46.140         43.33	     7.211
  46.160         42.50	     7.141
  46.180         49.17	     7.681
  46.200         55.00	     8.124
  46.220         40.83	     7.000
  46.240         35.00	     6.481
  46.260         34.17	     6.403
  46.280         34.17	     6.403
  46.300         41.67	     7.071
  46.320         40.83	     7.000
  46.340         25.83	     5.568
  46.360         42.50	     7.141
  46.380         38.33	     6.782
  46.400         36.67	     6.633
  46.420         37.50	     6.708
  46.440         32.50	     6.245
  46.460         39.17	     6.856
  46.480         50.00	     7.746
  46.500         53.33	     8.000
  46.520         27.50	     5.745
  46.540         30.83	     6.083
  46.560         40.83	     7.000
  46.580         38.33	     6.782
  46.600         50.83	     7.810
  46.620         45.00	     7.348
  46.640         51.67	     7.874
  46.660         64.17	     8.775
  46.680         47.50	     7.550
  46.700         58.33	     8.367
  46.720         56.67	     8.246
  46.740         50.00	     7.746
  46.760         52.50	     7.937
  46.780         63.33	     8.718
  46.800         46.67	     7.483
  46.820         45.00	     7.348
  46.840         58.33	     8.367
  46.860         57.50	     8.307
  46.880         53.33	     8.000
  46.900         51.67	     7.874
  46.920         48.33	     7.616
  46.940         45.00	     7.348
  46.960         50.00	     7.746
  46.980         51.67	     7.874
  47.000         44.17	     7.280
  47.020         49.17	     7.681
  47.040         50.83	     7.810
  47.060         38.33	     6.782
  47.080         50.83	     7.810
  47.100         36.67	     6.633
  47.120         50.83	     7.810
  47.140         43.33	     7.211
  47.160         57.50	     8.307
  47.180         45.83	     7.416
  47.200         46.67	     7.483
  47.220         40.83	     7.000
  47.240         63.33	     8.718
  47.260         59.17	     8.426
  47.280         50.83	     7.810
  47.300         62.50	     8.660
  47.320         57.50	     8.307
  47.340         47.50	     7.550
  47.360         40.83	     7.000
  47.380         33.33	     6.325
  47.400         40.00	     6.928
  47.420         48.33	     7.616
  47.440         43.33	     7.211
  47.460         53.33	     8.000
  47.480         44.17	     7.280
  47.500         48.33	     7.616
  47.520         46.67	     7.483
  47.540         41.67	     7.071
  47.560         35.83	     6.557
  47.580         38.33	     6.782
  47.600         44.17	     7.280
  47.620         52.50	     7.937
  47.640         44.17	     7.280
  47.660         36.67	     6.633
  47.680         40.83	     7.000
  47.700         45.00	     7.348
  47.720         45.00	     7.348
  47.740         35.83	     6.557
  47.760         35.83	     6.557
  47.780         45.83	     7.416
  47.800         55.00	     8.124
  47.820         39.17	     6.856
  47.840         45.83	     7.416
  47.860         44.17	     7.280
  47.880         51.67	     7.874
  47.900         62.50	     8.660
  47.920         59.17	     8.426
  47.940         65.83	     8.888
  47.960         92.50	    10.536
  47.980         83.33	    10.000
  48.000         86.67	    10.198
  48.020         63.33	     8.718
  48.040         76.67	     9.592
  48.060         79.17	     9.747
  48.080         81.67	     9.899
  48.100         80.00	     9.798
  48.120         87.50	    10.247
  48.140         83.33	    10.000
  48.160         84.17	    10.050
  48.180         83.33	    10.000
  48.200         87.50	    10.247
  48.220         79.17	     9.747
  48.240         83.33	    10.000
  48.260         95.00	    10.677
  48.280         90.83	    10.440
  48.300         78.33	     9.695
  48.320         93.33	    10.583
  48.340         83.33	    10.000
  48.360         76.67	     9.592
  48.380         76.67	     9.592
  48.400         84.17	    10.050
  48.420         88.33	    10.296
  48.440         80.83	     9.849
  48.460         73.33	     9.381
  48.480        102.50	    11.091
  48.500        114.17	    11.705
  48.520        100.00	    10.954
  48.540        115.83	    11.790
  48.560        123.33	    12.166
  48.580        131.67	    12.570
  48.600        140.00	    12.961
  48.620        127.50	    12.369
  48.640        145.83	    13.229
  48.660        142.50	    13.077
  48.680        136.67	    12.806
  48.700        145.00	    13.191
  48.720        149.17	    13.379
  48.740        123.33	    12.166
  48.760        121.67	    12.083
  48.780        112.50	    11.619
  48.800        113.33	    11.662
  48.820        119.17	    11.958
  48.840        107.50	    11.358
  48.860        100.00	    10.954
  48.880        106.67	    11.314
  48.900        110.00	    11.489
  48.920        100.00	    10.954
  48.940         87.50	    10.247
  48.960         99.17	    10.909
  48.980         77.50	     9.644
  49.000         87.50	    10.247
  49.020         87.50	    10.247
  49.040         67.50	     9.000
  49.060         81.67	     9.899
  49.080         82.50	     9.950
  49.100         55.00	     8.124
  49.120         67.50	     9.000
  49.140         65.83	     8.888
  49.160         65.00	     8.832
  49.180         56.67	     8.246
  49.200         60.00	     8.485
  49.220         45.83	     7.416
  49.240         58.33	     8.367
  49.260         54.17	     8.062
  49.280         51.67	     7.874
  49.300         46.67	     7.483
  49.320         50.00	     7.746
  49.340         35.83	     6.557
  49.360         31.67	     6.164
  49.380         44.17	     7.280
  49.400         40.83	     7.000
  49.420         35.83	     6.557
  49.440         44.17	     7.280
  49.460         40.83	     7.000
  49.480         35.83	     6.557
  49.500         33.33	     6.325
  49.520         27.50	     5.745
  49.540         35.83	     6.557
  49.560         49.17	     7.681
  49.580         30.83	     6.083
  49.600         31.67	     6.164
  49.620         47.50	     7.550
  49.640         47.50	     7.550
  49.660         40.83	     7.000
  49.680         35.83	     6.557
  49.700         40.83	     7.000
  49.720         35.00	     6.481
  49.740         39.17	     6.856
  49.760         41.67	     7.071
  49.780         39.17	     6.856
  49.800         40.83	     7.000
  49.820         39.17	     6.856
  49.840         44.17	     7.280
  49.860         32.50	     6.245
  49.880         40.83	     7.000
  49.900         40.83	     7.000
  49.920         29.17	     5.916
  49.940         32.50	     6.245
  49.960         40.83	     7.000
  49.980         33.33	     6.325
  50.000         41.67	     7.071
  50.020         30.83	     6.083
  50.040         31.67	     6.164
  50.060         42.50	     7.141
  50.080         35.00	     6.481
  50.100         38.33	     6.782
  50.120         46.67	     7.483
  50.140         38.33	     6.782
  50.160         40.83	     7.000
  50.180         52.50	     7.937
  50.200         47.50	     7.550
  50.220         44.17	     7.280
  50.240         51.67	     7.874
  50.260         34.17	     6.403
  50.280         46.67	     7.483
  50.300         41.67	     7.071
  50.320         42.50	     7.141
  50.340         42.50	     7.141
  50.360         39.17	     6.856
  50.380         33.33	     6.325
  50.400         41.67	     7.071
  50.420         43.33	     7.211
  50.440         30.83	     6.083
  50.460         28.33	     5.831
  50.480         43.33	     7.211
  50.500         35.00	     6.481
  50.520         26.67	     5.657
  50.540         37.50	     6.708
  50.560         41.67	     7.071
  50.580         31.67	     6.164
  50.600         29.17	     5.916
  50.620         34.17	     6.403
  50.640         33.33	     6.325
  50.660         30.00	     6.000
  50.680         30.00	     6.000
  50.700         39.17	     6.856
  50.720         28.33	     5.831
  50.740         31.67	     6.164
  50.760         31.67	     6.164
  50.780         35.83	     6.557
  50.800         31.67	     6.164
  50.820         25.00	     5.477
  50.840         21.67	     5.099
  50.860         35.00	     6.481
  50.880         40.83	     7.000
  50.900         30.00	     6.000
  50.920         40.00	     6.928
  50.940         38.33	     6.782
  50.960         37.50	     6.708
  50.980         50.83	     7.810
  51.000         40.00	     6.928
  51.020         55.00	     8.124
  51.040         42.50	     7.141
  51.060         58.33	     8.367
  51.080         52.50	     7.937
  51.100         50.83	     7.810
  51.120         81.67	     9.899
  51.140         70.83	     9.220
  51.160         56.67	     8.246
  51.180         65.83	     8.888
  51.200         79.17	     9.747
  51.220         71.67	     9.274
  51.240         77.50	     9.644
  51.260         66.67	     8.944
  51.280         65.00	     8.832
  51.300         65.00	     8.832
  51.320         64.17	     8.775
  51.340         64.17	     8.775
  51.360         75.00	     9.487
  51.380         80.00	     9.798
  51.400         60.00	     8.485
  51.420         74.17	     9.434
  51.440         51.67	     7.874
  51.460         65.83	     8.888
  51.480         60.00	     8.485
  51.500         65.83	     8.888
  51.520         65.00	     8.832
  51.540         55.00	     8.124
  51.560         69.17	     9.110
  51.580         69.17	     9.110
  51.600         55.83	     8.185
  51.620         55.00	     8.124
  51.640         57.50	     8.307
  51.660         60.83	     8.544
  51.680         54.17	     8.062
  51.700         50.00	     7.746
  51.720         38.33	     6.782
  51.740         56.67	     8.246
  51.760         50.83	     7.810
  51.780         56.67	     8.246
  51.800         62.50	     8.660
  51.820         47.50	     7.550
  51.840         43.33	     7.211
  51.860         44.17	     7.280
  51.880         44.17	     7.280
  51.900         45.00	     7.348
  51.920         49.17	     7.681
  51.940         61.67	     8.602
  51.960         40.83	     7.000
  51.980         31.67	     6.164
  52.000         52.50	     7.937
  52.020         52.50	     7.937
  52.040         57.50	     8.307
  52.060         43.33	     7.211
  52.080         30.83	     6.083
  52.100         56.67	     8.246
  52.120         43.33	     7.211
  52.140         30.00	     6.000
  52.160         39.17	     6.856
  52.180         35.00	     6.481
  52.200         46.67	     7.483
  52.220         43.33	     7.211
  52.240         41.67	     7.071
  52.260         50.83	     7.810
  52.280         62.50	     8.660
  52.300         51.67	     7.874
  52.320         59.17	     8.426
  52.340         60.83	     8.544
  52.360         51.67	     7.874
  52.380         59.17	     8.426
  52.400         55.83	     8.185
  52.420         55.00	     8.124
  52.440         51.67	     7.874
  52.460         61.67	     8.602
  52.480         54.17	     8.062
  52.500         55.83	     8.185
  52.520         58.33	     8.367
  52.540         52.50	     7.937
  52.560         54.17	     8.062
  52.580         46.67	     7.483
  52.600         50.00	     7.746
  52.620         60.00	     8.485
  52.640         56.67	     8.246
  52.660         54.17	     8.062
  52.680         53.33	     8.000
  52.700         50.83	     7.810
  52.720         56.67	     8.246
  52.740         70.83	     9.220
  52.760         70.00	     9.165
  52.780         70.83	     9.220
  52.800         66.67	     8.944
  52.820         73.33	     9.381
  52.840         73.33	     9.381
  52.860         79.17	     9.747
  52.880         66.67	     8.944
  52.900         87.50	    10.247
  52.920        110.83	    11.533
  52.940         78.33	     9.695
  52.960         87.50	    10.247
  52.980        110.83	    11.533
  53.000         86.67	    10.198
  53.020         76.67	     9.592
  53.040        101.67	    11.045
  53.060         89.17	    10.344
  53.080         89.17	    10.344
  53.100        111.67	    11.576
  53.120        131.67	    12.570
  53.140        143.33	    13.115
  53.160        160.00	    13.856
  53.180        195.83	    15.330
  53.200        185.83	    14.933
  53.220        204.17	    15.652
  53.240        214.17	    16.031
  53.260        237.50	    16.882
  53.280        175.00	    14.491
  53.300        152.50	    13.528
  53.320        148.33	    13.342
  53.340        132.50	    12.610
  53.360        159.17	    13.820
  53.380        154.17	    13.601
  53.400        122.50	    12.124
  53.420         95.00	    10.677
  53.440         85.00	    10.100
  53.460         70.83	     9.220
  53.480         65.00	     8.832
  53.500         69.17	     9.110
  53.520         56.67	     8.246
  53.540         60.00	     8.485
  53.560         60.83	     8.544
  53.580         60.83	     8.544
  53.600         81.67	     9.899
  53.620         95.00	    10.677
  53.640         84.17	    10.050
  53.660         83.33	    10.000
  53.680         80.00	     9.798
  53.700         95.00	    10.677
  53.720        102.50	    11.091
  53.740         83.33	    10.000
  53.760         76.67	     9.592
  53.780         62.50	     8.660
  53.800         53.33	     8.000
  53.820         71.67	     9.274
  53.840         70.83	     9.220
  53.860         65.83	     8.888
  53.880         48.33	     7.616
  53.900         42.50	     7.141
  53.920         47.50	     7.550
  53.940         37.50	     6.708
  53.960         55.00	     8.124
  53.980         37.50	     6.708
  54.000         44.17	     7.280
  54.020         37.50	     6.708
  54.040         41.67	     7.071
  54.060         37.50	     6.708
  54.080         52.50	     7.937
  54.100         50.83	     7.810
  54.120         54.17	     8.062
  54.140         50.83	     7.810
  54.160         60.83	     8.544
  54.180         76.67	     9.592
  54.200         87.50	    10.247
  54.220        100.00	    10.954
  54.240         89.17	    10.344
  54.260         71.67	     9.274
  54.280         88.33	    10.296
  54.300         84.17	    10.050
  54.320         90.00	    10.392
  54.340         88.33	    10.296
  54.360         72.50	     9.327
  54.380         78.33	     9.695
  54.400         85.83	    10.149
  54.420         60.00	     8.485
  54.440         54.17	     8.062
  54.460         44.17	     7.280
  54.480         55.00	     8.124
  54.500         47.50	     7.550
  54.520         49.17	     7.681
  54.540         51.67	     7.874
  54.560         44.17	     7.280
  54.580         45.00	     7.348
  54.600         36.67	     6.633
  54.620         40.83	     7.000
  54.640         34.17	     6.403
  54.660         36.67	     6.633
  54.680         40.83	     7.000
  54.700         27.50	     5.745
  54.720         44.17	     7.280
  54.740         32.50	     6.245
  54.760         41.67	     7.071
  54.780         41.67	     7.071
  54.800         40.00	     6.928
  54.820         30.83	     6.083
  54.840         32.50	     6.245
  54.860         26.67	     5.657
  54.880         42.50	     7.141
  54.900         34.17	     6.403
  54.920         26.67	     5.657
  54.940         32.50	     6.245
  54.960         35.00	     6.481
  54.980         24.17	     5.385
  55.000         40.00	     6.928
  55.020         31.67	     6.164
  55.040         35.00	     6.481
  55.060         37.50	     6.708
  55.080         34.17	     6.403
  55.100         45.83	     7.416
  55.120         40.83	     7.000
  55.140         39.17	     6.856
  55.160         50.83	     7.810
  55.180         52.50	     7.937
  55.200         50.83	     7.810
  55.220         64.17	     8.775
  55.240         51.67	     7.874
  55.260         90.00	    10.392
  55.280        102.50	    11.091
  55.300        110.00	    11.489
  55.320         86.67	    10.198
  55.340         64.17	     8.775
  55.360         59.17	     8.426
  55.380         79.17	     9.747
  55.400         83.33	    10.000
  55.420         80.83	     9.849
  55.440        105.00	    11.225
  55.460         88.33	    10.296
  55.480         61.67	     8.602
  55.500         72.50	     9.327
  55.520         50.83	     7.810
  55.540         66.67	     8.944
  55.560         93.33	    10.583
  55.580        119.17	    11.958
  55.600        107.50	    11.358
  55.620         84.17	    10.050
  55.640         77.50	     9.644
  55.660         75.83	     9.539
  55.680         61.67	     8.602
  55.700         98.33	    10.863
  55.720         94.17	    10.630
  55.740         84.17	    10.050
  55.760         71.67	     9.274
  55.780         65.00	     8.832
  55.800         57.50	     8.307
  55.820         60.83	     8.544
  55.840         42.50	     7.141
  55.860         44.17	     7.280
  55.880         40.00	     6.928
  55.900         40.83	     7.000
  55.920         47.50	     7.550
  55.940         52.50	     7.937
  55.960         42.50	     7.141
  55.980         55.83	     8.185
  56.000         53.33	     8.000
  56.020         52.50	     7.937
  56.040         43.33	     7.211
  56.060         37.50	     6.708
  56.080         46.67	     7.483
  56.100         54.17	     8.062
  56.120         40.83	     7.000
  56.140         47.50	     7.550
  56.160         51.67	     7.874
  56.180         49.17	     7.681
  56.200         48.33	     7.616
  56.220         50.83	     7.810
  56.240         47.50	     7.550
  56.260         55.00	     8.124
  56.280         65.00	     8.832
  56.300         63.33	     8.718
  56.320         64.17	     8.775
  56.340         38.33	     6.782
  56.360         49.17	     7.681
  56.380         43.33	     7.211
  56.400         58.33	     8.367
  56.420         57.50	     8.307
  56.440         65.83	     8.888
  56.460         50.83	     7.810
  56.480         51.67	     7.874
  56.500         51.67	     7.874
  56.520         45.83	     7.416
  56.540         46.67	     7.483
  56.560         45.83	     7.416
  56.580         44.17	     7.280
  56.600         49.17	     7.681
  56.620         40.00	     6.928
  56.640         43.33	     7.211
  56.660         35.83	     6.557
  56.680         46.67	     7.483
  56.700         31.67	     6.164
  56.720         42.50	     7.141
  56.740         40.83	     7.000
  56.760         45.83	     7.416
  56.780         42.50	     7.141
  56.800         44.17	     7.280
  56.820         45.83	     7.416
  56.840         42.50	     7.141
  56.860         49.17	     7.681
  56.880         37.50	     6.708
  56.900         40.00	     6.928
  56.920         39.17	     6.856
  56.940         41.67	     7.071
  56.960         40.83	     7.000
  56.980         52.50	     7.937
  57.000         36.67	     6.633
  57.020         55.83	     8.185
  57.040         43.33	     7.211
  57.060         51.67	     7.874
  57.080         37.50	     6.708
  57.100         32.50	     6.245
  57.120         40.00	     6.928
  57.140         50.00	     7.746
  57.160         45.00	     7.348
  57.180         48.33	     7.616
  57.200         39.17	     6.856
  57.220         35.83	     6.557
  57.240         36.67	     6.633
  57.260         46.67	     7.483
  57.280         34.17	     6.403
  57.300         46.67	     7.483
  57.320         37.50	     6.708
  57.340         38.33	     6.782
  57.360         44.17	     7.280
  57.380         46.67	     7.483
  57.400         57.50	     8.307
  57.420         54.17	     8.062
  57.440         50.00	     7.746
  57.460         45.83	     7.416
  57.480         41.67	     7.071
  57.500         46.67	     7.483
  57.520         53.33	     8.000
  57.540         50.00	     7.746
  57.560         48.33	     7.616
  57.580         51.67	     7.874
  57.600         40.00	     6.928
  57.620         58.33	     8.367
  57.640         40.00	     6.928
  57.660         57.50	     8.307
  57.680         55.83	     8.185
  57.700         62.50	     8.660
  57.720         58.33	     8.367
  57.740         55.00	     8.124
  57.760         55.83	     8.185
  57.780         53.33	     8.000
  57.800         51.67	     7.874
  57.820         52.50	     7.937
  57.840         85.00	    10.100
  57.860        115.83	    11.790
  57.880        126.67	    12.329
  57.900         97.50	    10.817
  57.920         93.33	    10.583
  57.940        107.50	    11.358
  57.960         99.17	    10.909
  57.980        126.67	    12.329
  58.000        113.33	    11.662
  58.020        102.50	    11.091
  58.040        104.17	    11.180
  58.060         84.17	    10.050
  58.080         63.33	     8.718
  58.100         76.67	     9.592
  58.120         75.00	     9.487
  58.140         70.00	     9.165
  58.160         65.00	     8.832
  58.180         69.17	     9.110
  58.200         56.67	     8.246
  58.220         47.50	     7.550
  58.240         60.00	     8.485
  58.260         50.00	     7.746
  58.280         67.50	     9.000
  58.300         56.67	     8.246
  58.320         62.50	     8.660
  58.340         82.50	     9.950
  58.360         71.67	     9.274
  58.380         72.50	     9.327
  58.400         82.50	     9.950
  58.420         85.00	    10.100
  58.440         67.50	     9.000
  58.460         80.83	     9.849
  58.480         75.00	     9.487
  58.500         68.33	     9.055
  58.520         49.17	     7.681
  58.540         64.17	     8.775
  58.560         63.33	     8.718
  58.580         65.00	     8.832
  58.600         65.83	     8.888
  58.620         55.00	     8.124
  58.640         62.50	     8.660
  58.660         62.50	     8.660
  58.680         61.67	     8.602
  58.700         53.33	     8.000
  58.720         61.67	     8.602
  58.740         77.50	     9.644
  58.760         73.33	     9.381
  58.780         76.67	     9.592
  58.800         74.17	     9.434
  58.820         81.67	     9.899
  58.840        101.67	    11.045
  58.860         93.33	    10.583
  58.880         99.17	    10.909
  58.900        103.33	    11.136
  58.920         93.33	    10.583
  58.940        100.83	    11.000
  58.960         75.00	     9.487
  58.980         97.50	    10.817
  59.000         71.67	     9.274
  59.020         90.00	    10.392
  59.040         85.83	    10.149
  59.060         94.17	    10.630
  59.080         69.17	     9.110
  59.100         75.00	     9.487
  59.120         69.17	     9.110
  59.140         59.17	     8.426
  59.160         61.67	     8.602
  59.180         67.50	     9.000
  59.200         56.67	     8.246
  59.220         70.00	     9.165
  59.240         75.00	     9.487
  59.260         70.00	     9.165
  59.280         78.33	     9.695
  59.300         67.50	     9.000
  59.320         70.00	     9.165
  59.340         68.33	     9.055
  59.360         58.33	     8.367
  59.380         48.33	     7.616
  59.400         60.00	     8.485
  59.420         58.33	     8.367
  59.440         61.67	     8.602
  59.460         53.33	     8.000
  59.480         50.83	     7.810
  59.500         51.67	     7.874
  59.520         47.50	     7.550
  59.540         44.17	     7.280
  59.560         42.50	     7.141
  59.580         42.50	     7.141
  59.600         53.33	     8.000
  59.620         41.67	     7.071
  59.640         55.83	     8.185
  59.660         55.00	     8.124
  59.680         41.67	     7.071
  59.700         42.50	     7.141
  59.720         50.83	     7.810
  59.740         44.17	     7.280
  59.760         37.50	     6.708
  59.780         30.83	     6.083
  59.800         46.67	     7.483
  59.820         47.50	     7.550
  59.840         43.33	     7.211
  59.860         40.00	     6.928
  59.880         51.67	     7.874
  59.900         46.67	     7.483
  59.920         50.00	     7.746
  59.940         59.17	     8.426
  59.960         41.67	     7.071
  59.980         50.83	     7.810
  60.000         35.00	     6.481
  60.020         44.17	     7.280
  60.040         44.17	     7.280
  60.060         46.67	     7.483
  60.080         58.33	     8.367
  60.100         46.67	     7.483
  60.120         45.00	     7.348
  60.140         52.50	     7.937
  60.160         47.50	     7.550
  60.180         40.83	     7.000
  60.200         42.50	     7.141
  60.220         47.50	     7.550
  60.240         37.50	     6.708
  60.260         43.33	     7.211
  60.280         46.67	     7.483
  60.300         39.17	     6.856
  60.320         42.50	     7.141
  60.340         56.67	     8.246
  60.360         37.50	     6.708
  60.380         48.33	     7.616
  60.400         50.83	     7.810
  60.420         34.17	     6.403
  60.440         39.17	     6.856
  60.460         38.33	     6.782
  60.480         32.50	     6.245
  60.500         47.50	     7.550
  60.520         47.50	     7.550
  60.540         38.33	     6.782
  60.560         43.33	     7.211
  60.580         36.67	     6.633
  60.600         46.67	     7.483
  60.620         44.17	     7.280
  60.640         37.50	     6.708
  60.660         40.00	     6.928
  60.680         45.83	     7.416
  60.700         42.50	     7.141
  60.720         45.00	     7.348
  60.740         38.33	     6.782
  60.760         40.83	     7.000
  60.780         43.33	     7.211
  60.800         44.17	     7.280
  60.820         43.33	     7.211
  60.840         47.50	     7.550
  60.860         46.67	     7.483
  60.880         47.50	     7.550
  60.900         47.50	     7.550
  60.920         39.17	     6.856
  60.940         38.33	     6.782
  60.960         42.50	     7.141
  60.980         40.00	     6.928
  61.000         31.67	     6.164
  61.020         42.50	     7.141
  61.040         41.67	     7.071
  61.060         39.17	     6.856
  61.080         45.00	     7.348
  61.100         50.00	     7.746
  61.120         42.50	     7.141
  61.140         55.83	     8.185
  61.160         44.17	     7.280
  61.180         56.67	     8.246
  61.200         36.67	     6.633
  61.220         37.50	     6.708
  61.240         43.33	     7.211
  61.260         41.67	     7.071
  61.280         35.83	     6.557
  61.300         54.17	     8.062
  61.320         49.17	     7.681
  61.340         30.83	     6.083
  61.360         45.00	     7.348
  61.380         41.67	     7.071
  61.400         45.83	     7.416
  61.420         40.83	     7.000
  61.440         47.50	     7.550
  61.460         54.17	     8.062
  61.480         42.50	     7.141
  61.500         56.67	     8.246
  61.520         50.00	     7.746
  61.540         55.83	     8.185
  61.560         70.00	     9.165
  61.580         62.50	     8.660
  61.600         71.67	     9.274
  61.620         62.50	     8.660
  61.640         75.00	     9.487
  61.660         64.17	     8.775
  61.680         67.50	     9.000
  61.700         79.17	     9.747
  61.720         74.17	     9.434
  61.740         71.67	     9.274
  61.760         88.33	    10.296
  61.780         75.00	     9.487
  61.800         67.50	     9.000
  61.820         56.67	     8.246
  61.840         67.50	     9.000
  61.860         68.33	     9.055
  61.880         70.00	     9.165
  61.900         60.00	     8.485
  61.920         69.17	     9.110
  61.940         60.83	     8.544
  61.960         70.00	     9.165
  61.980         55.83	     8.185
  62.000         63.33	     8.718
  62.020         60.00	     8.485
  62.040         59.17	     8.426
  62.060         66.67	     8.944
  62.080         55.83	     8.185
  62.100         63.33	     8.718
  62.120         59.17	     8.426
  62.140         71.67	     9.274
  62.160         95.00	    10.677
  62.180         70.00	     9.165
  62.200         81.67	     9.899
  62.220         77.50	     9.644
  62.240         84.17	    10.050
  62.260         77.50	     9.644
  62.280         87.50	    10.247
  62.300         90.83	    10.440
  62.320         75.00	     9.487
  62.340         64.17	     8.775
  62.360         62.50	     8.660
  62.380         59.17	     8.426
  62.400         69.17	     9.110
  62.420         56.67	     8.246
  62.440         62.50	     8.660
  62.460         68.33	     9.055
  62.480         54.17	     8.062
  62.500         52.50	     7.937
  62.520         52.50	     7.937
  62.540         61.67	     8.602
  62.560         54.17	     8.062
  62.580         53.33	     8.000
  62.600         60.83	     8.544
  62.620         42.50	     7.141
  62.640         42.50	     7.141
  62.660         49.17	     7.681
  62.680         46.67	     7.483
  62.700         45.00	     7.348
  62.720         61.67	     8.602
  62.740         65.83	     8.888
  62.760         47.50	     7.550
  62.780         46.67	     7.483
  62.800         51.67	     7.874
  62.820         60.00	     8.485
  62.840         49.17	     7.681
  62.860         62.50	     8.660
  62.880         70.83	     9.220
  62.900         54.17	     8.062
  62.920         68.33	     9.055
  62.940         96.67	    10.770
  62.960        111.67	    11.576
  62.980        147.50	    13.304
  63.000        151.67	    13.491
  63.020        206.67	    15.748
  63.040        184.17	    14.866
  63.060        158.33	    13.784
  63.080        146.67	    13.266
  63.100        133.33	    12.649
  63.120        125.83	    12.288
  63.140        136.67	    12.806
  63.160        130.00	    12.490
  63.180        140.00	    12.961
  63.200        121.67	    12.083
  63.220         94.17	    10.630
  63.240        100.83	    11.000
  63.260        100.00	    10.954
  63.280         73.33	     9.381
  63.300         70.00	     9.165
  63.320         57.50	     8.307
  63.340         50.83	     7.810
  63.360         69.17	     9.110
  63.380         63.33	     8.718
  63.400         59.17	     8.426
  63.420         59.17	     8.426
  63.440         59.17	     8.426
  63.460         60.00	     8.485
  63.480         69.17	     9.110
  63.500         68.33	     9.055
  63.520         61.67	     8.602
  63.540         80.00	     9.798
  63.560         53.33	     8.000
  63.580         76.67	     9.592
  63.600         82.50	     9.950
  63.620         55.00	     8.124
  63.640         43.33	     7.211
  63.660         56.67	     8.246
  63.680         62.50	     8.660
  63.700         61.67	     8.602
  63.720         50.00	     7.746
  63.740         66.67	     8.944
  63.760         45.83	     7.416
  63.780         64.17	     8.775
  63.800         88.33	    10.296
  63.820         60.83	     8.544
  63.840         70.83	     9.220
  63.860         70.00	     9.165
  63.880         70.00	     9.165
  63.900         84.17	    10.050
  63.920         66.67	     8.944
  63.940         65.83	     8.888
  63.960         85.83	    10.149
  63.980         86.67	    10.198
  64.000         76.67	     9.592
  64.020         81.67	     9.899
  64.040         89.17	    10.344
  64.060         63.33	     8.718
  64.080         71.67	     9.274
  64.100         75.83	     9.539
  64.120         59.17	     8.426
  64.140         65.83	     8.888
  64.160         70.00	     9.165
  64.180         62.50	     8.660
  64.200         54.17	     8.062
  64.220         60.00	     8.485
  64.240         50.83	     7.810
  64.260         53.33	     8.000
  64.280         65.00	     8.832
  64.300         64.17	     8.775
  64.320         50.00	     7.746
  64.340         49.17	     7.681
  64.360         54.17	     8.062
  64.380         63.33	     8.718
  64.400         60.83	     8.544
  64.420         75.00	     9.487
  64.440         55.00	     8.124
  64.460         65.00	     8.832
  64.480         85.00	    10.100
  64.500         71.67	     9.274
  64.520         93.33	    10.583
  64.540         68.33	     9.055
  64.560         94.17	    10.630
  64.580         87.50	    10.247
  64.600         77.50	     9.644
  64.620        110.00	    11.489
  64.640        100.00	    10.954
  64.660        142.50	    13.077
  64.680        130.83	    12.530
  64.700        113.33	    11.662
  64.720         92.50	    10.536
  64.740         95.00	    10.677
  64.760         85.83	    10.149
  64.780         83.33	    10.000
  64.800         95.83	    10.724
  64.820         92.50	    10.536
  64.840         95.00	    10.677
  64.860         77.50	     9.644
  64.880         72.50	     9.327
  64.900         63.33	     8.718
  64.920         66.67	     8.944
  64.940         71.67	     9.274
  64.960         70.00	     9.165
  64.980         54.17	     8.062
  65.000         65.00	     8.832
