
Filename:
	C:\Program Files\Thermo Electron\WinXRD\Datafiles\F_HERMAN\FIEN\G49_RT.raw

File Created:
	January 30, 2020 - 04:30 PM

Specimen Id:
	G49 RT

Specimen Name:
	

Specimen Description:
	

Comment:
Scan Type: 2Theta Scan
Start Angle: 3 deg.
Stop Angle: 65 deg.
Num Points: 3101
Step Size: 0.02 deg.
Scan Rate: 1.000000
Scan Mode: Continuous
Wavelength: 1.540562
\Kalpha1: 1.540562	\Kalpha2: 1.544390	\Kbeta: 1.392218

Optics:
		Detector:
			 Type: Fixed Slits
		Tube: 
			 Type: Fixed Slits


Datas:
 Pos [deg]       Rate [CPS]      ESD [-]

Range 1 ---> Iteration 1
   3.000        428.33	    22.672
   3.020        420.00	    22.450
   3.040        418.33	    22.405
   3.060        459.17	    23.473
   3.080        455.00	    23.367
   3.100        398.33	    21.863
   3.120        427.50	    22.650
   3.140        407.50	    22.113
   3.160        408.33	    22.136
   3.180        418.33	    22.405
   3.200        405.83	    22.068
   3.220        375.00	    21.213
   3.240        381.67	    21.401
   3.260        379.17	    21.331
   3.280        394.17	    21.749
   3.300        377.50	    21.284
   3.320        367.50	    21.000
   3.340        379.17	    21.331
   3.360        411.67	    22.226
   3.380        380.83	    21.378
   3.400        364.17	    20.905
   3.420        367.50	    21.000
   3.440        365.00	    20.928
   3.460        363.33	    20.881
   3.480        346.67	    20.396
   3.500        365.83	    20.952
   3.520        349.17	    20.469
   3.540        366.67	    20.976
   3.560        374.17	    21.190
   3.580        365.83	    20.952
   3.600        360.00	    20.785
   3.620        332.50	    19.975
   3.640        334.17	    20.025
   3.660        320.83	    19.621
   3.680        302.50	    19.053
   3.700        342.50	    20.273
   3.720        335.00	    20.050
   3.740        343.33	    20.298
   3.760        336.67	    20.100
   3.780        330.83	    19.925
   3.800        320.00	    19.596
   3.820        311.67	    19.339
   3.840        300.83	    19.000
   3.860        344.17	    20.322
   3.880        327.50	    19.824
   3.900        311.67	    19.339
   3.920        315.00	    19.442
   3.940        319.17	    19.570
   3.960        300.00	    18.974
   3.980        302.50	    19.053
   4.000        305.83	    19.157
   4.020        317.50	    19.519
   4.040        308.33	    19.235
   4.060        283.33	    18.439
   4.080        300.83	    19.000
   4.100        297.50	    18.894
   4.120        273.33	    18.111
   4.140        297.50	    18.894
   4.160        307.50	    19.209
   4.180        290.83	    18.682
   4.200        277.50	    18.248
   4.220        286.67	    18.547
   4.240        264.17	    17.804
   4.260        267.50	    17.916
   4.280        274.17	    18.138
   4.300        293.33	    18.762
   4.320        315.83	    19.468
   4.340        273.33	    18.111
   4.360        265.00	    17.833
   4.380        279.17	    18.303
   4.400        258.33	    17.607
   4.420        270.00	    18.000
   4.440        261.67	    17.720
   4.460        260.83	    17.692
   4.480        262.50	    17.748
   4.500        255.00	    17.493
   4.520        292.50	    18.735
   4.540        255.83	    17.521
   4.560        245.83	    17.176
   4.580        280.83	    18.358
   4.600        245.83	    17.176
   4.620        247.50	    17.234
   4.640        286.67	    18.547
   4.660        242.50	    17.059
   4.680        256.67	    17.550
   4.700        246.67	    17.205
   4.720        256.67	    17.550
   4.740        220.00	    16.248
   4.760        268.33	    17.944
   4.780        247.50	    17.234
   4.800        264.17	    17.804
   4.820        256.67	    17.550
   4.840        199.17	    15.460
   4.860        240.00	    16.971
   4.880        215.83	    16.093
   4.900        231.67	    16.673
   4.920        244.17	    17.117
   4.940        232.50	    16.703
   4.960        231.67	    16.673
   4.980        237.50	    16.882
   5.000        235.83	    16.823
   5.020        245.83	    17.176
   5.040        217.50	    16.155
   5.060        239.17	    16.941
   5.080        225.83	    16.462
   5.100        245.83	    17.176
   5.120        235.83	    16.823
   5.140        227.50	    16.523
   5.160        227.50	    16.523
   5.180        229.17	    16.583
   5.200        220.83	    16.279
   5.220        230.00	    16.613
   5.240        209.17	    15.843
   5.260        234.17	    16.763
   5.280        209.17	    15.843
   5.300        210.83	    15.906
   5.320        193.33	    15.232
   5.340        235.83	    16.823
   5.360        204.17	    15.652
   5.380        198.33	    15.427
   5.400        204.17	    15.652
   5.420        201.67	    15.556
   5.440        224.17	    16.401
   5.460        205.83	    15.716
   5.480        181.67	    14.765
   5.500        212.50	    15.969
   5.520        229.17	    16.583
   5.540        202.50	    15.588
   5.560        195.00	    15.297
   5.580        220.83	    16.279
   5.600        200.83	    15.524
   5.620        200.83	    15.524
   5.640        213.33	    16.000
   5.660        228.33	    16.553
   5.680        206.67	    15.748
   5.700        220.00	    16.248
   5.720        194.17	    15.264
   5.740        201.67	    15.556
   5.760        204.17	    15.652
   5.780        174.17	    14.457
   5.800        217.50	    16.155
   5.820        198.33	    15.427
   5.840        207.50	    15.780
   5.860        215.00	    16.062
   5.880        189.17	    15.067
   5.900        180.00	    14.697
   5.920        212.50	    15.969
   5.940        225.83	    16.462
   5.960        223.33	    16.371
   5.980        207.50	    15.780
   6.000        229.17	    16.583
   6.020        197.50	    15.395
   6.040        214.17	    16.031
   6.060        213.33	    16.000
   6.080        213.33	    16.000
   6.100        197.50	    15.395
   6.120        249.17	    17.292
   6.140        248.33	    17.263
   6.160        244.17	    17.117
   6.180        242.50	    17.059
   6.200        208.33	    15.811
   6.220        234.17	    16.763
   6.240        202.50	    15.588
   6.260        190.00	    15.100
   6.280        180.83	    14.731
   6.300        197.50	    15.395
   6.320        185.00	    14.900
   6.340        177.50	    14.595
   6.360        181.67	    14.765
   6.380        189.17	    15.067
   6.400        174.17	    14.457
   6.420        175.00	    14.491
   6.440        190.83	    15.133
   6.460        155.83	    13.675
   6.480        173.33	    14.422
   6.500        206.67	    15.748
   6.520        177.50	    14.595
   6.540        166.67	    14.142
   6.560        179.17	    14.663
   6.580        169.17	    14.248
   6.600        150.00	    13.416
   6.620        148.33	    13.342
   6.640        175.83	    14.526
   6.660        156.67	    13.711
   6.680        176.67	    14.560
   6.700        144.17	    13.153
   6.720        158.33	    13.784
   6.740        161.67	    13.928
   6.760        178.33	    14.629
   6.780        188.33	    15.033
   6.800        181.67	    14.765
   6.820        168.33	    14.213
   6.840        165.83	    14.107
   6.860        150.00	    13.416
   6.880        144.17	    13.153
   6.900        170.00	    14.283
   6.920        171.67	    14.353
   6.940        166.67	    14.142
   6.960        162.50	    13.964
   6.980        162.50	    13.964
   7.000        154.17	    13.601
   7.020        168.33	    14.213
   7.040        145.83	    13.229
   7.060        163.33	    14.000
   7.080        143.33	    13.115
   7.100        141.67	    13.038
   7.120        168.33	    14.213
   7.140        170.00	    14.283
   7.160        147.50	    13.304
   7.180        162.50	    13.964
   7.200        155.00	    13.638
   7.220        171.67	    14.353
   7.240        174.17	    14.457
   7.260        148.33	    13.342
   7.280        138.33	    12.884
   7.300        159.17	    13.820
   7.320        143.33	    13.115
   7.340        145.00	    13.191
   7.360        149.17	    13.379
   7.380        133.33	    12.649
   7.400        147.50	    13.304
   7.420        133.33	    12.649
   7.440        163.33	    14.000
   7.460        145.83	    13.229
   7.480        171.67	    14.353
   7.500        155.83	    13.675
   7.520        154.17	    13.601
   7.540        130.83	    12.530
   7.560        150.83	    13.454
   7.580        136.67	    12.806
   7.600        155.83	    13.675
   7.620        125.00	    12.247
   7.640        145.00	    13.191
   7.660        141.67	    13.038
   7.680        140.83	    13.000
   7.700        139.17	    12.923
   7.720        145.83	    13.229
   7.740        167.50	    14.177
   7.760        152.50	    13.528
   7.780        143.33	    13.115
   7.800        129.17	    12.450
   7.820        139.17	    12.923
   7.840        151.67	    13.491
   7.860        142.50	    13.077
   7.880        148.33	    13.342
   7.900        135.00	    12.728
   7.920        137.50	    12.845
   7.940        135.83	    12.767
   7.960        110.83	    11.533
   7.980        136.67	    12.806
   8.000        124.17	    12.207
   8.020        140.00	    12.961
   8.040        139.17	    12.923
   8.060        129.17	    12.450
   8.080        123.33	    12.166
   8.100        118.33	    11.916
   8.120        141.67	    13.038
   8.140        119.17	    11.958
   8.160        121.67	    12.083
   8.180        131.67	    12.570
   8.200        140.83	    13.000
   8.220        139.17	    12.923
   8.240        131.67	    12.570
   8.260        134.17	    12.689
   8.280        130.00	    12.490
   8.300        127.50	    12.369
   8.320        108.33	    11.402
   8.340        121.67	    12.083
   8.360        120.00	    12.000
   8.380        124.17	    12.207
   8.400        142.50	    13.077
   8.420        142.50	    13.077
   8.440        118.33	    11.916
   8.460        128.33	    12.410
   8.480        110.83	    11.533
   8.500        122.50	    12.124
   8.520        140.83	    13.000
   8.540        146.67	    13.266
   8.560        140.00	    12.961
   8.580        113.33	    11.662
   8.600        139.17	    12.923
   8.620        163.33	    14.000
   8.640        141.67	    13.038
   8.660        160.00	    13.856
   8.680        172.50	    14.387
   8.700        171.67	    14.353
   8.720        189.17	    15.067
   8.740        185.83	    14.933
   8.760        198.33	    15.427
   8.780        194.17	    15.264
   8.800        248.33	    17.263
   8.820        273.33	    18.111
   8.840        333.33	    20.000
   8.860        309.17	    19.261
   8.880        274.17	    18.138
   8.900        273.33	    18.111
   8.920        202.50	    15.588
   8.940        155.83	    13.675
   8.960        146.67	    13.266
   8.980        123.33	    12.166
   9.000        131.67	    12.570
   9.020        134.17	    12.689
   9.040        121.67	    12.083
   9.060        134.17	    12.689
   9.080        125.83	    12.288
   9.100        122.50	    12.124
   9.120        110.83	    11.533
   9.140        115.00	    11.747
   9.160        125.83	    12.288
   9.180        118.33	    11.916
   9.200        142.50	    13.077
   9.220        125.83	    12.288
   9.240        122.50	    12.124
   9.260        125.83	    12.288
   9.280        110.00	    11.489
   9.300        108.33	    11.402
   9.320        130.83	    12.530
   9.340        112.50	    11.619
   9.360        119.17	    11.958
   9.380        124.17	    12.207
   9.400        113.33	    11.662
   9.420        124.17	    12.207
   9.440        150.83	    13.454
   9.460        127.50	    12.369
   9.480        116.67	    11.832
   9.500        126.67	    12.329
   9.520        122.50	    12.124
   9.540        131.67	    12.570
   9.560        113.33	    11.662
   9.580         95.00	    10.677
   9.600        100.83	    11.000
   9.620        102.50	    11.091
   9.640        113.33	    11.662
   9.660         95.83	    10.724
   9.680        103.33	    11.136
   9.700        108.33	    11.402
   9.720         99.17	    10.909
   9.740         88.33	    10.296
   9.760        120.00	    12.000
   9.780        113.33	    11.662
   9.800        103.33	    11.136
   9.820        104.17	    11.180
   9.840        110.83	    11.533
   9.860         99.17	    10.909
   9.880         97.50	    10.817
   9.900        110.00	    11.489
   9.920         98.33	    10.863
   9.940         92.50	    10.536
   9.960        100.83	    11.000
   9.980         89.17	    10.344
  10.000         94.17	    10.630
  10.020        109.17	    11.446
  10.040        103.33	    11.136
  10.060        120.00	    12.000
  10.080         88.33	    10.296
  10.100         99.17	    10.909
  10.120        117.50	    11.874
  10.140         94.17	    10.630
  10.160        107.50	    11.358
  10.180         95.83	    10.724
  10.200        100.83	    11.000
  10.220         92.50	    10.536
  10.240        100.83	    11.000
  10.260        106.67	    11.314
  10.280         97.50	    10.817
  10.300         81.67	     9.899
  10.320        104.17	    11.180
  10.340        101.67	    11.045
  10.360        103.33	    11.136
  10.380        105.83	    11.269
  10.400         98.33	    10.863
  10.420        118.33	    11.916
  10.440        104.17	    11.180
  10.460        100.00	    10.954
  10.480        121.67	    12.083
  10.500        108.33	    11.402
  10.520        115.00	    11.747
  10.540        110.83	    11.533
  10.560        127.50	    12.369
  10.580        128.33	    12.410
  10.600        121.67	    12.083
  10.620        104.17	    11.180
  10.640         94.17	    10.630
  10.660        112.50	    11.619
  10.680         93.33	    10.583
  10.700         85.83	    10.149
  10.720         96.67	    10.770
  10.740         97.50	    10.817
  10.760        102.50	    11.091
  10.780         91.67	    10.488
  10.800         85.00	    10.100
  10.820         85.83	    10.149
  10.840         99.17	    10.909
  10.860        100.83	    11.000
  10.880         83.33	    10.000
  10.900         80.83	     9.849
  10.920        100.00	    10.954
  10.940        111.67	    11.576
  10.960         92.50	    10.536
  10.980        108.33	    11.402
  11.000         85.83	    10.149
  11.020         80.00	     9.798
  11.040        100.00	    10.954
  11.060         92.50	    10.536
  11.080        104.17	    11.180
  11.100         89.17	    10.344
  11.120         85.83	    10.149
  11.140         92.50	    10.536
  11.160         94.17	    10.630
  11.180         90.00	    10.392
  11.200         96.67	    10.770
  11.220         90.00	    10.392
  11.240         88.33	    10.296
  11.260         84.17	    10.050
  11.280         77.50	     9.644
  11.300         81.67	     9.899
  11.320         75.83	     9.539
  11.340         80.83	     9.849
  11.360         90.83	    10.440
  11.380         86.67	    10.198
  11.400         90.00	    10.392
  11.420        104.17	    11.180
  11.440         77.50	     9.644
  11.460         95.83	    10.724
  11.480         90.83	    10.440
  11.500         87.50	    10.247
  11.520         85.83	    10.149
  11.540         89.17	    10.344
  11.560         98.33	    10.863
  11.580        103.33	    11.136
  11.600         99.17	    10.909
  11.620        105.00	    11.225
  11.640         95.00	    10.677
  11.660         97.50	    10.817
  11.680         89.17	    10.344
  11.700         81.67	     9.899
  11.720         86.67	    10.198
  11.740         85.00	    10.100
  11.760         88.33	    10.296
  11.780        100.83	    11.000
  11.800         84.17	    10.050
  11.820        108.33	    11.402
  11.840         84.17	    10.050
  11.860        101.67	    11.045
  11.880         95.83	    10.724
  11.900        103.33	    11.136
  11.920         96.67	    10.770
  11.940         87.50	    10.247
  11.960        100.00	    10.954
  11.980        107.50	    11.358
  12.000        108.33	    11.402
  12.020        121.67	    12.083
  12.040        104.17	    11.180
  12.060        112.50	    11.619
  12.080        135.83	    12.767
  12.100        161.67	    13.928
  12.120        212.50	    15.969
  12.140        370.83	    21.095
  12.160        552.50	    25.749
  12.180        546.67	    25.612
  12.200        425.00	    22.583
  12.220        234.17	    16.763
  12.240        196.67	    15.362
  12.260        139.17	    12.923
  12.280        153.33	    13.565
  12.300        174.17	    14.457
  12.320        239.17	    16.941
  12.340        206.67	    15.748
  12.360        170.00	    14.283
  12.380        166.67	    14.142
  12.400        173.33	    14.422
  12.420        175.00	    14.491
  12.440        186.67	    14.967
  12.460        224.17	    16.401
  12.480        205.83	    15.716
  12.500        184.17	    14.866
  12.520        137.50	    12.845
  12.540        118.33	    11.916
  12.560        114.17	    11.705
  12.580         95.83	    10.724
  12.600         79.17	     9.747
  12.620         84.17	    10.050
  12.640         76.67	     9.592
  12.660         85.00	    10.100
  12.680         74.17	     9.434
  12.700         87.50	    10.247
  12.720         96.67	    10.770
  12.740         84.17	    10.050
  12.760         80.83	     9.849
  12.780        100.83	    11.000
  12.800         98.33	    10.863
  12.820         79.17	     9.747
  12.840         75.83	     9.539
  12.860         70.00	     9.165
  12.880         86.67	    10.198
  12.900         72.50	     9.327
  12.920         78.33	     9.695
  12.940         82.50	     9.950
  12.960         88.33	    10.296
  12.980         84.17	    10.050
  13.000         65.83	     8.888
  13.020         72.50	     9.327
  13.040         90.83	    10.440
  13.060         82.50	     9.950
  13.080         86.67	    10.198
  13.100         89.17	    10.344
  13.120         95.83	    10.724
  13.140         77.50	     9.644
  13.160         70.83	     9.220
  13.180         78.33	     9.695
  13.200         89.17	    10.344
  13.220         84.17	    10.050
  13.240         61.67	     8.602
  13.260         67.50	     9.000
  13.280         90.00	    10.392
  13.300         74.17	     9.434
  13.320         65.83	     8.888
  13.340         69.17	     9.110
  13.360         93.33	    10.583
  13.380         85.00	    10.100
  13.400         76.67	     9.592
  13.420         81.67	     9.899
  13.440         74.17	     9.434
  13.460         85.00	    10.100
  13.480         87.50	    10.247
  13.500         76.67	     9.592
  13.520         65.00	     8.832
  13.540         94.17	    10.630
  13.560         84.17	    10.050
  13.580         90.00	    10.392
  13.600         76.67	     9.592
  13.620         75.83	     9.539
  13.640         80.83	     9.849
  13.660         73.33	     9.381
  13.680         75.00	     9.487
  13.700         86.67	    10.198
  13.720         74.17	     9.434
  13.740         64.17	     8.775
  13.760         70.00	     9.165
  13.780         90.83	    10.440
  13.800         81.67	     9.899
  13.820         74.17	     9.434
  13.840         93.33	    10.583
  13.860         89.17	    10.344
  13.880         69.17	     9.110
  13.900         82.50	     9.950
  13.920         59.17	     8.426
  13.940         82.50	     9.950
  13.960         74.17	     9.434
  13.980         74.17	     9.434
  14.000         75.83	     9.539
  14.020         64.17	     8.775
  14.040         74.17	     9.434
  14.060         75.00	     9.487
  14.080         64.17	     8.775
  14.100         70.83	     9.220
  14.120         68.33	     9.055
  14.140         71.67	     9.274
  14.160         57.50	     8.307
  14.180         80.00	     9.798
  14.200         75.83	     9.539
  14.220         55.83	     8.185
  14.240         71.67	     9.274
  14.260         62.50	     8.660
  14.280         83.33	    10.000
  14.300         85.83	    10.149
  14.320         65.00	     8.832
  14.340         63.33	     8.718
  14.360         68.33	     9.055
  14.380         66.67	     8.944
  14.400         76.67	     9.592
  14.420         58.33	     8.367
  14.440         68.33	     9.055
  14.460         72.50	     9.327
  14.480         65.00	     8.832
  14.500         70.00	     9.165
  14.520         70.83	     9.220
  14.540         61.67	     8.602
  14.560         60.83	     8.544
  14.580         70.00	     9.165
  14.600         63.33	     8.718
  14.620         79.17	     9.747
  14.640         65.00	     8.832
  14.660         80.83	     9.849
  14.680         63.33	     8.718
  14.700         67.50	     9.000
  14.720         59.17	     8.426
  14.740         66.67	     8.944
  14.760         54.17	     8.062
  14.780         55.83	     8.185
  14.800         56.67	     8.246
  14.820         60.83	     8.544
  14.840         48.33	     7.616
  14.860         68.33	     9.055
  14.880         63.33	     8.718
  14.900         64.17	     8.775
  14.920         67.50	     9.000
  14.940         57.50	     8.307
  14.960         79.17	     9.747
  14.980         82.50	     9.950
  15.000         72.50	     9.327
  15.020         65.00	     8.832
  15.040         50.83	     7.810
  15.060         50.83	     7.810
  15.080         74.17	     9.434
  15.100         71.67	     9.274
  15.120         75.83	     9.539
  15.140         64.17	     8.775
  15.160         62.50	     8.660
  15.180         56.67	     8.246
  15.200         78.33	     9.695
  15.220         67.50	     9.000
  15.240         67.50	     9.000
  15.260         68.33	     9.055
  15.280         60.83	     8.544
  15.300         91.67	    10.488
  15.320         52.50	     7.937
  15.340         52.50	     7.937
  15.360         69.17	     9.110
  15.380         50.00	     7.746
  15.400         63.33	     8.718
  15.420         61.67	     8.602
  15.440         59.17	     8.426
  15.460         77.50	     9.644
  15.480         54.17	     8.062
  15.500         65.83	     8.888
  15.520         59.17	     8.426
  15.540         52.50	     7.937
  15.560         67.50	     9.000
  15.580         64.17	     8.775
  15.600         65.83	     8.888
  15.620         55.00	     8.124
  15.640         59.17	     8.426
  15.660         51.67	     7.874
  15.680         55.00	     8.124
  15.700         69.17	     9.110
  15.720         55.83	     8.185
  15.740         61.67	     8.602
  15.760         70.83	     9.220
  15.780         69.17	     9.110
  15.800         55.83	     8.185
  15.820         65.83	     8.888
  15.840         60.83	     8.544
  15.860         58.33	     8.367
  15.880         75.83	     9.539
  15.900         70.00	     9.165
  15.920         86.67	    10.198
  15.940         60.00	     8.485
  15.960         69.17	     9.110
  15.980         61.67	     8.602
  16.000         77.50	     9.644
  16.020         54.17	     8.062
  16.040         57.50	     8.307
  16.060         60.00	     8.485
  16.080         79.17	     9.747
  16.100         70.83	     9.220
  16.120         60.00	     8.485
  16.140         56.67	     8.246
  16.160         63.33	     8.718
  16.180         59.17	     8.426
  16.200         60.83	     8.544
  16.220         63.33	     8.718
  16.240         46.67	     7.483
  16.260         53.33	     8.000
  16.280         55.83	     8.185
  16.300         75.00	     9.487
  16.320         46.67	     7.483
  16.340         63.33	     8.718
  16.360         70.00	     9.165
  16.380         62.50	     8.660
  16.400         61.67	     8.602
  16.420         56.67	     8.246
  16.440         59.17	     8.426
  16.460         59.17	     8.426
  16.480         56.67	     8.246
  16.500         55.83	     8.185
  16.520         66.67	     8.944
  16.540         63.33	     8.718
  16.560         54.17	     8.062
  16.580         54.17	     8.062
  16.600         60.00	     8.485
  16.620         58.33	     8.367
  16.640         60.83	     8.544
  16.660         63.33	     8.718
  16.680         58.33	     8.367
  16.700         65.00	     8.832
  16.720         58.33	     8.367
  16.740         50.00	     7.746
  16.760         45.00	     7.348
  16.780         63.33	     8.718
  16.800         65.00	     8.832
  16.820         69.17	     9.110
  16.840         75.83	     9.539
  16.860         46.67	     7.483
  16.880         57.50	     8.307
  16.900         54.17	     8.062
  16.920         64.17	     8.775
  16.940         65.00	     8.832
  16.960         53.33	     8.000
  16.980         56.67	     8.246
  17.000         57.50	     8.307
  17.020         64.17	     8.775
  17.040         72.50	     9.327
  17.060         61.67	     8.602
  17.080         49.17	     7.681
  17.100         65.83	     8.888
  17.120         69.17	     9.110
  17.140         57.50	     8.307
  17.160         56.67	     8.246
  17.180         55.83	     8.185
  17.200         65.00	     8.832
  17.220         52.50	     7.937
  17.240         50.83	     7.810
  17.260         56.67	     8.246
  17.280         57.50	     8.307
  17.300         60.00	     8.485
  17.320         65.00	     8.832
  17.340         80.00	     9.798
  17.360         60.00	     8.485
  17.380         60.83	     8.544
  17.400         73.33	     9.381
  17.420         71.67	     9.274
  17.440         66.67	     8.944
  17.460         59.17	     8.426
  17.480         53.33	     8.000
  17.500         71.67	     9.274
  17.520         62.50	     8.660
  17.540         74.17	     9.434
  17.560         65.83	     8.888
  17.580         70.00	     9.165
  17.600         67.50	     9.000
  17.620         63.33	     8.718
  17.640         80.00	     9.798
  17.660         71.67	     9.274
  17.680         63.33	     8.718
  17.700         87.50	    10.247
  17.720         81.67	     9.899
  17.740         98.33	    10.863
  17.760        120.00	    12.000
  17.780        135.00	    12.728
  17.800        120.00	    12.000
  17.820        143.33	    13.115
  17.840        124.17	    12.207
  17.860        100.00	    10.954
  17.880         81.67	     9.899
  17.900         71.67	     9.274
  17.920         60.00	     8.485
  17.940         65.83	     8.888
  17.960         68.33	     9.055
  17.980         53.33	     8.000
  18.000         56.67	     8.246
  18.020         70.83	     9.220
  18.040         56.67	     8.246
  18.060         59.17	     8.426
  18.080         86.67	    10.198
  18.100         47.50	     7.550
  18.120         64.17	     8.775
  18.140         62.50	     8.660
  18.160         49.17	     7.681
  18.180         58.33	     8.367
  18.200         57.50	     8.307
  18.220         55.00	     8.124
  18.240         47.50	     7.550
  18.260         56.67	     8.246
  18.280         55.83	     8.185
  18.300         79.17	     9.747
  18.320         48.33	     7.616
  18.340         55.00	     8.124
  18.360         55.83	     8.185
  18.380         53.33	     8.000
  18.400         67.50	     9.000
  18.420         51.67	     7.874
  18.440         58.33	     8.367
  18.460         72.50	     9.327
  18.480         65.83	     8.888
  18.500         97.50	    10.817
  18.520        108.33	    11.402
  18.540        122.50	    12.124
  18.560        134.17	    12.689
  18.580        100.00	    10.954
  18.600         88.33	    10.296
  18.620         85.00	    10.100
  18.640         73.33	     9.381
  18.660         69.17	     9.110
  18.680         69.17	     9.110
  18.700         92.50	    10.536
  18.720        105.00	    11.225
  18.740         98.33	    10.863
  18.760        100.83	    11.000
  18.780        110.00	    11.489
  18.800         95.83	    10.724
  18.820         80.00	     9.798
  18.840         76.67	     9.592
  18.860         71.67	     9.274
  18.880         47.50	     7.550
  18.900         62.50	     8.660
  18.920         45.83	     7.416
  18.940         58.33	     8.367
  18.960         76.67	     9.592
  18.980         55.83	     8.185
  19.000         75.83	     9.539
  19.020         56.67	     8.246
  19.040         49.17	     7.681
  19.060         59.17	     8.426
  19.080         67.50	     9.000
  19.100         69.17	     9.110
  19.120         54.17	     8.062
  19.140         67.50	     9.000
  19.160         69.17	     9.110
  19.180         69.17	     9.110
  19.200         46.67	     7.483
  19.220         52.50	     7.937
  19.240         61.67	     8.602
  19.260         54.17	     8.062
  19.280         65.83	     8.888
  19.300         63.33	     8.718
  19.320         59.17	     8.426
  19.340         58.33	     8.367
  19.360         50.83	     7.810
  19.380         66.67	     8.944
  19.400         58.33	     8.367
  19.420         61.67	     8.602
  19.440         66.67	     8.944
  19.460         56.67	     8.246
  19.480         60.00	     8.485
  19.500         60.83	     8.544
  19.520         65.00	     8.832
  19.540         51.67	     7.874
  19.560         71.67	     9.274
  19.580         70.00	     9.165
  19.600         69.17	     9.110
  19.620         57.50	     8.307
  19.640         59.17	     8.426
  19.660         69.17	     9.110
  19.680         74.17	     9.434
  19.700         69.17	     9.110
  19.720         73.33	     9.381
  19.740         75.83	     9.539
  19.760         93.33	    10.583
  19.780         95.83	    10.724
  19.800         80.83	     9.849
  19.820         79.17	     9.747
  19.840         76.67	     9.592
  19.860         76.67	     9.592
  19.880         79.17	     9.747
  19.900         69.17	     9.110
  19.920         69.17	     9.110
  19.940         67.50	     9.000
  19.960         60.83	     8.544
  19.980         51.67	     7.874
  20.000         62.50	     8.660
  20.020         69.17	     9.110
  20.040         61.67	     8.602
  20.060         80.00	     9.798
  20.080         75.00	     9.487
  20.100         54.17	     8.062
  20.120         54.17	     8.062
  20.140         71.67	     9.274
  20.160         51.67	     7.874
  20.180         64.17	     8.775
  20.200         68.33	     9.055
  20.220         50.83	     7.810
  20.240         40.83	     7.000
  20.260         55.00	     8.124
  20.280         62.50	     8.660
  20.300         53.33	     8.000
  20.320         77.50	     9.644
  20.340         48.33	     7.616
  20.360         55.00	     8.124
  20.380         57.50	     8.307
  20.400         67.50	     9.000
  20.420         55.00	     8.124
  20.440         59.17	     8.426
  20.460         63.33	     8.718
  20.480         61.67	     8.602
  20.500         51.67	     7.874
  20.520         65.00	     8.832
  20.540         65.83	     8.888
  20.560         70.00	     9.165
  20.580         57.50	     8.307
  20.600         77.50	     9.644
  20.620         74.17	     9.434
  20.640         75.00	     9.487
  20.660         75.00	     9.487
  20.680         78.33	     9.695
  20.700         89.17	    10.344
  20.720         80.00	     9.798
  20.740        123.33	    12.166
  20.760        161.67	    13.928
  20.780        201.67	    15.556
  20.800        265.83	    17.861
  20.820        341.67	    20.248
  20.840        330.00	    19.900
  20.860        264.17	    17.804
  20.880        215.00	    16.062
  20.900        171.67	    14.353
  20.920        117.50	    11.874
  20.940        110.00	    11.489
  20.960         99.17	    10.909
  20.980        111.67	    11.576
  21.000        109.17	    11.446
  21.020        100.83	    11.000
  21.040         97.50	    10.817
  21.060         82.50	     9.950
  21.080         60.83	     8.544
  21.100         57.50	     8.307
  21.120         60.83	     8.544
  21.140         70.00	     9.165
  21.160         65.00	     8.832
  21.180         58.33	     8.367
  21.200         62.50	     8.660
  21.220         55.00	     8.124
  21.240         58.33	     8.367
  21.260         47.50	     7.550
  21.280         62.50	     8.660
  21.300         57.50	     8.307
  21.320         55.00	     8.124
  21.340         49.17	     7.681
  21.360         43.33	     7.211
  21.380         58.33	     8.367
  21.400         62.50	     8.660
  21.420         58.33	     8.367
  21.440         58.33	     8.367
  21.460         53.33	     8.000
  21.480         53.33	     8.000
  21.500         59.17	     8.426
  21.520         51.67	     7.874
  21.540         65.00	     8.832
  21.560         51.67	     7.874
  21.580         48.33	     7.616
  21.600         52.50	     7.937
  21.620         45.00	     7.348
  21.640         60.00	     8.485
  21.660         44.17	     7.280
  21.680         52.50	     7.937
  21.700         54.17	     8.062
  21.720         52.50	     7.937
  21.740         50.00	     7.746
  21.760         60.83	     8.544
  21.780         62.50	     8.660
  21.800         65.00	     8.832
  21.820         75.83	     9.539
  21.840         66.67	     8.944
  21.860         82.50	     9.950
  21.880         73.33	     9.381
  21.900         88.33	    10.296
  21.920        145.83	    13.229
  21.940        275.00	    18.166
  21.960        365.83	    20.952
  21.980        400.83	    21.932
  22.000        342.50	    20.273
  22.020        340.83	    20.224
  22.040        244.17	    17.117
  22.060        168.33	    14.213
  22.080        110.00	    11.489
  22.100         88.33	    10.296
  22.120         79.17	     9.747
  22.140         58.33	     8.367
  22.160         60.83	     8.544
  22.180         66.67	     8.944
  22.200         60.00	     8.485
  22.220         45.83	     7.416
  22.240         57.50	     8.307
  22.260         51.67	     7.874
  22.280         55.83	     8.185
  22.300         48.33	     7.616
  22.320         42.50	     7.141
  22.340         51.67	     7.874
  22.360         68.33	     9.055
  22.380         51.67	     7.874
  22.400         59.17	     8.426
  22.420         45.83	     7.416
  22.440         64.17	     8.775
  22.460         66.67	     8.944
  22.480         56.67	     8.246
  22.500         55.83	     8.185
  22.520         45.83	     7.416
  22.540         54.17	     8.062
  22.560         60.00	     8.485
  22.580         60.00	     8.485
  22.600         51.67	     7.874
  22.620         45.00	     7.348
  22.640         45.00	     7.348
  22.660         51.67	     7.874
  22.680         43.33	     7.211
  22.700         52.50	     7.937
  22.720         57.50	     8.307
  22.740         52.50	     7.937
  22.760         65.00	     8.832
  22.780         66.67	     8.944
  22.800         71.67	     9.274
  22.820         80.83	     9.849
  22.840         79.17	     9.747
  22.860         76.67	     9.592
  22.880         80.00	     9.798
  22.900         86.67	    10.198
  22.920         80.00	     9.798
  22.940         80.83	     9.849
  22.960         67.50	     9.000
  22.980         69.17	     9.110
  23.000         61.67	     8.602
  23.020         70.83	     9.220
  23.040         80.00	     9.798
  23.060         75.83	     9.539
  23.080         55.83	     8.185
  23.100         56.67	     8.246
  23.120         65.00	     8.832
  23.140         51.67	     7.874
  23.160         56.67	     8.246
  23.180         49.17	     7.681
  23.200         50.83	     7.810
  23.220         64.17	     8.775
  23.240         58.33	     8.367
  23.260         60.83	     8.544
  23.280         54.17	     8.062
  23.300         53.33	     8.000
  23.320         45.00	     7.348
  23.340         66.67	     8.944
  23.360         69.17	     9.110
  23.380         80.83	     9.849
  23.400         52.50	     7.937
  23.420         57.50	     8.307
  23.440         61.67	     8.602
  23.460         75.00	     9.487
  23.480        117.50	    11.874
  23.500        120.83	    12.042
  23.520        110.00	    11.489
  23.540        115.83	    11.790
  23.560        106.67	    11.314
  23.580         89.17	    10.344
  23.600         69.17	     9.110
  23.620         66.67	     8.944
  23.640         63.33	     8.718
  23.660         70.00	     9.165
  23.680         70.00	     9.165
  23.700         62.50	     8.660
  23.720         61.67	     8.602
  23.740         55.83	     8.185
  23.760         54.17	     8.062
  23.780         75.00	     9.487
  23.800         82.50	     9.950
  23.820         87.50	    10.247
  23.840         59.17	     8.426
  23.860         65.00	     8.832
  23.880         61.67	     8.602
  23.900         65.83	     8.888
  23.920         60.83	     8.544
  23.940         50.00	     7.746
  23.960         79.17	     9.747
  23.980         74.17	     9.434
  24.000         75.00	     9.487
  24.020         79.17	     9.747
  24.040         65.00	     8.832
  24.060         90.00	    10.392
  24.080         88.33	    10.296
  24.100        110.00	    11.489
  24.120        115.00	    11.747
  24.140        105.83	    11.269
  24.160        115.00	    11.747
  24.180         95.00	    10.677
  24.200        107.50	    11.358
  24.220        140.00	    12.961
  24.240        125.83	    12.288
  24.260        110.83	    11.533
  24.280        112.50	    11.619
  24.300        107.50	    11.358
  24.320         80.83	     9.849
  24.340         73.33	     9.381
  24.360         66.67	     8.944
  24.380         69.17	     9.110
  24.400         69.17	     9.110
  24.420         75.83	     9.539
  24.440         67.50	     9.000
  24.460         80.83	     9.849
  24.480         98.33	    10.863
  24.500        129.17	    12.450
  24.520        150.83	    13.454
  24.540        150.83	    13.454
  24.560        165.00	    14.071
  24.580        185.83	    14.933
  24.600        173.33	    14.422
  24.620        140.00	    12.961
  24.640        146.67	    13.266
  24.660        126.67	    12.329
  24.680        106.67	    11.314
  24.700         99.17	    10.909
  24.720        100.83	    11.000
  24.740        136.67	    12.806
  24.760         95.83	    10.724
  24.780        110.83	    11.533
  24.800        135.83	    12.767
  24.820        124.17	    12.207
  24.840        117.50	    11.874
  24.860        114.17	    11.705
  24.880        101.67	    11.045
  24.900         95.00	    10.677
  24.920         83.33	    10.000
  24.940         65.00	     8.832
  24.960         84.17	    10.050
  24.980         71.67	     9.274
  25.000         85.00	    10.100
  25.020         86.67	    10.198
  25.040         95.83	    10.724
  25.060        121.67	    12.083
  25.080        136.67	    12.806
  25.100        159.17	    13.820
  25.120        155.83	    13.675
  25.140        147.50	    13.304
  25.160        177.50	    14.595
  25.180        110.00	    11.489
  25.200        112.50	    11.619
  25.220         80.00	     9.798
  25.240         86.67	    10.198
  25.260         87.50	    10.247
  25.280         85.00	    10.100
  25.300         96.67	    10.770
  25.320         86.67	    10.198
  25.340        101.67	    11.045
  25.360         97.50	    10.817
  25.380        126.67	    12.329
  25.400        120.83	    12.042
  25.420        110.83	    11.533
  25.440        116.67	    11.832
  25.460        137.50	    12.845
  25.480        106.67	    11.314
  25.500        137.50	    12.845
  25.520        106.67	    11.314
  25.540        118.33	    11.916
  25.560        121.67	    12.083
  25.580        128.33	    12.410
  25.600        120.00	    12.000
  25.620        115.83	    11.790
  25.640        119.17	    11.958
  25.660        101.67	    11.045
  25.680         89.17	    10.344
  25.700         81.67	     9.899
  25.720         68.33	     9.055
  25.740         70.83	     9.220
  25.760         61.67	     8.602
  25.780         65.00	     8.832
  25.800         54.17	     8.062
  25.820         57.50	     8.307
  25.840         62.50	     8.660
  25.860         57.50	     8.307
  25.880         52.50	     7.937
  25.900         60.83	     8.544
  25.920         43.33	     7.211
  25.940         52.50	     7.937
  25.960         64.17	     8.775
  25.980         55.83	     8.185
  26.000         60.00	     8.485
  26.020         59.17	     8.426
  26.040         60.00	     8.485
  26.060         55.83	     8.185
  26.080         75.83	     9.539
  26.100         56.67	     8.246
  26.120         61.67	     8.602
  26.140         90.83	    10.440
  26.160         89.17	    10.344
  26.180         98.33	    10.863
  26.200         93.33	    10.583
  26.220        100.00	    10.954
  26.240         85.83	    10.149
  26.260         75.83	     9.539
  26.280         66.67	     8.944
  26.300         96.67	    10.770
  26.320         85.00	    10.100
  26.340         88.33	    10.296
  26.360        112.50	    11.619
  26.380        116.67	    11.832
  26.400        133.33	    12.649
  26.420        150.83	    13.454
  26.440        160.83	    13.892
  26.460        197.50	    15.395
  26.480        225.83	    16.462
  26.500        278.33	    18.276
  26.520        418.33	    22.405
  26.540        610.00	    27.055
  26.560       1077.50	    35.958
  26.580       1728.33	    45.541
  26.600       2152.50	    50.823
  26.620       2107.50	    50.289
  26.640       1669.17	    44.755
  26.660       1404.17	    41.049
  26.680       1239.17	    38.562
  26.700        812.50	    31.225
  26.720        476.67	    23.917
  26.740        305.00	    19.131
  26.760        269.17	    17.972
  26.780        280.83	    18.358
  26.800        301.67	    19.026
  26.820        282.50	    18.412
  26.840        335.00	    20.050
  26.860        321.67	    19.647
  26.880        293.33	    18.762
  26.900        261.67	    17.720
  26.920        235.00	    16.793
  26.940        194.17	    15.264
  26.960        150.83	    13.454
  26.980        136.67	    12.806
  27.000        116.67	    11.832
  27.020        104.17	    11.180
  27.040        102.50	    11.091
  27.060         83.33	    10.000
  27.080         71.67	     9.274
  27.100         81.67	     9.899
  27.120         81.67	     9.899
  27.140         65.00	     8.832
  27.160         62.50	     8.660
  27.180         67.50	     9.000
  27.200         55.00	     8.124
  27.220         53.33	     8.000
  27.240         50.83	     7.810
  27.260         66.67	     8.944
  27.280         70.83	     9.220
  27.300         45.83	     7.416
  27.320         46.67	     7.483
  27.340         65.83	     8.888
  27.360         65.00	     8.832
  27.380         67.50	     9.000
  27.400         80.83	     9.849
  27.420         89.17	    10.344
  27.440        104.17	    11.180
  27.460        114.17	    11.705
  27.480        115.00	    11.747
  27.500         95.83	    10.724
  27.520        103.33	    11.136
  27.540         84.17	    10.050
  27.560         71.67	     9.274
  27.580         82.50	     9.950
  27.600         90.83	    10.440
  27.620        104.17	    11.180
  27.640        113.33	    11.662
  27.660        140.83	    13.000
  27.680        190.83	    15.133
  27.700        176.67	    14.560
  27.720        163.33	    14.000
  27.740        175.83	    14.526
  27.760        181.67	    14.765
  27.780        166.67	    14.142
  27.800        168.33	    14.213
  27.820        193.33	    15.232
  27.840        189.17	    15.067
  27.860        230.83	    16.643
  27.880        260.83	    17.692
  27.900        288.33	    18.601
  27.920        327.50	    19.824
  27.940        326.67	    19.799
  27.960        256.67	    17.550
  27.980        216.67	    16.125
  28.000        190.00	    15.100
  28.020        160.83	    13.892
  28.040        113.33	    11.662
  28.060         90.83	    10.440
  28.080        115.00	    11.747
  28.100        118.33	    11.916
  28.120        109.17	    11.446
  28.140        112.50	    11.619
  28.160        113.33	    11.662
  28.180        119.17	    11.958
  28.200        119.17	    11.958
  28.220        114.17	    11.705
  28.240        108.33	    11.402
  28.260        105.83	    11.269
  28.280         99.17	    10.909
  28.300         82.50	     9.950
  28.320         82.50	     9.950
  28.340         59.17	     8.426
  28.360         70.00	     9.165
  28.380         58.33	     8.367
  28.400         59.17	     8.426
  28.420         51.67	     7.874
  28.440         69.17	     9.110
  28.460         53.33	     8.000
  28.480         68.33	     9.055
  28.500         63.33	     8.718
  28.520         60.00	     8.485
  28.540         63.33	     8.718
  28.560         85.00	    10.100
  28.580         66.67	     8.944
  28.600         70.83	     9.220
  28.620         83.33	    10.000
  28.640         85.00	    10.100
  28.660         75.83	     9.539
  28.680         83.33	    10.000
  28.700         73.33	     9.381
  28.720         55.83	     8.185
  28.740         44.17	     7.280
  28.760         60.00	     8.485
  28.780         50.83	     7.810
  28.800         48.33	     7.616
  28.820         60.00	     8.485
  28.840         42.50	     7.141
  28.860         46.67	     7.483
  28.880         46.67	     7.483
  28.900         43.33	     7.211
  28.920         54.17	     8.062
  28.940         50.83	     7.810
  28.960         41.67	     7.071
  28.980         45.00	     7.348
  29.000         42.50	     7.141
  29.020         45.00	     7.348
  29.040         41.67	     7.071
  29.060         53.33	     8.000
  29.080         54.17	     8.062
  29.100         46.67	     7.483
  29.120         49.17	     7.681
  29.140         44.17	     7.280
  29.160         50.00	     7.746
  29.180         43.33	     7.211
  29.200         35.83	     6.557
  29.220         38.33	     6.782
  29.240         52.50	     7.937
  29.260         40.83	     7.000
  29.280         48.33	     7.616
  29.300         45.83	     7.416
  29.320         50.83	     7.810
  29.340         53.33	     8.000
  29.360         59.17	     8.426
  29.380         54.17	     8.062
  29.400         63.33	     8.718
  29.420         61.67	     8.602
  29.440         60.83	     8.544
  29.460         49.17	     7.681
  29.480         51.67	     7.874
  29.500         48.33	     7.616
  29.520         48.33	     7.616
  29.540         55.00	     8.124
  29.560         42.50	     7.141
  29.580         53.33	     8.000
  29.600         50.00	     7.746
  29.620         64.17	     8.775
  29.640         57.50	     8.307
  29.660         65.83	     8.888
  29.680         57.50	     8.307
  29.700         70.83	     9.220
  29.720        135.83	    12.767
  29.740        153.33	    13.565
  29.760        145.83	    13.229
  29.780        130.00	    12.490
  29.800        141.67	    13.038
  29.820        152.50	    13.528
  29.840        130.00	    12.490
  29.860        117.50	    11.874
  29.880         95.83	    10.724
  29.900        112.50	    11.619
  29.920         90.00	    10.392
  29.940         93.33	    10.583
  29.960         90.00	    10.392
  29.980         80.00	     9.798
  30.000        100.00	    10.954
  30.020         94.17	    10.630
  30.040        102.50	    11.091
  30.060        120.83	    12.042
  30.080        113.33	    11.662
  30.100        103.33	    11.136
  30.120        103.33	    11.136
  30.140         90.00	    10.392
  30.160         96.67	    10.770
  30.180         85.00	    10.100
  30.200         79.17	     9.747
  30.220         73.33	     9.381
  30.240         74.17	     9.434
  30.260         84.17	    10.050
  30.280         69.17	     9.110
  30.300         86.67	    10.198
  30.320         74.17	     9.434
  30.340         71.67	     9.274
  30.360        105.83	    11.269
  30.380        147.50	    13.304
  30.400        222.50	    16.340
  30.420        171.67	    14.353
  30.440        138.33	    12.884
  30.460        167.50	    14.177
  30.480        158.33	    13.784
  30.500        105.00	    11.225
  30.520         95.00	    10.677
  30.540         65.00	     8.832
  30.560         60.00	     8.485
  30.580         57.50	     8.307
  30.600         51.67	     7.874
  30.620         39.17	     6.856
  30.640         45.00	     7.348
  30.660         56.67	     8.246
  30.680         43.33	     7.211
  30.700         53.33	     8.000
  30.720         60.00	     8.485
  30.740         67.50	     9.000
  30.760         65.83	     8.888
  30.780         58.33	     8.367
  30.800         70.83	     9.220
  30.820         61.67	     8.602
  30.840         66.67	     8.944
  30.860         58.33	     8.367
  30.880         57.50	     8.307
  30.900         62.50	     8.660
  30.920         56.67	     8.246
  30.940         43.33	     7.211
  30.960         41.67	     7.071
  30.980         48.33	     7.616
  31.000         62.50	     8.660
  31.020         45.00	     7.348
  31.040         55.00	     8.124
  31.060         42.50	     7.141
  31.080         63.33	     8.718
  31.100         61.67	     8.602
  31.120         66.67	     8.944
  31.140         70.83	     9.220
  31.160        105.00	    11.225
  31.180        103.33	    11.136
  31.200         97.50	    10.817
  31.220        109.17	    11.446
  31.240         92.50	    10.536
  31.260         74.17	     9.434
  31.280         79.17	     9.747
  31.300         68.33	     9.055
  31.320         60.83	     8.544
  31.340         55.00	     8.124
  31.360         47.50	     7.550
  31.380         58.33	     8.367
  31.400         64.17	     8.775
  31.420         52.50	     7.937
  31.440         41.67	     7.071
  31.460         49.17	     7.681
  31.480         66.67	     8.944
  31.500         40.83	     7.000
  31.520         63.33	     8.718
  31.540         52.50	     7.937
  31.560         72.50	     9.327
  31.580         57.50	     8.307
  31.600         59.17	     8.426
  31.620         51.67	     7.874
  31.640         48.33	     7.616
  31.660         56.67	     8.246
  31.680         45.83	     7.416
  31.700         37.50	     6.708
  31.720         46.67	     7.483
  31.740         38.33	     6.782
  31.760         35.00	     6.481
  31.780         44.17	     7.280
  31.800         55.83	     8.185
  31.820         57.50	     8.307
  31.840         50.83	     7.810
  31.860         49.17	     7.681
  31.880         61.67	     8.602
  31.900         52.50	     7.937
  31.920         64.17	     8.775
  31.940         64.17	     8.775
  31.960         60.83	     8.544
  31.980         78.33	     9.695
  32.000         70.00	     9.165
  32.020         71.67	     9.274
  32.040         81.67	     9.899
  32.060         65.83	     8.888
  32.080         82.50	     9.950
  32.100         76.67	     9.592
  32.120         73.33	     9.381
  32.140         70.83	     9.220
  32.160         43.33	     7.211
  32.180         48.33	     7.616
  32.200         53.33	     8.000
  32.220         40.00	     6.928
  32.240         35.83	     6.557
  32.260         40.83	     7.000
  32.280         47.50	     7.550
  32.300         47.50	     7.550
  32.320         44.17	     7.280
  32.340         50.00	     7.746
  32.360         27.50	     5.745
  32.380         37.50	     6.708
  32.400         40.83	     7.000
  32.420         35.83	     6.557
  32.440         38.33	     6.782
  32.460         34.17	     6.403
  32.480         42.50	     7.141
  32.500         47.50	     7.550
  32.520         44.17	     7.280
  32.540         37.50	     6.708
  32.560         40.00	     6.928
  32.580         33.33	     6.325
  32.600         33.33	     6.325
  32.620         27.50	     5.745
  32.640         36.67	     6.633
  32.660         34.17	     6.403
  32.680         36.67	     6.633
  32.700         39.17	     6.856
  32.720         38.33	     6.782
  32.740         45.00	     7.348
  32.760         36.67	     6.633
  32.780         40.83	     7.000
  32.800         47.50	     7.550
  32.820         35.83	     6.557
  32.840         44.17	     7.280
  32.860         31.67	     6.164
  32.880         40.00	     6.928
  32.900         53.33	     8.000
  32.920         39.17	     6.856
  32.940         55.00	     8.124
  32.960         45.83	     7.416
  32.980         56.67	     8.246
  33.000         61.67	     8.602
  33.020         61.67	     8.602
  33.040         55.83	     8.185
  33.060         69.17	     9.110
  33.080         73.33	     9.381
  33.100         56.67	     8.246
  33.120         45.83	     7.416
  33.140         45.00	     7.348
  33.160         47.50	     7.550
  33.180         45.00	     7.348
  33.200         37.50	     6.708
  33.220         32.50	     6.245
  33.240         30.83	     6.083
  33.260         36.67	     6.633
  33.280         49.17	     7.681
  33.300         51.67	     7.874
  33.320         69.17	     9.110
  33.340         65.83	     8.888
  33.360         65.00	     8.832
  33.380         65.83	     8.888
  33.400         43.33	     7.211
  33.420         51.67	     7.874
  33.440         58.33	     8.367
  33.460         42.50	     7.141
  33.480         42.50	     7.141
  33.500         39.17	     6.856
  33.520         53.33	     8.000
  33.540         45.00	     7.348
  33.560         45.00	     7.348
  33.580         50.00	     7.746
  33.600         45.00	     7.348
  33.620         54.17	     8.062
  33.640         29.17	     5.916
  33.660         40.83	     7.000
  33.680         44.17	     7.280
  33.700         40.83	     7.000
  33.720         40.83	     7.000
  33.740         40.00	     6.928
  33.760         35.00	     6.481
  33.780         43.33	     7.211
  33.800         31.67	     6.164
  33.820         43.33	     7.211
  33.840         45.00	     7.348
  33.860         48.33	     7.616
  33.880         45.00	     7.348
  33.900         44.17	     7.280
  33.920         47.50	     7.550
  33.940         53.33	     8.000
  33.960         61.67	     8.602
  33.980         62.50	     8.660
  34.000         60.00	     8.485
  34.020         48.33	     7.616
  34.040         50.83	     7.810
  34.060         57.50	     8.307
  34.080         44.17	     7.280
  34.100         43.33	     7.211
  34.120         46.67	     7.483
  34.140         45.00	     7.348
  34.160         40.00	     6.928
  34.180         50.00	     7.746
  34.200         47.50	     7.550
  34.220         45.00	     7.348
  34.240         44.17	     7.280
  34.260         47.50	     7.550
  34.280         55.00	     8.124
  34.300         55.83	     8.185
  34.320         46.67	     7.483
  34.340         65.83	     8.888
  34.360         75.00	     9.487
  34.380         71.67	     9.274
  34.400         84.17	    10.050
  34.420         72.50	     9.327
  34.440         75.00	     9.487
  34.460         86.67	    10.198
  34.480         72.50	     9.327
  34.500         75.00	     9.487
  34.520         67.50	     9.000
  34.540         75.00	     9.487
  34.560         80.00	     9.798
  34.580         92.50	    10.536
  34.600         68.33	     9.055
  34.620         79.17	     9.747
  34.640         69.17	     9.110
  34.660         80.00	     9.798
  34.680         78.33	     9.695
  34.700         67.50	     9.000
  34.720         70.00	     9.165
  34.740         65.83	     8.888
  34.760         75.83	     9.539
  34.780         72.50	     9.327
  34.800         95.83	    10.724
  34.820         77.50	     9.644
  34.840        101.67	    11.045
  34.860         78.33	     9.695
  34.880         70.00	     9.165
  34.900         95.83	    10.724
  34.920         85.83	    10.149
  34.940        108.33	    11.402
  34.960         80.00	     9.798
  34.980         92.50	    10.536
  35.000         88.33	    10.296
  35.020         78.33	     9.695
  35.040         85.00	    10.100
  35.060         92.50	    10.536
  35.080         86.67	    10.198
  35.100         75.00	     9.487
  35.120         80.83	     9.849
  35.140         78.33	     9.695
  35.160         64.17	     8.775
  35.180         68.33	     9.055
  35.200         69.17	     9.110
  35.220         71.67	     9.274
  35.240         70.83	     9.220
  35.260         74.17	     9.434
  35.280         63.33	     8.718
  35.300         75.83	     9.539
  35.320         67.50	     9.000
  35.340         73.33	     9.381
  35.360         77.50	     9.644
  35.380         84.17	    10.050
  35.400         75.00	     9.487
  35.420         95.00	    10.677
  35.440        137.50	    12.845
  35.460        114.17	    11.705
  35.480        145.00	    13.191
  35.500        154.17	    13.601
  35.520        154.17	    13.601
  35.540        152.50	    13.528
  35.560        130.00	    12.490
  35.580        139.17	    12.923
  35.600        135.00	    12.728
  35.620        103.33	    11.136
  35.640         98.33	    10.863
  35.660        104.17	    11.180
  35.680         68.33	     9.055
  35.700         68.33	     9.055
  35.720         58.33	     8.367
  35.740         59.17	     8.426
  35.760         51.67	     7.874
  35.780         56.67	     8.246
  35.800         49.17	     7.681
  35.820         55.00	     8.124
  35.840         59.17	     8.426
  35.860         55.00	     8.124
  35.880         60.83	     8.544
  35.900         47.50	     7.550
  35.920         50.83	     7.810
  35.940         51.67	     7.874
  35.960         54.17	     8.062
  35.980         51.67	     7.874
  36.000         50.00	     7.746
  36.020         61.67	     8.602
  36.040         50.00	     7.746
  36.060         49.17	     7.681
  36.080         63.33	     8.718
  36.100         57.50	     8.307
  36.120         45.83	     7.416
  36.140         69.17	     9.110
  36.160         58.33	     8.367
  36.180         56.67	     8.246
  36.200         53.33	     8.000
  36.220         51.67	     7.874
  36.240         44.17	     7.280
  36.260         48.33	     7.616
  36.280         45.83	     7.416
  36.300         58.33	     8.367
  36.320         58.33	     8.367
  36.340         60.83	     8.544
  36.360         58.33	     8.367
  36.380         71.67	     9.274
  36.400         66.67	     8.944
  36.420         83.33	    10.000
  36.440         85.00	    10.100
  36.460        135.83	    12.767
  36.480        175.00	    14.491
  36.500        215.00	    16.062
  36.520        240.00	    16.971
  36.540        201.67	    15.556
  36.560        167.50	    14.177
  36.580        131.67	    12.570
  36.600        164.17	    14.036
  36.620        128.33	    12.410
  36.640        142.50	    13.077
  36.660        112.50	    11.619
  36.680         95.00	    10.677
  36.700         82.50	     9.950
  36.720         72.50	     9.327
  36.740         70.00	     9.165
  36.760         59.17	     8.426
  36.780         60.83	     8.544
  36.800         50.00	     7.746
  36.820         54.17	     8.062
  36.840         40.83	     7.000
  36.860         52.50	     7.937
  36.880         50.83	     7.810
  36.900         47.50	     7.550
  36.920         43.33	     7.211
  36.940         49.17	     7.681
  36.960         45.83	     7.416
  36.980         41.67	     7.071
  37.000         45.83	     7.416
  37.020         50.00	     7.746
  37.040         41.67	     7.071
  37.060         46.67	     7.483
  37.080         42.50	     7.141
  37.100         57.50	     8.307
  37.120         50.00	     7.746
  37.140         59.17	     8.426
  37.160         57.50	     8.307
  37.180         50.00	     7.746
  37.200         52.50	     7.937
  37.220         76.67	     9.592
  37.240         61.67	     8.602
  37.260         61.67	     8.602
  37.280         51.67	     7.874
  37.300         80.00	     9.798
  37.320         85.83	    10.149
  37.340         84.17	    10.050
  37.360         74.17	     9.434
  37.380         76.67	     9.592
  37.400         88.33	    10.296
  37.420         62.50	     8.660
  37.440         84.17	    10.050
  37.460         66.67	     8.944
  37.480         77.50	     9.644
  37.500         56.67	     8.246
  37.520         67.50	     9.000
  37.540         77.50	     9.644
  37.560         81.67	     9.899
  37.580         78.33	     9.695
  37.600         70.00	     9.165
  37.620         69.17	     9.110
  37.640         77.50	     9.644
  37.660         70.00	     9.165
  37.680         77.50	     9.644
  37.700         79.17	     9.747
  37.720         60.00	     8.485
  37.740         55.00	     8.124
  37.760         70.83	     9.220
  37.780         63.33	     8.718
  37.800         45.83	     7.416
  37.820         36.67	     6.633
  37.840         37.50	     6.708
  37.860         39.17	     6.856
  37.880         45.83	     7.416
  37.900         30.00	     6.000
  37.920         41.67	     7.071
  37.940         39.17	     6.856
  37.960         33.33	     6.325
  37.980         35.83	     6.557
  38.000         32.50	     6.245
  38.020         31.67	     6.164
  38.040         32.50	     6.245
  38.060         36.67	     6.633
  38.080         40.00	     6.928
  38.100         25.83	     5.568
  38.120         49.17	     7.681
  38.140         65.83	     8.888
  38.160         91.67	    10.488
  38.180        195.00	    15.297
  38.200        295.00	    18.815
  38.220        288.33	    18.601
  38.240        184.17	    14.866
  38.260        103.33	    11.136
  38.280        144.17	    13.153
  38.300        200.83	    15.524
  38.320        183.33	    14.832
  38.340         92.50	    10.536
  38.360         58.33	     8.367
  38.380         61.67	     8.602
  38.400         60.83	     8.544
  38.420         60.83	     8.544
  38.440         48.33	     7.616
  38.460         39.17	     6.856
  38.480         50.00	     7.746
  38.500         50.00	     7.746
  38.520         41.67	     7.071
  38.540         30.00	     6.000
  38.560         45.83	     7.416
  38.580         40.00	     6.928
  38.600         45.00	     7.348
  38.620         34.17	     6.403
  38.640         54.17	     8.062
  38.660         62.50	     8.660
  38.680         28.33	     5.831
  38.700         35.83	     6.557
  38.720         39.17	     6.856
  38.740         35.83	     6.557
  38.760         50.83	     7.810
  38.780         66.67	     8.944
  38.800         46.67	     7.483
  38.820         35.83	     6.557
  38.840         50.00	     7.746
  38.860         44.17	     7.280
  38.880         54.17	     8.062
  38.900         44.17	     7.280
  38.920         40.00	     6.928
  38.940         41.67	     7.071
  38.960         38.33	     6.782
  38.980         48.33	     7.616
  39.000         55.83	     8.185
  39.020         44.17	     7.280
  39.040         37.50	     6.708
  39.060         49.17	     7.681
  39.080         36.67	     6.633
  39.100         45.83	     7.416
  39.120         40.83	     7.000
  39.140         43.33	     7.211
  39.160         53.33	     8.000
  39.180         50.00	     7.746
  39.200         45.83	     7.416
  39.220         45.00	     7.348
  39.240         36.67	     6.633
  39.260         41.67	     7.071
  39.280         48.33	     7.616
  39.300         47.50	     7.550
  39.320         59.17	     8.426
  39.340         84.17	    10.050
  39.360         88.33	    10.296
  39.380        153.33	    13.565
  39.400        180.00	    14.697
  39.420        195.83	    15.330
  39.440        132.50	    12.610
  39.460        116.67	    11.832
  39.480        105.83	    11.269
  39.500        124.17	    12.207
  39.520        133.33	    12.649
  39.540        110.83	    11.533
  39.560         72.50	     9.327
  39.580         59.17	     8.426
  39.600         60.00	     8.485
  39.620         60.00	     8.485
  39.640         54.17	     8.062
  39.660         55.83	     8.185
  39.680         61.67	     8.602
  39.700         45.00	     7.348
  39.720         50.00	     7.746
  39.740         54.17	     8.062
  39.760         40.00	     6.928
  39.780         47.50	     7.550
  39.800         43.33	     7.211
  39.820         35.00	     6.481
  39.840         45.83	     7.416
  39.860         35.00	     6.481
  39.880         47.50	     7.550
  39.900         46.67	     7.483
  39.920         55.00	     8.124
  39.940         66.67	     8.944
  39.960         94.17	    10.630
  39.980         80.83	     9.849
  40.000         65.00	     8.832
  40.020         60.83	     8.544
  40.040         70.00	     9.165
  40.060         71.67	     9.274
  40.080         73.33	     9.381
  40.100         55.00	     8.124
  40.120         55.00	     8.124
  40.140         47.50	     7.550
  40.160         68.33	     9.055
  40.180        100.83	    11.000
  40.200        150.00	    13.416
  40.220        175.83	    14.526
  40.240        150.00	    13.416
  40.260        180.83	    14.731
  40.280        149.17	    13.379
  40.300        125.83	    12.288
  40.320        106.67	    11.314
  40.340        115.83	    11.790
  40.360        104.17	    11.180
  40.380         75.00	     9.487
  40.400         86.67	    10.198
  40.420         50.00	     7.746
  40.440         47.50	     7.550
  40.460         31.67	     6.164
  40.480         42.50	     7.141
  40.500         46.67	     7.483
  40.520         35.83	     6.557
  40.540         37.50	     6.708
  40.560         40.83	     7.000
  40.580         40.00	     6.928
  40.600         35.83	     6.557
  40.620         40.00	     6.928
  40.640         40.83	     7.000
  40.660         40.00	     6.928
  40.680         43.33	     7.211
  40.700         44.17	     7.280
  40.720         50.00	     7.746
  40.740         35.83	     6.557
  40.760         49.17	     7.681
  40.780         39.17	     6.856
  40.800         45.00	     7.348
  40.820         43.33	     7.211
  40.840         42.50	     7.141
  40.860         40.83	     7.000
  40.880         32.50	     6.245
  40.900         41.67	     7.071
  40.920         48.33	     7.616
  40.940         45.83	     7.416
  40.960         40.83	     7.000
  40.980         32.50	     6.245
  41.000         40.83	     7.000
  41.020         44.17	     7.280
  41.040         54.17	     8.062
  41.060         57.50	     8.307
  41.080         48.33	     7.616
  41.100         45.83	     7.416
  41.120         44.17	     7.280
  41.140         50.00	     7.746
  41.160         47.50	     7.550
  41.180         55.83	     8.185
  41.200         57.50	     8.307
  41.220         46.67	     7.483
  41.240         55.00	     8.124
  41.260         49.17	     7.681
  41.280         33.33	     6.325
  41.300         44.17	     7.280
  41.320         35.83	     6.557
  41.340         36.67	     6.633
  41.360         41.67	     7.071
  41.380         36.67	     6.633
  41.400         37.50	     6.708
  41.420         39.17	     6.856
  41.440         40.83	     7.000
  41.460         34.17	     6.403
  41.480         45.83	     7.416
  41.500         45.00	     7.348
  41.520         50.83	     7.810
  41.540         38.33	     6.782
  41.560         50.00	     7.746
  41.580         56.67	     8.246
  41.600         56.67	     8.246
  41.620         53.33	     8.000
  41.640         55.83	     8.185
  41.660         66.67	     8.944
  41.680         49.17	     7.681
  41.700         65.00	     8.832
  41.720         85.00	    10.100
  41.740         65.00	     8.832
  41.760         65.00	     8.832
  41.780         57.50	     8.307
  41.800         59.17	     8.426
  41.820         75.00	     9.487
  41.840         75.00	     9.487
  41.860         70.00	     9.165
  41.880         60.00	     8.485
  41.900         62.50	     8.660
  41.920         65.00	     8.832
  41.940         55.83	     8.185
  41.960         60.83	     8.544
  41.980         54.17	     8.062
  42.000         60.83	     8.544
  42.020         67.50	     9.000
  42.040         51.67	     7.874
  42.060         53.33	     8.000
  42.080         43.33	     7.211
  42.100         54.17	     8.062
  42.120         45.00	     7.348
  42.140         45.83	     7.416
  42.160         55.00	     8.124
  42.180         55.83	     8.185
  42.200         62.50	     8.660
  42.220         56.67	     8.246
  42.240         55.83	     8.185
  42.260         70.83	     9.220
  42.280         61.67	     8.602
  42.300         83.33	    10.000
  42.320         95.83	    10.724
  42.340        105.00	    11.225
  42.360        117.50	    11.874
  42.380        151.67	    13.491
  42.400        195.00	    15.297
  42.420        190.00	    15.100
  42.440        167.50	    14.177
  42.460        140.00	    12.961
  42.480        109.17	    11.446
  42.500        108.33	    11.402
  42.520        108.33	    11.402
  42.540        116.67	    11.832
  42.560        100.00	    10.954
  42.580         80.00	     9.798
  42.600         73.33	     9.381
  42.620         58.33	     8.367
  42.640         49.17	     7.681
  42.660         59.17	     8.426
  42.680         70.00	     9.165
  42.700         50.83	     7.810
  42.720         51.67	     7.874
  42.740         53.33	     8.000
  42.760         53.33	     8.000
  42.780         53.33	     8.000
  42.800         49.17	     7.681
  42.820         31.67	     6.164
  42.840         48.33	     7.616
  42.860         51.67	     7.874
  42.880         45.00	     7.348
  42.900         52.50	     7.937
  42.920         51.67	     7.874
  42.940         39.17	     6.856
  42.960         51.67	     7.874
  42.980         40.83	     7.000
  43.000         34.17	     6.403
  43.020         42.50	     7.141
  43.040         45.83	     7.416
  43.060         45.00	     7.348
  43.080         53.33	     8.000
  43.100         52.50	     7.937
  43.120         54.17	     8.062
  43.140         40.83	     7.000
  43.160         40.83	     7.000
  43.180         50.83	     7.810
  43.200         40.83	     7.000
  43.220         55.83	     8.185
  43.240         45.00	     7.348
  43.260         54.17	     8.062
  43.280         55.00	     8.124
  43.300         42.50	     7.141
  43.320         40.83	     7.000
  43.340         64.17	     8.775
  43.360         51.67	     7.874
  43.380         61.67	     8.602
  43.400         55.83	     8.185
  43.420         66.67	     8.944
  43.440         73.33	     9.381
  43.460         71.67	     9.274
  43.480         75.83	     9.539
  43.500         78.33	     9.695
  43.520         72.50	     9.327
  43.540         92.50	    10.536
  43.560         98.33	    10.863
  43.580         86.67	    10.198
  43.600         76.67	     9.592
  43.620         80.00	     9.798
  43.640         87.50	    10.247
  43.660        108.33	    11.402
  43.680         88.33	    10.296
  43.700         92.50	    10.536
  43.720         87.50	    10.247
  43.740         89.17	    10.344
  43.760         87.50	    10.247
  43.780         83.33	    10.000
  43.800         79.17	     9.747
  43.820         71.67	     9.274
  43.840         69.17	     9.110
  43.860         96.67	    10.770
  43.880         92.50	    10.536
  43.900         65.83	     8.888
  43.920         80.83	     9.849
  43.940         80.83	     9.849
  43.960         73.33	     9.381
  43.980         86.67	    10.198
  44.000         65.83	     8.888
  44.020         85.00	    10.100
  44.040         83.33	    10.000
  44.060         82.50	     9.950
  44.080         90.83	    10.440
  44.100         78.33	     9.695
  44.120        100.83	    11.000
  44.140         98.33	    10.863
  44.160         95.83	    10.724
  44.180        131.67	    12.570
  44.200        111.67	    11.576
  44.220        102.50	    11.091
  44.240        122.50	    12.124
  44.260        138.33	    12.884
  44.280        146.67	    13.266
  44.300        159.17	    13.820
  44.320        170.00	    14.283
  44.340        155.83	    13.675
  44.360        181.67	    14.765
  44.380        172.50	    14.387
  44.400        203.33	    15.620
  44.420        182.50	    14.799
  44.440        190.83	    15.133
  44.460        240.83	    17.000
  44.480        230.83	    16.643
  44.500        215.00	    16.062
  44.520        208.33	    15.811
  44.540        225.00	    16.432
  44.560        218.33	    16.186
  44.580        201.67	    15.556
  44.600        211.67	    15.937
  44.620        197.50	    15.395
  44.640        182.50	    14.799
  44.660        188.33	    15.033
  44.680        185.83	    14.933
  44.700        155.00	    13.638
  44.720        153.33	    13.565
  44.740        136.67	    12.806
  44.760        124.17	    12.207
  44.780        130.83	    12.530
  44.800        140.00	    12.961
  44.820        115.83	    11.790
  44.840        123.33	    12.166
  44.860        137.50	    12.845
  44.880        114.17	    11.705
  44.900        102.50	    11.091
  44.920        124.17	    12.207
  44.940        105.83	    11.269
  44.960        105.83	    11.269
  44.980        104.17	    11.180
  45.000         97.50	    10.817
  45.020         91.67	    10.488
  45.040         96.67	    10.770
  45.060         92.50	    10.536
  45.080         81.67	     9.899
  45.100         75.83	     9.539
  45.120         69.17	     9.110
  45.140         61.67	     8.602
  45.160         67.50	     9.000
  45.180         54.17	     8.062
  45.200         58.33	     8.367
  45.220         61.67	     8.602
  45.240         59.17	     8.426
  45.260         79.17	     9.747
  45.280         47.50	     7.550
  45.300         74.17	     9.434
  45.320         61.67	     8.602
  45.340         71.67	     9.274
  45.360         80.83	     9.849
  45.380         60.83	     8.544
  45.400         93.33	    10.583
  45.420         84.17	    10.050
  45.440         87.50	    10.247
  45.460         85.83	    10.149
  45.480        107.50	    11.358
  45.500        101.67	    11.045
  45.520        114.17	    11.705
  45.540        125.00	    12.247
  45.560        135.00	    12.728
  45.580        135.00	    12.728
  45.600        134.17	    12.689
  45.620        112.50	    11.619
  45.640        104.17	    11.180
  45.660        122.50	    12.124
  45.680        119.17	    11.958
  45.700         95.83	    10.724
  45.720        111.67	    11.576
  45.740        132.50	    12.610
  45.760        135.00	    12.728
  45.780        100.00	    10.954
  45.800         97.50	    10.817
  45.820         72.50	     9.327
  45.840         80.00	     9.798
  45.860         73.33	     9.381
  45.880         68.33	     9.055
  45.900         74.17	     9.434
  45.920         70.00	     9.165
  45.940         58.33	     8.367
  45.960         41.67	     7.071
  45.980         47.50	     7.550
  46.000         45.00	     7.348
  46.020         43.33	     7.211
  46.040         46.67	     7.483
  46.060         48.33	     7.616
  46.080         35.00	     6.481
  46.100         44.17	     7.280
  46.120         40.83	     7.000
  46.140         38.33	     6.782
  46.160         35.83	     6.557
  46.180         32.50	     6.245
  46.200         43.33	     7.211
  46.220         40.83	     7.000
  46.240         25.83	     5.568
  46.260         42.50	     7.141
  46.280         30.83	     6.083
  46.300         34.17	     6.403
  46.320         38.33	     6.782
  46.340         25.83	     5.568
  46.360         30.83	     6.083
  46.380         29.17	     5.916
  46.400         42.50	     7.141
  46.420         26.67	     5.657
  46.440         38.33	     6.782
  46.460         40.83	     7.000
  46.480         38.33	     6.782
  46.500         39.17	     6.856
  46.520         37.50	     6.708
  46.540         35.83	     6.557
  46.560         42.50	     7.141
  46.580         39.17	     6.856
  46.600         30.83	     6.083
  46.620         26.67	     5.657
  46.640         35.83	     6.557
  46.660         27.50	     5.745
  46.680         30.00	     6.000
  46.700         37.50	     6.708
  46.720         25.83	     5.568
  46.740         21.67	     5.099
  46.760         33.33	     6.325
  46.780         26.67	     5.657
  46.800         26.67	     5.657
  46.820         35.00	     6.481
  46.840         35.00	     6.481
  46.860         30.00	     6.000
  46.880         40.83	     7.000
  46.900         31.67	     6.164
  46.920         30.83	     6.083
  46.940         30.83	     6.083
  46.960         31.67	     6.164
  46.980         30.00	     6.000
  47.000         37.50	     6.708
  47.020         25.00	     5.477
  47.040         33.33	     6.325
  47.060         43.33	     7.211
  47.080         35.83	     6.557
  47.100         44.17	     7.280
  47.120         37.50	     6.708
  47.140         34.17	     6.403
  47.160         36.67	     6.633
  47.180         36.67	     6.633
  47.200         36.67	     6.633
  47.220         34.17	     6.403
  47.240         34.17	     6.403
  47.260         47.50	     7.550
  47.280         26.67	     5.657
  47.300         27.50	     5.745
  47.320         22.50	     5.196
  47.340         38.33	     6.782
  47.360         38.33	     6.782
  47.380         25.00	     5.477
  47.400         22.50	     5.196
  47.420         26.67	     5.657
  47.440         29.17	     5.916
  47.460         27.50	     5.745
  47.480         27.50	     5.745
  47.500         35.00	     6.481
  47.520         30.00	     6.000
  47.540         16.67	     4.472
  47.560         30.00	     6.000
  47.580         31.67	     6.164
  47.600         28.33	     5.831
  47.620         34.17	     6.403
  47.640         26.67	     5.657
  47.660         24.17	     5.385
  47.680         30.00	     6.000
  47.700         34.17	     6.403
  47.720         35.83	     6.557
  47.740         30.83	     6.083
  47.760         22.50	     5.196
  47.780         25.00	     5.477
  47.800         31.67	     6.164
  47.820         26.67	     5.657
  47.840         30.83	     6.083
  47.860         44.17	     7.280
  47.880         32.50	     6.245
  47.900         30.83	     6.083
  47.920         40.00	     6.928
  47.940         52.50	     7.937
  47.960         32.50	     6.245
  47.980         42.50	     7.141
  48.000         40.00	     6.928
  48.020         32.50	     6.245
  48.040         49.17	     7.681
  48.060         51.67	     7.874
  48.080         41.67	     7.071
  48.100         64.17	     8.775
  48.120         65.83	     8.888
  48.140         45.00	     7.348
  48.160         42.50	     7.141
  48.180         52.50	     7.937
  48.200         49.17	     7.681
  48.220         60.83	     8.544
  48.240         47.50	     7.550
  48.260         47.50	     7.550
  48.280         54.17	     8.062
  48.300         42.50	     7.141
  48.320         50.83	     7.810
  48.340         37.50	     6.708
  48.360         38.33	     6.782
  48.380         42.50	     7.141
  48.400         45.00	     7.348
  48.420         37.50	     6.708
  48.440         36.67	     6.633
  48.460         44.17	     7.280
  48.480         50.00	     7.746
  48.500         40.83	     7.000
  48.520         31.67	     6.164
  48.540         41.67	     7.071
  48.560         38.33	     6.782
  48.580         33.33	     6.325
  48.600         39.17	     6.856
  48.620         38.33	     6.782
  48.640         36.67	     6.633
  48.660         38.33	     6.782
  48.680         38.33	     6.782
  48.700         55.83	     8.185
  48.720         46.67	     7.483
  48.740         55.83	     8.185
  48.760         59.17	     8.426
  48.780         53.33	     8.000
  48.800         48.33	     7.616
  48.820         36.67	     6.633
  48.840         47.50	     7.550
  48.860         35.83	     6.557
  48.880         45.00	     7.348
  48.900         42.50	     7.141
  48.920         48.33	     7.616
  48.940         44.17	     7.280
  48.960         46.67	     7.483
  48.980         34.17	     6.403
  49.000         37.50	     6.708
  49.020         46.67	     7.483
  49.040         29.17	     5.916
  49.060         40.83	     7.000
  49.080         35.83	     6.557
  49.100         46.67	     7.483
  49.120         39.17	     6.856
  49.140         55.00	     8.124
  49.160         32.50	     6.245
  49.180         53.33	     8.000
  49.200         43.33	     7.211
  49.220         41.67	     7.071
  49.240         44.17	     7.280
  49.260         36.67	     6.633
  49.280         36.67	     6.633
  49.300         44.17	     7.280
  49.320         40.83	     7.000
  49.340         36.67	     6.633
  49.360         46.67	     7.483
  49.380         38.33	     6.782
  49.400         41.67	     7.071
  49.420         44.17	     7.280
  49.440         40.83	     7.000
  49.460         40.00	     6.928
  49.480         33.33	     6.325
  49.500         35.83	     6.557
  49.520         45.00	     7.348
  49.540         42.50	     7.141
  49.560         50.00	     7.746
  49.580         37.50	     6.708
  49.600         34.17	     6.403
  49.620         49.17	     7.681
  49.640         45.83	     7.416
  49.660         41.67	     7.071
  49.680         46.67	     7.483
  49.700         53.33	     8.000
  49.720         47.50	     7.550
  49.740         51.67	     7.874
  49.760         57.50	     8.307
  49.780         65.83	     8.888
  49.800         56.67	     8.246
  49.820         70.83	     9.220
  49.840         62.50	     8.660
  49.860         73.33	     9.381
  49.880         75.00	     9.487
  49.900         86.67	    10.198
  49.920         70.83	     9.220
  49.940         95.00	    10.677
  49.960         79.17	     9.747
  49.980        116.67	    11.832
  50.000        130.83	    12.530
  50.020        140.83	    13.000
  50.040        194.17	    15.264
  50.060        207.50	    15.780
  50.080        206.67	    15.748
  50.100        219.17	    16.217
  50.120        180.83	    14.731
  50.140        185.83	    14.933
  50.160        160.00	    13.856
  50.180        136.67	    12.806
  50.200        133.33	    12.649
  50.220        125.83	    12.288
  50.240        120.00	    12.000
  50.260        133.33	    12.649
  50.280        100.83	    11.000
  50.300         74.17	     9.434
  50.320         58.33	     8.367
  50.340         55.00	     8.124
  50.360         57.50	     8.307
  50.380         50.00	     7.746
  50.400         79.17	     9.747
  50.420         71.67	     9.274
  50.440         68.33	     9.055
  50.460         65.83	     8.888
  50.480         55.00	     8.124
  50.500         77.50	     9.644
  50.520         99.17	    10.909
  50.540        152.50	    13.528
  50.560        240.00	    16.971
  50.580        225.00	    16.432
  50.600        132.50	    12.610
  50.620        105.00	    11.225
  50.640         77.50	     9.644
  50.660         95.83	    10.724
  50.680        108.33	    11.402
  50.700        144.17	    13.153
  50.720        121.67	    12.083
  50.740         79.17	     9.747
  50.760         55.83	     8.185
  50.780         49.17	     7.681
  50.800         48.33	     7.616
  50.820         56.67	     8.246
  50.840         42.50	     7.141
  50.860         50.83	     7.810
  50.880         35.00	     6.481
  50.900         43.33	     7.211
  50.920         40.00	     6.928
  50.940         41.67	     7.071
  50.960         52.50	     7.937
  50.980         49.17	     7.681
  51.000         46.67	     7.483
  51.020         44.17	     7.280
  51.040         62.50	     8.660
  51.060         85.00	    10.100
  51.080        124.17	    12.207
  51.100         89.17	    10.344
  51.120         74.17	     9.434
  51.140         59.17	     8.426
  51.160         51.67	     7.874
  51.180         45.83	     7.416
  51.200         63.33	     8.718
  51.220         85.83	    10.149
  51.240         84.17	    10.050
  51.260         60.83	     8.544
  51.280         55.00	     8.124
  51.300         40.00	     6.928
  51.320         52.50	     7.937
  51.340         42.50	     7.141
  51.360         42.50	     7.141
  51.380         34.17	     6.403
  51.400         43.33	     7.211
  51.420         37.50	     6.708
  51.440         24.17	     5.385
  51.460         34.17	     6.403
  51.480         20.83	     5.000
  51.500         21.67	     5.099
  51.520         33.33	     6.325
  51.540         30.00	     6.000
  51.560         28.33	     5.831
  51.580         27.50	     5.745
  51.600         27.50	     5.745
  51.620         26.67	     5.657
  51.640         17.50	     4.583
  51.660         20.83	     5.000
  51.680         25.00	     5.477
  51.700         28.33	     5.831
  51.720         26.67	     5.657
  51.740         25.83	     5.568
  51.760         25.00	     5.477
  51.780         24.17	     5.385
  51.800         26.67	     5.657
  51.820         35.83	     6.557
  51.840         35.83	     6.557
  51.860         28.33	     5.831
  51.880         35.83	     6.557
  51.900         29.17	     5.916
  51.920         43.33	     7.211
  51.940         25.83	     5.568
  51.960         30.83	     6.083
  51.980         47.50	     7.550
  52.000         44.17	     7.280
  52.020         43.33	     7.211
  52.040         51.67	     7.874
  52.060         61.67	     8.602
  52.080         55.00	     8.124
  52.100         64.17	     8.775
  52.120         74.17	     9.434
  52.140         70.00	     9.165
  52.160         80.00	     9.798
  52.180         70.00	     9.165
  52.200         76.67	     9.592
  52.220         56.67	     8.246
  52.240         45.83	     7.416
  52.260         71.67	     9.274
  52.280         61.67	     8.602
  52.300         83.33	    10.000
  52.320         80.83	     9.849
  52.340         76.67	     9.592
  52.360         91.67	    10.488
  52.380         60.00	     8.485
  52.400         51.67	     7.874
  52.420         49.17	     7.681
  52.440         66.67	     8.944
  52.460         41.67	     7.071
  52.480         65.83	     8.888
  52.500         55.00	     8.124
  52.520         69.17	     9.110
  52.540         64.17	     8.775
  52.560         62.50	     8.660
  52.580         55.83	     8.185
  52.600         51.67	     7.874
  52.620         50.00	     7.746
  52.640         43.33	     7.211
  52.660         44.17	     7.280
  52.680         30.83	     6.083
  52.700         46.67	     7.483
  52.720         43.33	     7.211
  52.740         52.50	     7.937
  52.760         45.83	     7.416
  52.780         40.83	     7.000
  52.800         42.50	     7.141
  52.820         47.50	     7.550
  52.840         33.33	     6.325
  52.860         43.33	     7.211
  52.880         35.00	     6.481
  52.900         43.33	     7.211
  52.920         52.50	     7.937
  52.940         60.00	     8.485
  52.960         44.17	     7.280
  52.980         39.17	     6.856
  53.000         46.67	     7.483
  53.020         41.67	     7.071
  53.040         58.33	     8.367
  53.060         64.17	     8.775
  53.080         54.17	     8.062
  53.100         50.83	     7.810
  53.120         40.00	     6.928
  53.140         61.67	     8.602
  53.160         63.33	     8.718
  53.180         58.33	     8.367
  53.200         56.67	     8.246
  53.220         64.17	     8.775
  53.240         45.83	     7.416
  53.260         47.50	     7.550
  53.280         38.33	     6.782
  53.300         40.00	     6.928
  53.320         39.17	     6.856
  53.340         32.50	     6.245
  53.360         45.83	     7.416
  53.380         42.50	     7.141
  53.400         42.50	     7.141
  53.420         42.50	     7.141
  53.440         30.00	     6.000
  53.460         42.50	     7.141
  53.480         24.17	     5.385
  53.500         37.50	     6.708
  53.520         30.83	     6.083
  53.540         35.83	     6.557
  53.560         27.50	     5.745
  53.580         26.67	     5.657
  53.600         40.83	     7.000
  53.620         27.50	     5.745
  53.640         40.00	     6.928
  53.660         40.83	     7.000
  53.680         40.83	     7.000
  53.700         29.17	     5.916
  53.720         39.17	     6.856
  53.740         35.83	     6.557
  53.760         30.00	     6.000
  53.780         35.83	     6.557
  53.800         36.67	     6.633
  53.820         35.00	     6.481
  53.840         34.17	     6.403
  53.860         36.67	     6.633
  53.880         38.33	     6.782
  53.900         28.33	     5.831
  53.920         30.00	     6.000
  53.940         35.83	     6.557
  53.960         32.50	     6.245
  53.980         36.67	     6.633
  54.000         28.33	     5.831
  54.020         40.00	     6.928
  54.040         30.00	     6.000
  54.060         30.83	     6.083
  54.080         38.33	     6.782
  54.100         36.67	     6.633
  54.120         33.33	     6.325
  54.140         27.50	     5.745
  54.160         36.67	     6.633
  54.180         29.17	     5.916
  54.200         36.67	     6.633
  54.220         37.50	     6.708
  54.240         27.50	     5.745
  54.260         27.50	     5.745
  54.280         44.17	     7.280
  54.300         35.00	     6.481
  54.320         35.00	     6.481
  54.340         38.33	     6.782
  54.360         38.33	     6.782
  54.380         42.50	     7.141
  54.400         29.17	     5.916
  54.420         37.50	     6.708
  54.440         36.67	     6.633
  54.460         39.17	     6.856
  54.480         35.83	     6.557
  54.500         37.50	     6.708
  54.520         36.67	     6.633
  54.540         35.83	     6.557
  54.560         44.17	     7.280
  54.580         32.50	     6.245
  54.600         36.67	     6.633
  54.620         39.17	     6.856
  54.640         47.50	     7.550
  54.660         44.17	     7.280
  54.680         49.17	     7.681
  54.700         57.50	     8.307
  54.720         54.17	     8.062
  54.740         62.50	     8.660
  54.760         93.33	    10.583
  54.780         85.00	    10.100
  54.800        126.67	    12.329
  54.820        165.83	    14.107
  54.840        188.33	    15.033
  54.860        132.50	    12.610
  54.880         95.83	    10.724
  54.900         70.83	     9.220
  54.920         82.50	     9.950
  54.940         90.00	    10.392
  54.960         95.83	    10.724
  54.980         95.83	    10.724
  55.000        114.17	    11.705
  55.020         78.33	     9.695
  55.040         53.33	     8.000
  55.060         50.00	     7.746
  55.080         42.50	     7.141
  55.100         62.50	     8.660
  55.120         44.17	     7.280
  55.140         50.83	     7.810
  55.160         46.67	     7.483
  55.180         50.00	     7.746
  55.200         60.00	     8.485
  55.220         62.50	     8.660
  55.240         75.00	     9.487
  55.260         64.17	     8.775
  55.280         73.33	     9.381
  55.300         76.67	     9.592
  55.320         55.00	     8.124
  55.340         60.00	     8.485
  55.360         40.83	     7.000
  55.380         49.17	     7.681
  55.400         61.67	     8.602
  55.420         69.17	     9.110
  55.440         49.17	     7.681
  55.460         56.67	     8.246
  55.480         40.00	     6.928
  55.500         42.50	     7.141
  55.520         40.83	     7.000
  55.540         30.00	     6.000
  55.560         40.00	     6.928
  55.580         59.17	     8.426
  55.600         55.00	     8.124
  55.620         56.67	     8.246
  55.640         42.50	     7.141
  55.660         40.83	     7.000
  55.680         59.17	     8.426
  55.700         59.17	     8.426
  55.720         65.83	     8.888
  55.740         70.83	     9.220
  55.760         57.50	     8.307
  55.780         60.83	     8.544
  55.800         64.17	     8.775
  55.820         43.33	     7.211
  55.840         46.67	     7.483
  55.860         50.00	     7.746
  55.880         50.00	     7.746
  55.900         55.83	     8.185
  55.920         55.00	     8.124
  55.940         33.33	     6.325
  55.960         50.00	     7.746
  55.980         43.33	     7.211
  56.000         44.17	     7.280
  56.020         54.17	     8.062
  56.040         60.00	     8.485
  56.060         67.50	     9.000
  56.080         38.33	     6.782
  56.100         58.33	     8.367
  56.120         58.33	     8.367
  56.140         50.83	     7.810
  56.160         50.83	     7.810
  56.180         45.83	     7.416
  56.200         43.33	     7.211
  56.220         44.17	     7.280
  56.240         38.33	     6.782
  56.260         50.00	     7.746
  56.280         55.00	     8.124
  56.300         49.17	     7.681
  56.320         34.17	     6.403
  56.340         48.33	     7.616
  56.360         40.83	     7.000
  56.380         38.33	     6.782
  56.400         41.67	     7.071
  56.420         36.67	     6.633
  56.440         40.00	     6.928
  56.460         37.50	     6.708
  56.480         29.17	     5.916
  56.500         40.83	     7.000
  56.520         44.17	     7.280
  56.540         47.50	     7.550
  56.560         45.00	     7.348
  56.580         49.17	     7.681
  56.600         43.33	     7.211
  56.620         45.83	     7.416
  56.640         34.17	     6.403
  56.660         49.17	     7.681
  56.680         45.83	     7.416
  56.700         31.67	     6.164
  56.720         30.83	     6.083
  56.740         50.83	     7.810
  56.760         44.17	     7.280
  56.780         42.50	     7.141
  56.800         40.00	     6.928
  56.820         38.33	     6.782
  56.840         34.17	     6.403
  56.860         36.67	     6.633
  56.880         40.83	     7.000
  56.900         45.00	     7.348
  56.920         35.00	     6.481
  56.940         32.50	     6.245
  56.960         22.50	     5.196
  56.980         39.17	     6.856
  57.000         25.00	     5.477
  57.020         40.00	     6.928
  57.040         25.00	     5.477
  57.060         27.50	     5.745
  57.080         40.00	     6.928
  57.100         30.83	     6.083
  57.120         30.83	     6.083
  57.140         28.33	     5.831
  57.160         43.33	     7.211
  57.180         44.17	     7.280
  57.200         35.00	     6.481
  57.220         35.00	     6.481
  57.240         34.17	     6.403
  57.260         39.17	     6.856
  57.280         28.33	     5.831
  57.300         40.83	     7.000
  57.320         40.83	     7.000
  57.340         32.50	     6.245
  57.360         31.67	     6.164
  57.380         33.33	     6.325
  57.400         32.50	     6.245
  57.420         37.50	     6.708
  57.440         39.17	     6.856
  57.460         29.17	     5.916
  57.480         44.17	     7.280
  57.500         33.33	     6.325
  57.520         35.00	     6.481
  57.540         32.50	     6.245
  57.560         29.17	     5.916
  57.580         29.17	     5.916
  57.600         35.83	     6.557
  57.620         36.67	     6.633
  57.640         25.00	     5.477
  57.660         38.33	     6.782
  57.680         31.67	     6.164
  57.700         34.17	     6.403
  57.720         43.33	     7.211
  57.740         40.00	     6.928
  57.760         40.00	     6.928
  57.780         42.50	     7.141
  57.800         30.83	     6.083
  57.820         40.83	     7.000
  57.840         34.17	     6.403
  57.860         33.33	     6.325
  57.880         40.00	     6.928
  57.900         33.33	     6.325
  57.920         31.67	     6.164
  57.940         41.67	     7.071
  57.960         38.33	     6.782
  57.980         38.33	     6.782
  58.000         35.00	     6.481
  58.020         40.83	     7.000
  58.040         46.67	     7.483
  58.060         33.33	     6.325
  58.080         36.67	     6.633
  58.100         50.00	     7.746
  58.120         45.00	     7.348
  58.140         35.83	     6.557
  58.160         35.83	     6.557
  58.180         44.17	     7.280
  58.200         34.17	     6.403
  58.220         42.50	     7.141
  58.240         45.83	     7.416
  58.260         39.17	     6.856
  58.280         39.17	     6.856
  58.300         40.00	     6.928
  58.320         49.17	     7.681
  58.340         40.00	     6.928
  58.360         51.67	     7.874
  58.380         42.50	     7.141
  58.400         45.83	     7.416
  58.420         50.00	     7.746
  58.440         57.50	     8.307
  58.460         64.17	     8.775
  58.480         63.33	     8.718
  58.500         64.17	     8.775
  58.520         60.00	     8.485
  58.540         65.00	     8.832
  58.560         56.67	     8.246
  58.580         68.33	     9.055
  58.600         66.67	     8.944
  58.620         51.67	     7.874
  58.640         75.00	     9.487
  58.660         65.00	     8.832
  58.680         81.67	     9.899
  58.700         83.33	    10.000
  58.720         61.67	     8.602
  58.740         66.67	     8.944
  58.760         58.33	     8.367
  58.780         67.50	     9.000
  58.800         53.33	     8.000
  58.820         61.67	     8.602
  58.840         56.67	     8.246
  58.860         49.17	     7.681
  58.880         51.67	     7.874
  58.900         55.00	     8.124
  58.920         45.00	     7.348
  58.940         63.33	     8.718
  58.960         58.33	     8.367
  58.980         61.67	     8.602
  59.000         60.83	     8.544
  59.020         72.50	     9.327
  59.040         80.83	     9.849
  59.060         57.50	     8.307
  59.080         49.17	     7.681
  59.100         71.67	     9.274
  59.120         59.17	     8.426
  59.140         60.00	     8.485
  59.160         59.17	     8.426
  59.180         63.33	     8.718
  59.200         51.67	     7.874
  59.220         52.50	     7.937
  59.240         46.67	     7.483
  59.260         57.50	     8.307
  59.280         51.67	     7.874
  59.300         45.83	     7.416
  59.320         44.17	     7.280
  59.340         45.00	     7.348
  59.360         40.00	     6.928
  59.380         42.50	     7.141
  59.400         50.00	     7.746
  59.420         42.50	     7.141
  59.440         39.17	     6.856
  59.460         49.17	     7.681
  59.480         33.33	     6.325
  59.500         45.83	     7.416
  59.520         42.50	     7.141
  59.540         42.50	     7.141
  59.560         39.17	     6.856
  59.580         38.33	     6.782
  59.600         46.67	     7.483
  59.620         39.17	     6.856
  59.640         56.67	     8.246
  59.660         55.83	     8.185
  59.680         46.67	     7.483
  59.700         54.17	     8.062
  59.720         59.17	     8.426
  59.740         55.83	     8.185
  59.760         60.83	     8.544
  59.780         69.17	     9.110
  59.800         95.83	    10.724
  59.820        105.83	    11.269
  59.840        126.67	    12.329
  59.860        195.83	    15.330
  59.880        281.67	    18.385
  59.900        360.83	    20.809
  59.920        355.00	    20.640
  59.940        295.00	    18.815
  59.960        196.67	    15.362
  59.980        148.33	    13.342
  60.000        120.00	    12.000
  60.020        130.83	    12.530
  60.040        167.50	    14.177
  60.060        208.33	    15.811
  60.080        220.00	    16.248
  60.100        158.33	    13.784
  60.120        142.50	    13.077
  60.140         90.00	    10.392
  60.160         75.00	     9.487
  60.180         57.50	     8.307
  60.200         46.67	     7.483
  60.220         46.67	     7.483
  60.240         57.50	     8.307
  60.260         50.00	     7.746
  60.280         54.17	     8.062
  60.300         58.33	     8.367
  60.320         44.17	     7.280
  60.340         46.67	     7.483
  60.360         57.50	     8.307
  60.380         55.00	     8.124
  60.400         45.00	     7.348
  60.420         39.17	     6.856
  60.440         41.67	     7.071
  60.460         50.00	     7.746
  60.480         44.17	     7.280
  60.500         37.50	     6.708
  60.520         44.17	     7.280
  60.540         46.67	     7.483
  60.560         45.83	     7.416
  60.580         44.17	     7.280
  60.600         50.00	     7.746
  60.620         51.67	     7.874
  60.640         47.50	     7.550
  60.660         39.17	     6.856
  60.680         54.17	     8.062
  60.700         47.50	     7.550
  60.720         55.83	     8.185
  60.740         67.50	     9.000
  60.760         47.50	     7.550
  60.780         61.67	     8.602
  60.800         44.17	     7.280
  60.820         52.50	     7.937
  60.840         48.33	     7.616
  60.860         69.17	     9.110
  60.880         49.17	     7.681
  60.900         64.17	     8.775
  60.920         53.33	     8.000
  60.940         65.00	     8.832
  60.960         41.67	     7.071
  60.980         47.50	     7.550
  61.000         62.50	     8.660
  61.020         55.00	     8.124
  61.040         52.50	     7.937
  61.060         45.00	     7.348
  61.080         42.50	     7.141
  61.100         44.17	     7.280
  61.120         43.33	     7.211
  61.140         45.83	     7.416
  61.160         38.33	     6.782
  61.180         37.50	     6.708
  61.200         37.50	     6.708
  61.220         40.83	     7.000
  61.240         40.83	     7.000
  61.260         43.33	     7.211
  61.280         53.33	     8.000
  61.300         48.33	     7.616
  61.320         46.67	     7.483
  61.340         63.33	     8.718
  61.360         53.33	     8.000
  61.380         58.33	     8.367
  61.400         75.00	     9.487
  61.420         64.17	     8.775
  61.440         71.67	     9.274
  61.460         62.50	     8.660
  61.480         76.67	     9.592
  61.500         80.00	     9.798
  61.520         68.33	     9.055
  61.540         80.00	     9.798
  61.560         81.67	     9.899
  61.580         67.50	     9.000
  61.600         85.83	    10.149
  61.620         74.17	     9.434
  61.640         74.17	     9.434
  61.660         65.83	     8.888
  61.680         69.17	     9.110
  61.700         73.33	     9.381
  61.720         77.50	     9.644
  61.740         77.50	     9.644
  61.760         75.00	     9.487
  61.780         91.67	    10.488
  61.800        107.50	    11.358
  61.820         70.83	     9.220
  61.840         70.00	     9.165
  61.860         58.33	     8.367
  61.880         55.83	     8.185
  61.900         50.83	     7.810
  61.920         49.17	     7.681
  61.940         54.17	     8.062
  61.960         72.50	     9.327
  61.980         67.50	     9.000
  62.000         60.83	     8.544
  62.020         42.50	     7.141
  62.040         41.67	     7.071
  62.060         45.83	     7.416
  62.080         40.00	     6.928
  62.100         45.83	     7.416
  62.120         42.50	     7.141
  62.140         39.17	     6.856
  62.160         26.67	     5.657
  62.180         34.17	     6.403
  62.200         34.17	     6.403
  62.220         28.33	     5.831
  62.240         43.33	     7.211
  62.260         30.83	     6.083
  62.280         25.83	     5.568
  62.300         25.00	     5.477
  62.320         40.83	     7.000
  62.340         35.83	     6.557
  62.360         33.33	     6.325
  62.380         45.00	     7.348
  62.400         28.33	     5.831
  62.420         27.50	     5.745
  62.440         38.33	     6.782
  62.460         47.50	     7.550
  62.480         38.33	     6.782
  62.500         35.00	     6.481
  62.520         29.17	     5.916
  62.540         35.83	     6.557
  62.560         39.17	     6.856
  62.580         48.33	     7.616
  62.600         36.67	     6.633
  62.620         36.67	     6.633
  62.640         35.00	     6.481
  62.660         34.17	     6.403
  62.680         40.00	     6.928
  62.700         48.33	     7.616
  62.720         46.67	     7.483
  62.740         47.50	     7.550
  62.760         41.67	     7.071
  62.780         31.67	     6.164
  62.800         35.83	     6.557
  62.820         39.17	     6.856
  62.840         36.67	     6.633
  62.860         33.33	     6.325
  62.880         36.67	     6.633
  62.900         28.33	     5.831
  62.920         33.33	     6.325
  62.940         35.00	     6.481
  62.960         46.67	     7.483
  62.980         27.50	     5.745
  63.000         30.00	     6.000
  63.020         38.33	     6.782
  63.040         32.50	     6.245
  63.060         37.50	     6.708
  63.080         26.67	     5.657
  63.100         39.17	     6.856
  63.120         26.67	     5.657
  63.140         34.17	     6.403
  63.160         36.67	     6.633
  63.180         45.83	     7.416
  63.200         41.67	     7.071
  63.220         36.67	     6.633
  63.240         32.50	     6.245
  63.260         40.83	     7.000
  63.280         32.50	     6.245
  63.300         39.17	     6.856
  63.320         44.17	     7.280
  63.340         40.83	     7.000
  63.360         37.50	     6.708
  63.380         47.50	     7.550
  63.400         35.00	     6.481
  63.420         44.17	     7.280
  63.440         35.83	     6.557
  63.460         47.50	     7.550
  63.480         42.50	     7.141
  63.500         55.83	     8.185
  63.520         40.83	     7.000
  63.540         44.17	     7.280
  63.560         39.17	     6.856
  63.580         51.67	     7.874
  63.600         38.33	     6.782
  63.620         47.50	     7.550
  63.640         36.67	     6.633
  63.660         50.00	     7.746
  63.680         53.33	     8.000
  63.700         50.83	     7.810
  63.720         45.00	     7.348
  63.740         49.17	     7.681
  63.760         55.83	     8.185
  63.780         52.50	     7.937
  63.800         54.17	     8.062
  63.820         47.50	     7.550
  63.840         56.67	     8.246
  63.860         45.00	     7.348
  63.880         40.83	     7.000
  63.900         49.17	     7.681
  63.920         44.17	     7.280
  63.940         62.50	     8.660
  63.960         55.83	     8.185
  63.980         80.83	     9.849
  64.000         78.33	     9.695
  64.020         57.50	     8.307
  64.040         61.67	     8.602
  64.060         45.00	     7.348
  64.080         60.83	     8.544
  64.100         59.17	     8.426
  64.120         55.83	     8.185
  64.140         58.33	     8.367
  64.160         80.00	     9.798
  64.180         45.83	     7.416
  64.200         53.33	     8.000
  64.220         36.67	     6.633
  64.240         40.83	     7.000
  64.260         45.83	     7.416
  64.280         44.17	     7.280
  64.300         39.17	     6.856
  64.320         44.17	     7.280
  64.340         39.17	     6.856
  64.360         41.67	     7.071
  64.380         32.50	     6.245
  64.400         45.00	     7.348
  64.420         44.17	     7.280
  64.440         46.67	     7.483
  64.460         49.17	     7.681
  64.480         38.33	     6.782
  64.500         37.50	     6.708
  64.520         40.00	     6.928
  64.540         45.83	     7.416
  64.560         39.17	     6.856
  64.580         35.00	     6.481
  64.600         51.67	     7.874
  64.620         41.67	     7.071
  64.640         47.50	     7.550
  64.660         49.17	     7.681
  64.680         47.50	     7.550
  64.700         52.50	     7.937
  64.720         59.17	     8.426
  64.740         49.17	     7.681
  64.760         45.00	     7.348
  64.780         42.50	     7.141
  64.800         46.67	     7.483
  64.820         55.83	     8.185
  64.840         47.50	     7.550
  64.860         46.67	     7.483
  64.880         32.50	     6.245
  64.900         38.33	     6.782
  64.920         55.83	     8.185
  64.940         41.67	     7.071
  64.960         59.17	     8.426
  64.980         53.33	     8.000
  65.000         46.67	     7.483
