
Filename:
	C:\Program Files\Thermo Electron\WinXRD\Datafiles\F_HERMAN\GEO\G50_RT.raw

File Created:
	February 19, 2020 - 09:51 PM

Specimen Id:
	G50_RT

Specimen Name:
	

Specimen Description:
	

Comment:
Scan Type: 2Theta Scan
Start Angle: 3 deg.
Stop Angle: 65 deg.
Num Points: 3101
Step Size: 0.02 deg.
Scan Rate: 1.000000
Scan Mode: Continuous
Wavelength: 1.540562
\Kalpha1: 1.540562	\Kalpha2: 1.544390	\Kbeta: 1.392218

Optics:
		Detector:
			 Type: Fixed Slits
		Tube: 
			 Type: Fixed Slits


Datas:
 Pos [deg]       Rate [CPS]      ESD [-]

Range 1 ---> Iteration 1
   3.000        407.50	    22.113
   3.020        437.50	    22.913
   3.040        447.50	    23.173
   3.060        405.00	    22.045
   3.080        411.67	    22.226
   3.100        416.67	    22.361
   3.120        416.67	    22.361
   3.140        401.67	    21.954
   3.160        401.67	    21.954
   3.180        408.33	    22.136
   3.200        403.33	    22.000
   3.220        382.50	    21.424
   3.240        427.50	    22.650
   3.260        385.00	    21.494
   3.280        381.67	    21.401
   3.300        424.17	    22.561
   3.320        440.00	    22.978
   3.340        426.67	    22.627
   3.360        369.17	    21.048
   3.380        387.50	    21.564
   3.400        375.00	    21.213
   3.420        370.83	    21.095
   3.440        357.50	    20.712
   3.460        336.67	    20.100
   3.480        368.33	    21.024
   3.500        324.17	    19.723
   3.520        365.83	    20.952
   3.540        332.50	    19.975
   3.560        354.17	    20.616
   3.580        350.00	    20.494
   3.600        333.33	    20.000
   3.620        328.33	    19.849
   3.640        323.33	    19.698
   3.660        370.83	    21.095
   3.680        319.17	    19.570
   3.700        380.00	    21.354
   3.720        336.67	    20.100
   3.740        323.33	    19.698
   3.760        339.17	    20.174
   3.780        333.33	    20.000
   3.800        368.33	    21.024
   3.820        325.83	    19.774
   3.840        292.50	    18.735
   3.860        317.50	    19.519
   3.880        345.00	    20.347
   3.900        275.83	    18.193
   3.920        296.67	    18.868
   3.940        312.50	    19.365
   3.960        314.17	    19.416
   3.980        331.67	    19.950
   4.000        315.00	    19.442
   4.020        291.67	    18.708
   4.040        313.33	    19.391
   4.060        301.67	    19.026
   4.080        295.00	    18.815
   4.100        290.00	    18.655
   4.120        300.83	    19.000
   4.140        300.83	    19.000
   4.160        303.33	    19.079
   4.180        296.67	    18.868
   4.200        315.83	    19.468
   4.220        293.33	    18.762
   4.240        284.17	    18.466
   4.260        269.17	    17.972
   4.280        282.50	    18.412
   4.300        270.83	    18.028
   4.320        275.83	    18.193
   4.340        290.00	    18.655
   4.360        257.50	    17.578
   4.380        260.00	    17.664
   4.400        286.67	    18.547
   4.420        286.67	    18.547
   4.440        271.67	    18.055
   4.460        254.17	    17.464
   4.480        263.33	    17.776
   4.500        261.67	    17.720
   4.520        263.33	    17.776
   4.540        286.67	    18.547
   4.560        270.00	    18.000
   4.580        279.17	    18.303
   4.600        235.00	    16.793
   4.620        291.67	    18.708
   4.640        266.67	    17.889
   4.660        269.17	    17.972
   4.680        248.33	    17.263
   4.700        258.33	    17.607
   4.720        238.33	    16.912
   4.740        240.00	    16.971
   4.760        261.67	    17.720
   4.780        240.83	    17.000
   4.800        245.00	    17.146
   4.820        251.67	    17.378
   4.840        266.67	    17.889
   4.860        245.83	    17.176
   4.880        217.50	    16.155
   4.900        240.00	    16.971
   4.920        250.83	    17.349
   4.940        251.67	    17.378
   4.960        243.33	    17.088
   4.980        227.50	    16.523
   5.000        230.00	    16.613
   5.020        260.00	    17.664
   5.040        233.33	    16.733
   5.060        260.00	    17.664
   5.080        210.00	    15.875
   5.100        240.00	    16.971
   5.120        241.67	    17.029
   5.140        231.67	    16.673
   5.160        217.50	    16.155
   5.180        229.17	    16.583
   5.200        222.50	    16.340
   5.220        229.17	    16.583
   5.240        222.50	    16.340
   5.260        222.50	    16.340
   5.280        212.50	    15.969
   5.300        214.17	    16.031
   5.320        236.67	    16.852
   5.340        238.33	    16.912
   5.360        222.50	    16.340
   5.380        227.50	    16.523
   5.400        267.50	    17.916
   5.420        235.83	    16.823
   5.440        210.83	    15.906
   5.460        230.83	    16.643
   5.480        216.67	    16.125
   5.500        210.00	    15.875
   5.520        205.00	    15.684
   5.540        205.00	    15.684
   5.560        200.00	    15.492
   5.580        205.00	    15.684
   5.600        221.67	    16.310
   5.620        209.17	    15.843
   5.640        197.50	    15.395
   5.660        196.67	    15.362
   5.680        191.67	    15.166
   5.700        208.33	    15.811
   5.720        188.33	    15.033
   5.740        186.67	    14.967
   5.760        202.50	    15.588
   5.780        200.83	    15.524
   5.800        216.67	    16.125
   5.820        195.00	    15.297
   5.840        218.33	    16.186
   5.860        173.33	    14.422
   5.880        203.33	    15.620
   5.900        196.67	    15.362
   5.920        165.83	    14.107
   5.940        180.83	    14.731
   5.960        220.83	    16.279
   5.980        210.83	    15.906
   6.000        204.17	    15.652
   6.020        179.17	    14.663
   6.040        211.67	    15.937
   6.060        205.83	    15.716
   6.080        219.17	    16.217
   6.100        209.17	    15.843
   6.120        186.67	    14.967
   6.140        232.50	    16.703
   6.160        226.67	    16.492
   6.180        216.67	    16.125
   6.200        192.50	    15.199
   6.220        192.50	    15.199
   6.240        180.00	    14.697
   6.260        179.17	    14.663
   6.280        188.33	    15.033
   6.300        200.83	    15.524
   6.320        205.00	    15.684
   6.340        180.83	    14.731
   6.360        174.17	    14.457
   6.380        188.33	    15.033
   6.400        180.83	    14.731
   6.420        187.50	    15.000
   6.440        176.67	    14.560
   6.460        175.00	    14.491
   6.480        179.17	    14.663
   6.500        177.50	    14.595
   6.520        171.67	    14.353
   6.540        169.17	    14.248
   6.560        194.17	    15.264
   6.580        166.67	    14.142
   6.600        180.00	    14.697
   6.620        181.67	    14.765
   6.640        170.00	    14.283
   6.660        182.50	    14.799
   6.680        157.50	    13.748
   6.700        165.00	    14.071
   6.720        167.50	    14.177
   6.740        170.83	    14.318
   6.760        167.50	    14.177
   6.780        160.83	    13.892
   6.800        184.17	    14.866
   6.820        184.17	    14.866
   6.840        158.33	    13.784
   6.860        171.67	    14.353
   6.880        180.83	    14.731
   6.900        166.67	    14.142
   6.920        164.17	    14.036
   6.940        137.50	    12.845
   6.960        175.83	    14.526
   6.980        171.67	    14.353
   7.000        167.50	    14.177
   7.020        158.33	    13.784
   7.040        150.83	    13.454
   7.060        149.17	    13.379
   7.080        171.67	    14.353
   7.100        179.17	    14.663
   7.120        143.33	    13.115
   7.140        174.17	    14.457
   7.160        160.83	    13.892
   7.180        170.83	    14.318
   7.200        153.33	    13.565
   7.220        162.50	    13.964
   7.240        153.33	    13.565
   7.260        142.50	    13.077
   7.280        164.17	    14.036
   7.300        135.00	    12.728
   7.320        163.33	    14.000
   7.340        160.83	    13.892
   7.360        153.33	    13.565
   7.380        155.00	    13.638
   7.400        135.00	    12.728
   7.420        149.17	    13.379
   7.440        150.83	    13.454
   7.460        166.67	    14.142
   7.480        154.17	    13.601
   7.500        160.83	    13.892
   7.520        135.00	    12.728
   7.540        136.67	    12.806
   7.560        141.67	    13.038
   7.580        153.33	    13.565
   7.600        125.83	    12.288
   7.620        143.33	    13.115
   7.640        155.83	    13.675
   7.660        164.17	    14.036
   7.680        151.67	    13.491
   7.700        135.00	    12.728
   7.720        137.50	    12.845
   7.740        118.33	    11.916
   7.760        130.83	    12.530
   7.780        143.33	    13.115
   7.800        157.50	    13.748
   7.820        140.00	    12.961
   7.840        160.00	    13.856
   7.860        135.00	    12.728
   7.880        145.83	    13.229
   7.900        145.00	    13.191
   7.920        141.67	    13.038
   7.940        151.67	    13.491
   7.960        147.50	    13.304
   7.980        155.83	    13.675
   8.000        132.50	    12.610
   8.020        153.33	    13.565
   8.040        125.83	    12.288
   8.060        155.00	    13.638
   8.080        115.83	    11.790
   8.100        141.67	    13.038
   8.120        141.67	    13.038
   8.140        145.83	    13.229
   8.160        133.33	    12.649
   8.180        135.00	    12.728
   8.200        131.67	    12.570
   8.220        134.17	    12.689
   8.240        147.50	    13.304
   8.260        124.17	    12.207
   8.280        122.50	    12.124
   8.300        136.67	    12.806
   8.320        148.33	    13.342
   8.340        124.17	    12.207
   8.360        155.00	    13.638
   8.380        142.50	    13.077
   8.400        163.33	    14.000
   8.420        138.33	    12.884
   8.440        152.50	    13.528
   8.460        142.50	    13.077
   8.480        120.00	    12.000
   8.500        148.33	    13.342
   8.520        135.83	    12.767
   8.540        135.83	    12.767
   8.560        140.00	    12.961
   8.580        151.67	    13.491
   8.600        142.50	    13.077
   8.620        138.33	    12.884
   8.640        158.33	    13.784
   8.660        188.33	    15.033
   8.680        177.50	    14.595
   8.700        190.00	    15.100
   8.720        174.17	    14.457
   8.740        194.17	    15.264
   8.760        210.00	    15.875
   8.780        251.67	    17.378
   8.800        286.67	    18.547
   8.820        269.17	    17.972
   8.840        228.33	    16.553
   8.860        176.67	    14.560
   8.880        152.50	    13.528
   8.900        130.00	    12.490
   8.920        133.33	    12.649
   8.940        133.33	    12.649
   8.960        120.83	    12.042
   8.980        118.33	    11.916
   9.000        124.17	    12.207
   9.020        123.33	    12.166
   9.040        115.00	    11.747
   9.060        135.83	    12.767
   9.080        130.83	    12.530
   9.100        126.67	    12.329
   9.120        135.83	    12.767
   9.140        127.50	    12.369
   9.160        102.50	    11.091
   9.180        121.67	    12.083
   9.200        120.83	    12.042
   9.220        137.50	    12.845
   9.240        120.83	    12.042
   9.260         96.67	    10.770
   9.280        128.33	    12.410
   9.300        114.17	    11.705
   9.320        111.67	    11.576
   9.340        111.67	    11.576
   9.360        119.17	    11.958
   9.380        118.33	    11.916
   9.400        128.33	    12.410
   9.420        128.33	    12.410
   9.440        107.50	    11.358
   9.460        105.83	    11.269
   9.480        114.17	    11.705
   9.500        102.50	    11.091
   9.520        115.83	    11.790
   9.540        118.33	    11.916
   9.560        107.50	    11.358
   9.580        127.50	    12.369
   9.600        114.17	    11.705
   9.620        101.67	    11.045
   9.640        113.33	    11.662
   9.660        110.83	    11.533
   9.680        114.17	    11.705
   9.700        104.17	    11.180
   9.720        125.00	    12.247
   9.740        103.33	    11.136
   9.760        115.00	    11.747
   9.780        109.17	    11.446
   9.800        110.00	    11.489
   9.820        118.33	    11.916
   9.840        115.00	    11.747
   9.860        105.00	    11.225
   9.880        109.17	    11.446
   9.900         98.33	    10.863
   9.920        105.00	    11.225
   9.940        121.67	    12.083
   9.960        106.67	    11.314
   9.980        105.00	    11.225
  10.000        110.00	    11.489
  10.020        107.50	    11.358
  10.040        105.00	    11.225
  10.060         94.17	    10.630
  10.080        103.33	    11.136
  10.100        100.83	    11.000
  10.120        100.00	    10.954
  10.140         93.33	    10.583
  10.160         95.83	    10.724
  10.180        107.50	    11.358
  10.200        117.50	    11.874
  10.220         97.50	    10.817
  10.240        100.00	    10.954
  10.260         97.50	    10.817
  10.280        102.50	    11.091
  10.300        101.67	    11.045
  10.320        111.67	    11.576
  10.340        110.83	    11.533
  10.360        135.83	    12.767
  10.380        120.00	    12.000
  10.400        139.17	    12.923
  10.420        203.33	    15.620
  10.440        216.67	    16.125
  10.460        227.50	    16.523
  10.480        195.83	    15.330
  10.500        150.83	    13.454
  10.520        129.17	    12.450
  10.540         97.50	    10.817
  10.560        105.00	    11.225
  10.580         95.83	    10.724
  10.600        100.00	    10.954
  10.620        102.50	    11.091
  10.640        103.33	    11.136
  10.660        120.83	    12.042
  10.680         80.83	     9.849
  10.700        113.33	    11.662
  10.720        105.00	    11.225
  10.740         80.00	     9.798
  10.760        101.67	    11.045
  10.780        100.83	    11.000
  10.800         94.17	    10.630
  10.820         98.33	    10.863
  10.840        110.83	    11.533
  10.860        110.83	    11.533
  10.880        105.00	    11.225
  10.900        108.33	    11.402
  10.920        102.50	    11.091
  10.940        101.67	    11.045
  10.960         92.50	    10.536
  10.980         84.17	    10.050
  11.000         85.83	    10.149
  11.020         80.83	     9.849
  11.040         89.17	    10.344
  11.060         97.50	    10.817
  11.080         89.17	    10.344
  11.100         76.67	     9.592
  11.120         77.50	     9.644
  11.140         95.83	    10.724
  11.160         95.83	    10.724
  11.180         88.33	    10.296
  11.200         84.17	    10.050
  11.220         82.50	     9.950
  11.240        102.50	    11.091
  11.260         94.17	    10.630
  11.280         80.00	     9.798
  11.300         85.00	    10.100
  11.320         90.83	    10.440
  11.340        100.83	    11.000
  11.360        100.83	    11.000
  11.380         89.17	    10.344
  11.400         83.33	    10.000
  11.420         97.50	    10.817
  11.440        109.17	    11.446
  11.460         87.50	    10.247
  11.480         90.83	    10.440
  11.500        114.17	    11.705
  11.520        101.67	    11.045
  11.540         95.83	    10.724
  11.560         85.83	    10.149
  11.580         74.17	     9.434
  11.600         88.33	    10.296
  11.620         92.50	    10.536
  11.640         89.17	    10.344
  11.660         91.67	    10.488
  11.680        105.00	    11.225
  11.700         95.00	    10.677
  11.720         92.50	    10.536
  11.740         98.33	    10.863
  11.760         85.83	    10.149
  11.780        101.67	    11.045
  11.800         92.50	    10.536
  11.820         96.67	    10.770
  11.840         94.17	    10.630
  11.860         85.83	    10.149
  11.880         86.67	    10.198
  11.900         98.33	    10.863
  11.920         90.83	    10.440
  11.940        105.83	    11.269
  11.960         99.17	    10.909
  11.980        103.33	    11.136
  12.000        130.00	    12.490
  12.020        141.67	    13.038
  12.040        150.83	    13.454
  12.060        168.33	    14.213
  12.080        183.33	    14.832
  12.100        215.00	    16.062
  12.120        230.00	    16.613
  12.140        274.17	    18.138
  12.160        217.50	    16.155
  12.180        173.33	    14.422
  12.200        148.33	    13.342
  12.220        140.83	    13.000
  12.240        135.83	    12.767
  12.260        160.00	    13.856
  12.280        143.33	    13.115
  12.300        140.00	    12.961
  12.320        136.67	    12.806
  12.340        114.17	    11.705
  12.360        121.67	    12.083
  12.380        149.17	    13.379
  12.400        177.50	    14.595
  12.420        182.50	    14.799
  12.440        137.50	    12.845
  12.460        138.33	    12.884
  12.480        123.33	    12.166
  12.500         98.33	    10.863
  12.520         93.33	    10.583
  12.540         95.00	    10.677
  12.560         88.33	    10.296
  12.580         78.33	     9.695
  12.600         80.00	     9.798
  12.620         85.83	    10.149
  12.640         96.67	    10.770
  12.660         93.33	    10.583
  12.680         77.50	     9.644
  12.700         85.83	    10.149
  12.720         94.17	    10.630
  12.740        102.50	    11.091
  12.760         84.17	    10.050
  12.780         82.50	     9.950
  12.800         79.17	     9.747
  12.820         72.50	     9.327
  12.840         81.67	     9.899
  12.860         73.33	     9.381
  12.880         80.83	     9.849
  12.900         80.83	     9.849
  12.920         78.33	     9.695
  12.940         73.33	     9.381
  12.960         80.83	     9.849
  12.980         61.67	     8.602
  13.000         92.50	    10.536
  13.020         75.00	     9.487
  13.040         84.17	    10.050
  13.060         78.33	     9.695
  13.080         80.00	     9.798
  13.100         94.17	    10.630
  13.120         65.83	     8.888
  13.140         81.67	     9.899
  13.160         77.50	     9.644
  13.180         90.83	    10.440
  13.200         83.33	    10.000
  13.220         75.83	     9.539
  13.240         76.67	     9.592
  13.260         72.50	     9.327
  13.280         87.50	    10.247
  13.300         87.50	    10.247
  13.320         91.67	    10.488
  13.340         85.83	    10.149
  13.360         78.33	     9.695
  13.380         82.50	     9.950
  13.400         76.67	     9.592
  13.420         75.00	     9.487
  13.440         81.67	     9.899
  13.460         62.50	     8.660
  13.480         85.00	    10.100
  13.500         74.17	     9.434
  13.520         75.00	     9.487
  13.540        102.50	    11.091
  13.560         78.33	     9.695
  13.580         89.17	    10.344
  13.600         77.50	     9.644
  13.620         67.50	     9.000
  13.640         82.50	     9.950
  13.660         71.67	     9.274
  13.680         80.83	     9.849
  13.700         70.83	     9.220
  13.720         91.67	    10.488
  13.740         89.17	    10.344
  13.760         95.83	    10.724
  13.780        104.17	    11.180
  13.800        113.33	    11.662
  13.820        108.33	    11.402
  13.840         91.67	    10.488
  13.860         80.00	     9.798
  13.880         77.50	     9.644
  13.900         81.67	     9.899
  13.920         87.50	    10.247
  13.940         85.00	    10.100
  13.960         87.50	    10.247
  13.980         70.00	     9.165
  14.000         83.33	    10.000
  14.020         74.17	     9.434
  14.040         81.67	     9.899
  14.060         70.83	     9.220
  14.080         69.17	     9.110
  14.100         68.33	     9.055
  14.120         73.33	     9.381
  14.140         66.67	     8.944
  14.160         82.50	     9.950
  14.180         65.83	     8.888
  14.200         75.83	     9.539
  14.220         82.50	     9.950
  14.240         65.00	     8.832
  14.260         73.33	     9.381
  14.280         78.33	     9.695
  14.300         77.50	     9.644
  14.320         72.50	     9.327
  14.340         77.50	     9.644
  14.360         92.50	    10.536
  14.380         52.50	     7.937
  14.400         67.50	     9.000
  14.420         64.17	     8.775
  14.440         65.00	     8.832
  14.460         69.17	     9.110
  14.480         65.00	     8.832
  14.500         62.50	     8.660
  14.520         64.17	     8.775
  14.540         67.50	     9.000
  14.560         71.67	     9.274
  14.580         65.00	     8.832
  14.600         44.17	     7.280
  14.620         61.67	     8.602
  14.640         81.67	     9.899
  14.660         75.00	     9.487
  14.680         55.83	     8.185
  14.700         73.33	     9.381
  14.720         56.67	     8.246
  14.740         65.83	     8.888
  14.760         66.67	     8.944
  14.780         69.17	     9.110
  14.800         72.50	     9.327
  14.820         82.50	     9.950
  14.840         70.00	     9.165
  14.860         65.83	     8.888
  14.880         85.00	    10.100
  14.900         66.67	     8.944
  14.920         79.17	     9.747
  14.940         87.50	    10.247
  14.960         69.17	     9.110
  14.980         76.67	     9.592
  15.000         70.83	     9.220
  15.020         70.83	     9.220
  15.040         61.67	     8.602
  15.060         76.67	     9.592
  15.080         69.17	     9.110
  15.100         70.83	     9.220
  15.120         69.17	     9.110
  15.140         47.50	     7.550
  15.160         66.67	     8.944
  15.180         67.50	     9.000
  15.200         70.00	     9.165
  15.220         45.83	     7.416
  15.240         59.17	     8.426
  15.260         58.33	     8.367
  15.280         63.33	     8.718
  15.300         78.33	     9.695
  15.320         62.50	     8.660
  15.340         63.33	     8.718
  15.360         70.83	     9.220
  15.380         74.17	     9.434
  15.400         66.67	     8.944
  15.420         66.67	     8.944
  15.440         60.83	     8.544
  15.460         63.33	     8.718
  15.480         68.33	     9.055
  15.500         66.67	     8.944
  15.520         70.00	     9.165
  15.540         76.67	     9.592
  15.560         57.50	     8.307
  15.580         61.67	     8.602
  15.600         70.00	     9.165
  15.620         69.17	     9.110
  15.640         56.67	     8.246
  15.660         65.00	     8.832
  15.680         69.17	     9.110
  15.700         66.67	     8.944
  15.720         73.33	     9.381
  15.740         69.17	     9.110
  15.760         75.83	     9.539
  15.780         74.17	     9.434
  15.800         63.33	     8.718
  15.820         64.17	     8.775
  15.840         66.67	     8.944
  15.860         65.00	     8.832
  15.880         49.17	     7.681
  15.900         59.17	     8.426
  15.920         49.17	     7.681
  15.940         71.67	     9.274
  15.960         73.33	     9.381
  15.980         52.50	     7.937
  16.000         68.33	     9.055
  16.020         65.83	     8.888
  16.040         67.50	     9.000
  16.060         65.00	     8.832
  16.080         66.67	     8.944
  16.100         61.67	     8.602
  16.120         66.67	     8.944
  16.140         59.17	     8.426
  16.160         57.50	     8.307
  16.180         50.83	     7.810
  16.200         58.33	     8.367
  16.220         62.50	     8.660
  16.240         60.83	     8.544
  16.260         49.17	     7.681
  16.280         73.33	     9.381
  16.300         55.00	     8.124
  16.320         65.00	     8.832
  16.340         54.17	     8.062
  16.360         60.00	     8.485
  16.380         54.17	     8.062
  16.400         55.83	     8.185
  16.420         67.50	     9.000
  16.440         50.83	     7.810
  16.460         62.50	     8.660
  16.480         62.50	     8.660
  16.500         64.17	     8.775
  16.520         56.67	     8.246
  16.540         56.67	     8.246
  16.560         57.50	     8.307
  16.580         60.00	     8.485
  16.600         72.50	     9.327
  16.620         69.17	     9.110
  16.640         53.33	     8.000
  16.660         75.00	     9.487
  16.680         70.00	     9.165
  16.700         61.67	     8.602
  16.720         55.83	     8.185
  16.740         69.17	     9.110
  16.760         71.67	     9.274
  16.780         56.67	     8.246
  16.800         60.83	     8.544
  16.820         63.33	     8.718
  16.840         65.00	     8.832
  16.860         57.50	     8.307
  16.880         53.33	     8.000
  16.900         57.50	     8.307
  16.920         65.00	     8.832
  16.940         60.83	     8.544
  16.960         52.50	     7.937
  16.980         43.33	     7.211
  17.000         67.50	     9.000
  17.020         39.17	     6.856
  17.040         48.33	     7.616
  17.060         66.67	     8.944
  17.080         55.00	     8.124
  17.100         71.67	     9.274
  17.120         67.50	     9.000
  17.140         59.17	     8.426
  17.160         59.17	     8.426
  17.180         47.50	     7.550
  17.200         68.33	     9.055
  17.220         71.67	     9.274
  17.240         60.00	     8.485
  17.260         60.83	     8.544
  17.280         82.50	     9.950
  17.300         50.00	     7.746
  17.320         59.17	     8.426
  17.340         75.83	     9.539
  17.360         62.50	     8.660
  17.380         73.33	     9.381
  17.400         69.17	     9.110
  17.420         60.83	     8.544
  17.440         50.83	     7.810
  17.460         58.33	     8.367
  17.480         69.17	     9.110
  17.500         62.50	     8.660
  17.520         55.00	     8.124
  17.540         65.83	     8.888
  17.560         60.83	     8.544
  17.580         80.83	     9.849
  17.600         85.00	    10.100
  17.620         74.17	     9.434
  17.640         62.50	     8.660
  17.660         61.67	     8.602
  17.680         89.17	    10.344
  17.700         86.67	    10.198
  17.720        114.17	    11.705
  17.740        106.67	    11.314
  17.760        107.50	    11.358
  17.780         83.33	    10.000
  17.800         98.33	    10.863
  17.820         75.00	     9.487
  17.840         67.50	     9.000
  17.860         72.50	     9.327
  17.880         64.17	     8.775
  17.900         60.00	     8.485
  17.920         64.17	     8.775
  17.940         63.33	     8.718
  17.960         56.67	     8.246
  17.980         70.83	     9.220
  18.000         56.67	     8.246
  18.020         58.33	     8.367
  18.040         62.50	     8.660
  18.060         52.50	     7.937
  18.080         60.83	     8.544
  18.100         55.00	     8.124
  18.120         54.17	     8.062
  18.140         74.17	     9.434
  18.160         47.50	     7.550
  18.180         59.17	     8.426
  18.200         65.00	     8.832
  18.220         56.67	     8.246
  18.240         45.83	     7.416
  18.260         51.67	     7.874
  18.280         60.00	     8.485
  18.300         75.83	     9.539
  18.320         62.50	     8.660
  18.340         56.67	     8.246
  18.360         63.33	     8.718
  18.380         66.67	     8.944
  18.400         84.17	    10.050
  18.420         85.00	    10.100
  18.440         65.83	     8.888
  18.460         67.50	     9.000
  18.480         76.67	     9.592
  18.500         96.67	    10.770
  18.520         73.33	     9.381
  18.540         90.00	    10.392
  18.560         74.17	     9.434
  18.580         82.50	     9.950
  18.600         73.33	     9.381
  18.620         68.33	     9.055
  18.640         74.17	     9.434
  18.660         80.83	     9.849
  18.680         71.67	     9.274
  18.700         91.67	    10.488
  18.720         90.00	    10.392
  18.740         99.17	    10.909
  18.760         95.83	    10.724
  18.780         72.50	     9.327
  18.800         65.83	     8.888
  18.820         69.17	     9.110
  18.840         63.33	     8.718
  18.860         73.33	     9.381
  18.880         72.50	     9.327
  18.900         66.67	     8.944
  18.920         58.33	     8.367
  18.940         55.00	     8.124
  18.960         80.83	     9.849
  18.980         60.83	     8.544
  19.000         53.33	     8.000
  19.020         68.33	     9.055
  19.040         61.67	     8.602
  19.060         77.50	     9.644
  19.080         68.33	     9.055
  19.100         64.17	     8.775
  19.120         66.67	     8.944
  19.140         58.33	     8.367
  19.160         67.50	     9.000
  19.180         67.50	     9.000
  19.200         61.67	     8.602
  19.220         70.00	     9.165
  19.240         63.33	     8.718
  19.260         70.00	     9.165
  19.280         54.17	     8.062
  19.300         62.50	     8.660
  19.320         62.50	     8.660
  19.340         64.17	     8.775
  19.360         45.00	     7.348
  19.380         55.83	     8.185
  19.400         67.50	     9.000
  19.420         63.33	     8.718
  19.440         70.00	     9.165
  19.460         64.17	     8.775
  19.480         67.50	     9.000
  19.500         62.50	     8.660
  19.520         68.33	     9.055
  19.540         65.00	     8.832
  19.560         60.83	     8.544
  19.580         54.17	     8.062
  19.600         61.67	     8.602
  19.620         75.83	     9.539
  19.640         65.83	     8.888
  19.660         62.50	     8.660
  19.680         72.50	     9.327
  19.700         66.67	     8.944
  19.720         70.00	     9.165
  19.740         84.17	    10.050
  19.760         91.67	    10.488
  19.780        102.50	    11.091
  19.800         74.17	     9.434
  19.820         88.33	    10.296
  19.840         74.17	     9.434
  19.860         75.83	     9.539
  19.880         72.50	     9.327
  19.900         68.33	     9.055
  19.920         70.83	     9.220
  19.940         57.50	     8.307
  19.960         55.00	     8.124
  19.980         62.50	     8.660
  20.000         70.83	     9.220
  20.020         72.50	     9.327
  20.040         60.83	     8.544
  20.060         53.33	     8.000
  20.080         70.00	     9.165
  20.100         66.67	     8.944
  20.120         61.67	     8.602
  20.140         66.67	     8.944
  20.160         56.67	     8.246
  20.180         54.17	     8.062
  20.200         65.00	     8.832
  20.220         69.17	     9.110
  20.240         50.00	     7.746
  20.260         58.33	     8.367
  20.280         55.83	     8.185
  20.300         58.33	     8.367
  20.320         67.50	     9.000
  20.340         67.50	     9.000
  20.360         57.50	     8.307
  20.380         54.17	     8.062
  20.400         70.00	     9.165
  20.420         66.67	     8.944
  20.440         90.83	    10.440
  20.460         56.67	     8.246
  20.480         51.67	     7.874
  20.500         61.67	     8.602
  20.520         60.83	     8.544
  20.540         65.00	     8.832
  20.560         72.50	     9.327
  20.580         80.83	     9.849
  20.600         55.83	     8.185
  20.620         74.17	     9.434
  20.640         73.33	     9.381
  20.660         85.00	    10.100
  20.680         90.83	    10.440
  20.700        124.17	    12.207
  20.720        180.83	    14.731
  20.740        196.67	    15.362
  20.760        366.67	    20.976
  20.780        554.17	    25.788
  20.800        594.17	    26.702
  20.820        480.83	    24.021
  20.840        361.67	    20.833
  20.860        292.50	    18.735
  20.880        148.33	    13.342
  20.900        115.00	    11.747
  20.920        130.00	    12.490
  20.940        143.33	    13.115
  20.960        141.67	    13.038
  20.980        107.50	    11.358
  21.000        113.33	    11.662
  21.020         90.83	    10.440
  21.040         91.67	    10.488
  21.060         89.17	    10.344
  21.080         80.83	     9.849
  21.100         58.33	     8.367
  21.120         55.00	     8.124
  21.140         64.17	     8.775
  21.160         51.67	     7.874
  21.180         62.50	     8.660
  21.200         58.33	     8.367
  21.220         65.00	     8.832
  21.240         60.00	     8.485
  21.260         61.67	     8.602
  21.280         60.00	     8.485
  21.300         49.17	     7.681
  21.320         67.50	     9.000
  21.340         52.50	     7.937
  21.360         66.67	     8.944
  21.380         60.00	     8.485
  21.400         49.17	     7.681
  21.420         61.67	     8.602
  21.440         46.67	     7.483
  21.460         75.83	     9.539
  21.480         65.00	     8.832
  21.500         55.83	     8.185
  21.520         69.17	     9.110
  21.540         61.67	     8.602
  21.560         65.00	     8.832
  21.580         49.17	     7.681
  21.600         53.33	     8.000
  21.620         70.00	     9.165
  21.640         45.83	     7.416
  21.660         43.33	     7.211
  21.680         67.50	     9.000
  21.700         50.00	     7.746
  21.720         65.00	     8.832
  21.740         58.33	     8.367
  21.760         51.67	     7.874
  21.780         57.50	     8.307
  21.800         56.67	     8.246
  21.820         63.33	     8.718
  21.840         63.33	     8.718
  21.860         75.83	     9.539
  21.880         91.67	    10.488
  21.900        130.83	    12.530
  21.920        153.33	    13.565
  21.940        223.33	    16.371
  21.960        254.17	    17.464
  21.980        290.83	    18.682
  22.000        248.33	    17.263
  22.020        195.83	    15.330
  22.040        164.17	    14.036
  22.060        129.17	    12.450
  22.080         93.33	    10.583
  22.100         75.83	     9.539
  22.120         69.17	     9.110
  22.140         70.00	     9.165
  22.160         79.17	     9.747
  22.180         55.83	     8.185
  22.200         70.83	     9.220
  22.220         55.83	     8.185
  22.240         65.00	     8.832
  22.260         67.50	     9.000
  22.280         58.33	     8.367
  22.300         70.83	     9.220
  22.320         65.83	     8.888
  22.340         93.33	    10.583
  22.360         72.50	     9.327
  22.380         73.33	     9.381
  22.400         76.67	     9.592
  22.420         70.83	     9.220
  22.440         72.50	     9.327
  22.460         75.00	     9.487
  22.480        112.50	    11.619
  22.500        108.33	    11.402
  22.520         80.83	     9.849
  22.540         80.00	     9.798
  22.560         76.67	     9.592
  22.580         51.67	     7.874
  22.600         52.50	     7.937
  22.620         53.33	     8.000
  22.640         54.17	     8.062
  22.660         58.33	     8.367
  22.680         68.33	     9.055
  22.700         58.33	     8.367
  22.720         85.00	    10.100
  22.740         95.83	    10.724
  22.760        102.50	    11.091
  22.780        116.67	    11.832
  22.800         81.67	     9.899
  22.820        115.83	    11.790
  22.840         87.50	    10.247
  22.860         90.00	    10.392
  22.880         70.83	     9.220
  22.900         76.67	     9.592
  22.920         72.50	     9.327
  22.940         94.17	    10.630
  22.960         87.50	    10.247
  22.980         97.50	    10.817
  23.000        102.50	    11.091
  23.020        106.67	    11.314
  23.040         88.33	    10.296
  23.060         98.33	    10.863
  23.080         68.33	     9.055
  23.100         56.67	     8.246
  23.120         73.33	     9.381
  23.140         64.17	     8.775
  23.160         68.33	     9.055
  23.180         58.33	     8.367
  23.200         55.83	     8.185
  23.220         50.00	     7.746
  23.240         58.33	     8.367
  23.260         75.83	     9.539
  23.280         55.83	     8.185
  23.300         61.67	     8.602
  23.320         76.67	     9.592
  23.340         67.50	     9.000
  23.360         62.50	     8.660
  23.380         75.83	     9.539
  23.400         78.33	     9.695
  23.420        130.00	    12.490
  23.440        120.00	    12.000
  23.460        166.67	    14.142
  23.480        172.50	    14.387
  23.500        136.67	    12.806
  23.520        130.00	    12.490
  23.540        135.00	    12.728
  23.560        106.67	    11.314
  23.580         89.17	    10.344
  23.600         75.83	     9.539
  23.620         75.83	     9.539
  23.640         73.33	     9.381
  23.660         78.33	     9.695
  23.680         79.17	     9.747
  23.700         67.50	     9.000
  23.720         64.17	     8.775
  23.740         89.17	    10.344
  23.760         70.83	     9.220
  23.780         78.33	     9.695
  23.800         65.83	     8.888
  23.820         70.00	     9.165
  23.840         59.17	     8.426
  23.860         56.67	     8.246
  23.880         54.17	     8.062
  23.900         85.83	    10.149
  23.920         80.00	     9.798
  23.940         74.17	     9.434
  23.960         93.33	    10.583
  23.980         85.83	    10.149
  24.000         75.00	     9.487
  24.020         65.83	     8.888
  24.040         89.17	    10.344
  24.060         82.50	     9.950
  24.080         89.17	    10.344
  24.100         91.67	    10.488
  24.120        108.33	    11.402
  24.140        101.67	    11.045
  24.160        115.00	    11.747
  24.180        141.67	    13.038
  24.200        129.17	    12.450
  24.220        169.17	    14.248
  24.240        216.67	    16.125
  24.260        158.33	    13.784
  24.280        122.50	    12.124
  24.300        129.17	    12.450
  24.320        117.50	    11.874
  24.340         81.67	     9.899
  24.360         85.83	    10.149
  24.380         83.33	    10.000
  24.400         81.67	     9.899
  24.420         99.17	    10.909
  24.440         86.67	    10.198
  24.460        145.00	    13.191
  24.480        168.33	    14.213
  24.500        205.00	    15.684
  24.520        240.00	    16.971
  24.540        244.17	    17.117
  24.560        234.17	    16.763
  24.580        206.67	    15.748
  24.600        192.50	    15.199
  24.620        181.67	    14.765
  24.640        148.33	    13.342
  24.660        130.00	    12.490
  24.680        101.67	    11.045
  24.700        104.17	    11.180
  24.720         97.50	    10.817
  24.740         86.67	    10.198
  24.760         84.17	    10.050
  24.780         90.00	    10.392
  24.800         92.50	    10.536
  24.820         80.83	     9.849
  24.840         95.00	    10.677
  24.860         82.50	     9.950
  24.880         98.33	    10.863
  24.900         68.33	     9.055
  24.920         75.83	     9.539
  24.940         70.83	     9.220
  24.960         91.67	    10.488
  24.980         91.67	    10.488
  25.000         88.33	    10.296
  25.020         93.33	    10.583
  25.040        131.67	    12.570
  25.060        123.33	    12.166
  25.080        135.83	    12.767
  25.100        108.33	    11.402
  25.120        125.83	    12.288
  25.140        101.67	    11.045
  25.160         94.17	    10.630
  25.180         88.33	    10.296
  25.200         61.67	     8.602
  25.220         80.83	     9.849
  25.240         72.50	     9.327
  25.260         76.67	     9.592
  25.280         81.67	     9.899
  25.300         80.83	     9.849
  25.320         95.83	    10.724
  25.340        107.50	    11.358
  25.360         98.33	    10.863
  25.380        101.67	    11.045
  25.400        125.83	    12.288
  25.420        119.17	    11.958
  25.440        139.17	    12.923
  25.460        140.83	    13.000
  25.480        132.50	    12.610
  25.500        135.83	    12.767
  25.520        142.50	    13.077
  25.540        148.33	    13.342
  25.560        146.67	    13.266
  25.580        145.83	    13.229
  25.600        123.33	    12.166
  25.620        106.67	    11.314
  25.640        101.67	    11.045
  25.660         95.83	    10.724
  25.680         79.17	     9.747
  25.700         79.17	     9.747
  25.720         69.17	     9.110
  25.740         74.17	     9.434
  25.760         73.33	     9.381
  25.780         68.33	     9.055
  25.800         72.50	     9.327
  25.820         53.33	     8.000
  25.840         62.50	     8.660
  25.860         62.50	     8.660
  25.880         73.33	     9.381
  25.900         55.83	     8.185
  25.920         60.00	     8.485
  25.940         65.00	     8.832
  25.960         67.50	     9.000
  25.980         63.33	     8.718
  26.000         67.50	     9.000
  26.020         60.83	     8.544
  26.040         41.67	     7.071
  26.060         71.67	     9.274
  26.080         55.83	     8.185
  26.100         54.17	     8.062
  26.120         98.33	    10.863
  26.140         84.17	    10.050
  26.160         71.67	     9.274
  26.180         85.83	    10.149
  26.200         86.67	    10.198
  26.220         98.33	    10.863
  26.240         85.83	    10.149
  26.260         96.67	    10.770
  26.280        104.17	    11.180
  26.300        111.67	    11.576
  26.320        145.83	    13.229
  26.340        170.00	    14.283
  26.360        187.50	    15.000
  26.380        179.17	    14.663
  26.400        218.33	    16.186
  26.420        217.50	    16.155
  26.440        258.33	    17.607
  26.460        276.67	    18.221
  26.480        375.83	    21.237
  26.500        500.83	    24.515
  26.520        911.67	    33.076
  26.540       1512.50	    42.603
  26.560       2374.17	    53.376
  26.580       2792.50	    57.888
  26.600       2298.33	    52.517
  26.620       1830.00	    46.861
  26.640       1600.83	    43.829
  26.660       1237.50	    38.536
  26.680        784.17	    30.676
  26.700        422.50	    22.517
  26.720        308.33	    19.235
  26.740        277.50	    18.248
  26.760        293.33	    18.762
  26.780        286.67	    18.547
  26.800        236.67	    16.852
  26.820        252.50	    17.407
  26.840        252.50	    17.407
  26.860        232.50	    16.703
  26.880        210.83	    15.906
  26.900        211.67	    15.937
  26.920        159.17	    13.820
  26.940        151.67	    13.491
  26.960        125.83	    12.288
  26.980        133.33	    12.649
  27.000        125.00	    12.247
  27.020        122.50	    12.124
  27.040        113.33	    11.662
  27.060         95.83	    10.724
  27.080         90.83	    10.440
  27.100         74.17	     9.434
  27.120         76.67	     9.592
  27.140         79.17	     9.747
  27.160         68.33	     9.055
  27.180         64.17	     8.775
  27.200         67.50	     9.000
  27.220         81.67	     9.899
  27.240         80.83	     9.849
  27.260         80.00	     9.798
  27.280         82.50	     9.950
  27.300         67.50	     9.000
  27.320         90.00	    10.392
  27.340        101.67	    11.045
  27.360        121.67	    12.083
  27.380        165.00	    14.071
  27.400        202.50	    15.588
  27.420        185.83	    14.933
  27.440        215.83	    16.093
  27.460        243.33	    17.088
  27.480        225.00	    16.432
  27.500        156.67	    13.711
  27.520        160.83	    13.892
  27.540        130.00	    12.490
  27.560        136.67	    12.806
  27.580        134.17	    12.689
  27.600        125.83	    12.288
  27.620        150.00	    13.416
  27.640        215.00	    16.062
  27.660        234.17	    16.763
  27.680        225.83	    16.462
  27.700        225.00	    16.432
  27.720        224.17	    16.401
  27.740        180.83	    14.731
  27.760        186.67	    14.967
  27.780        260.00	    17.664
  27.800        261.67	    17.720
  27.820        352.50	    20.567
  27.840        480.00	    24.000
  27.860        497.50	    24.434
  27.880        553.33	    25.768
  27.900        437.50	    22.913
  27.920        393.33	    21.726
  27.940        358.33	    20.736
  27.960        290.00	    18.655
  27.980        205.00	    15.684
  28.000        144.17	    13.153
  28.020        131.67	    12.570
  28.040        115.83	    11.790
  28.060        137.50	    12.845
  28.080        138.33	    12.884
  28.100        122.50	    12.124
  28.120        120.83	    12.042
  28.140        115.00	    11.747
  28.160        107.50	    11.358
  28.180        115.00	    11.747
  28.200        116.67	    11.832
  28.220        167.50	    14.177
  28.240        159.17	    13.820
  28.260        145.83	    13.229
  28.280        108.33	    11.402
  28.300        132.50	    12.610
  28.320        113.33	    11.662
  28.340         88.33	    10.296
  28.360         67.50	     9.000
  28.380         74.17	     9.434
  28.400         65.83	     8.888
  28.420         65.00	     8.832
  28.440         78.33	     9.695
  28.460         63.33	     8.718
  28.480         63.33	     8.718
  28.500         62.50	     8.660
  28.520         68.33	     9.055
  28.540         63.33	     8.718
  28.560         53.33	     8.000
  28.580         67.50	     9.000
  28.600         80.83	     9.849
  28.620         82.50	     9.950
  28.640         65.83	     8.888
  28.660         67.50	     9.000
  28.680         70.00	     9.165
  28.700         63.33	     8.718
  28.720         51.67	     7.874
  28.740         51.67	     7.874
  28.760         57.50	     8.307
  28.780         52.50	     7.937
  28.800         61.67	     8.602
  28.820         62.50	     8.660
  28.840         55.83	     8.185
  28.860         42.50	     7.141
  28.880         58.33	     8.367
  28.900         45.00	     7.348
  28.920         44.17	     7.280
  28.940         49.17	     7.681
  28.960         49.17	     7.681
  28.980         57.50	     8.307
  29.000         49.17	     7.681
  29.020         51.67	     7.874
  29.040         39.17	     6.856
  29.060         44.17	     7.280
  29.080         51.67	     7.874
  29.100         45.83	     7.416
  29.120         60.83	     8.544
  29.140         49.17	     7.681
  29.160         42.50	     7.141
  29.180         60.00	     8.485
  29.200         42.50	     7.141
  29.220         53.33	     8.000
  29.240         42.50	     7.141
  29.260         50.83	     7.810
  29.280         48.33	     7.616
  29.300         43.33	     7.211
  29.320         45.00	     7.348
  29.340         35.00	     6.481
  29.360         46.67	     7.483
  29.380         58.33	     8.367
  29.400         60.00	     8.485
  29.420         46.67	     7.483
  29.440         60.00	     8.485
  29.460         65.83	     8.888
  29.480         55.83	     8.185
  29.500         66.67	     8.944
  29.520         51.67	     7.874
  29.540         44.17	     7.280
  29.560         64.17	     8.775
  29.580         51.67	     7.874
  29.600         51.67	     7.874
  29.620         59.17	     8.426
  29.640         70.00	     9.165
  29.660         74.17	     9.434
  29.680         78.33	     9.695
  29.700         66.67	     8.944
  29.720         68.33	     9.055
  29.740        103.33	    11.136
  29.760        102.50	    11.091
  29.780         90.83	    10.440
  29.800        112.50	    11.619
  29.820        112.50	    11.619
  29.840         97.50	    10.817
  29.860        111.67	    11.576
  29.880        100.00	    10.954
  29.900         95.00	    10.677
  29.920         86.67	    10.198
  29.940         68.33	     9.055
  29.960         78.33	     9.695
  29.980         72.50	     9.327
  30.000         75.00	     9.487
  30.020         86.67	    10.198
  30.040         91.67	    10.488
  30.060         90.83	    10.440
  30.080         95.00	    10.677
  30.100         85.83	    10.149
  30.120         75.83	     9.539
  30.140        105.83	    11.269
  30.160        100.83	    11.000
  30.180         95.00	    10.677
  30.200         82.50	     9.950
  30.220         96.67	    10.770
  30.240         80.00	     9.798
  30.260         92.50	    10.536
  30.280         61.67	     8.602
  30.300         76.67	     9.592
  30.320         72.50	     9.327
  30.340         81.67	     9.899
  30.360         75.00	     9.487
  30.380         86.67	    10.198
  30.400        123.33	    12.166
  30.420         91.67	    10.488
  30.440         98.33	    10.863
  30.460        101.67	    11.045
  30.480         89.17	    10.344
  30.500         70.83	     9.220
  30.520         82.50	     9.950
  30.540         61.67	     8.602
  30.560         60.83	     8.544
  30.580         55.83	     8.185
  30.600         60.00	     8.485
  30.620         50.00	     7.746
  30.640         50.00	     7.746
  30.660         53.33	     8.000
  30.680         66.67	     8.944
  30.700         80.83	     9.849
  30.720         90.00	    10.392
  30.740        113.33	    11.662
  30.760         86.67	    10.198
  30.780        109.17	    11.446
  30.800        131.67	    12.570
  30.820        136.67	    12.806
  30.840        133.33	    12.649
  30.860        116.67	    11.832
  30.880         83.33	    10.000
  30.900         87.50	    10.247
  30.920         75.00	     9.487
  30.940         73.33	     9.381
  30.960         65.00	     8.832
  30.980         55.83	     8.185
  31.000         63.33	     8.718
  31.020         60.00	     8.485
  31.040         58.33	     8.367
  31.060         63.33	     8.718
  31.080         57.50	     8.307
  31.100         60.83	     8.544
  31.120         99.17	    10.909
  31.140         82.50	     9.950
  31.160        110.00	    11.489
  31.180         86.67	    10.198
  31.200         98.33	    10.863
  31.220         84.17	    10.050
  31.240         87.50	    10.247
  31.260         75.83	     9.539
  31.280         81.67	     9.899
  31.300         85.00	    10.100
  31.320         95.00	    10.677
  31.340         85.83	    10.149
  31.360         91.67	    10.488
  31.380         69.17	     9.110
  31.400         65.83	     8.888
  31.420         77.50	     9.644
  31.440         90.83	    10.440
  31.460         83.33	    10.000
  31.480         54.17	     8.062
  31.500         55.00	     8.124
  31.520         67.50	     9.000
  31.540         53.33	     8.000
  31.560         54.17	     8.062
  31.580         53.33	     8.000
  31.600         51.67	     7.874
  31.620         45.83	     7.416
  31.640         55.00	     8.124
  31.660         54.17	     8.062
  31.680         50.83	     7.810
  31.700         55.00	     8.124
  31.720         60.83	     8.544
  31.740         60.00	     8.485
  31.760         71.67	     9.274
  31.780        101.67	    11.045
  31.800        103.33	    11.136
  31.820         85.83	    10.149
  31.840         66.67	     8.944
  31.860         79.17	     9.747
  31.880         75.83	     9.539
  31.900         71.67	     9.274
  31.920         85.83	    10.149
  31.940         58.33	     8.367
  31.960         54.17	     8.062
  31.980         59.17	     8.426
  32.000         47.50	     7.550
  32.020         57.50	     8.307
  32.040         64.17	     8.775
  32.060         67.50	     9.000
  32.080         57.50	     8.307
  32.100         61.67	     8.602
  32.120         75.83	     9.539
  32.140         55.00	     8.124
  32.160         60.83	     8.544
  32.180         67.50	     9.000
  32.200         57.50	     8.307
  32.220         57.50	     8.307
  32.240         45.00	     7.348
  32.260         35.00	     6.481
  32.280         56.67	     8.246
  32.300         65.00	     8.832
  32.320         47.50	     7.550
  32.340         36.67	     6.633
  32.360         43.33	     7.211
  32.380         50.83	     7.810
  32.400         47.50	     7.550
  32.420         30.00	     6.000
  32.440         50.00	     7.746
  32.460         47.50	     7.550
  32.480         30.83	     6.083
  32.500         35.00	     6.481
  32.520         50.83	     7.810
  32.540         41.67	     7.071
  32.560         40.83	     7.000
  32.580         56.67	     8.246
  32.600         49.17	     7.681
  32.620         41.67	     7.071
  32.640         45.83	     7.416
  32.660         25.83	     5.568
  32.680         40.00	     6.928
  32.700         35.83	     6.557
  32.720         42.50	     7.141
  32.740         37.50	     6.708
  32.760         45.83	     7.416
  32.780         40.83	     7.000
  32.800         43.33	     7.211
  32.820         57.50	     8.307
  32.840         54.17	     8.062
  32.860         55.83	     8.185
  32.880         47.50	     7.550
  32.900         57.50	     8.307
  32.920         51.67	     7.874
  32.940         45.00	     7.348
  32.960         54.17	     8.062
  32.980         69.17	     9.110
  33.000         52.50	     7.937
  33.020         51.67	     7.874
  33.040         57.50	     8.307
  33.060         43.33	     7.211
  33.080         47.50	     7.550
  33.100         42.50	     7.141
  33.120         32.50	     6.245
  33.140         45.83	     7.416
  33.160         36.67	     6.633
  33.180         38.33	     6.782
  33.200         37.50	     6.708
  33.220         49.17	     7.681
  33.240         47.50	     7.550
  33.260         32.50	     6.245
  33.280         40.83	     7.000
  33.300         45.83	     7.416
  33.320         48.33	     7.616
  33.340         52.50	     7.937
  33.360         41.67	     7.071
  33.380         52.50	     7.937
  33.400         39.17	     6.856
  33.420         51.67	     7.874
  33.440         45.00	     7.348
  33.460         45.83	     7.416
  33.480         42.50	     7.141
  33.500         40.83	     7.000
  33.520         30.00	     6.000
  33.540         40.83	     7.000
  33.560         40.83	     7.000
  33.580         40.00	     6.928
  33.600         34.17	     6.403
  33.620         42.50	     7.141
  33.640         44.17	     7.280
  33.660         40.00	     6.928
  33.680         35.00	     6.481
  33.700         49.17	     7.681
  33.720         48.33	     7.616
  33.740         54.17	     8.062
  33.760         47.50	     7.550
  33.780         59.17	     8.426
  33.800         52.50	     7.937
  33.820         67.50	     9.000
  33.840         60.00	     8.485
  33.860         54.17	     8.062
  33.880         58.33	     8.367
  33.900         57.50	     8.307
  33.920         60.83	     8.544
  33.940         51.67	     7.874
  33.960         62.50	     8.660
  33.980         51.67	     7.874
  34.000         70.00	     9.165
  34.020         48.33	     7.616
  34.040         48.33	     7.616
  34.060         52.50	     7.937
  34.080         62.50	     8.660
  34.100         48.33	     7.616
  34.120         62.50	     8.660
  34.140         46.67	     7.483
  34.160         45.00	     7.348
  34.180         51.67	     7.874
  34.200         53.33	     8.000
  34.220         60.00	     8.485
  34.240         63.33	     8.718
  34.260         56.67	     8.246
  34.280         55.00	     8.124
  34.300         68.33	     9.055
  34.320         65.83	     8.888
  34.340         85.00	    10.100
  34.360         86.67	    10.198
  34.380         73.33	     9.381
  34.400         78.33	     9.695
  34.420         90.83	    10.440
  34.440         98.33	    10.863
  34.460        122.50	    12.124
  34.480         93.33	    10.583
  34.500        102.50	    11.091
  34.520         84.17	    10.050
  34.540         74.17	     9.434
  34.560         76.67	     9.592
  34.580         70.00	     9.165
  34.600         74.17	     9.434
  34.620         80.83	     9.849
  34.640         84.17	    10.050
  34.660         66.67	     8.944
  34.680         48.33	     7.616
  34.700         59.17	     8.426
  34.720         66.67	     8.944
  34.740         87.50	    10.247
  34.760         87.50	    10.247
  34.780         98.33	    10.863
  34.800        106.67	    11.314
  34.820        107.50	    11.358
  34.840         98.33	    10.863
  34.860        110.00	    11.489
  34.880        125.00	    12.247
  34.900        105.00	    11.225
  34.920        110.00	    11.489
  34.940        129.17	    12.450
  34.960        106.67	    11.314
  34.980        133.33	    12.649
  35.000        140.83	    13.000
  35.020         97.50	    10.817
  35.040         96.67	    10.770
  35.060         98.33	    10.863
  35.080         77.50	     9.644
  35.100         68.33	     9.055
  35.120         85.00	    10.100
  35.140         80.00	     9.798
  35.160         82.50	     9.950
  35.180         72.50	     9.327
  35.200         91.67	    10.488
  35.220         75.83	     9.539
  35.240         73.33	     9.381
  35.260        110.00	    11.489
  35.280         99.17	    10.909
  35.300         92.50	    10.536
  35.320         87.50	    10.247
  35.340         93.33	    10.583
  35.360         92.50	    10.536
  35.380        100.83	    11.000
  35.400        114.17	    11.705
  35.420        131.67	    12.570
  35.440        129.17	    12.450
  35.460        140.00	    12.961
  35.480        157.50	    13.748
  35.500        135.00	    12.728
  35.520        129.17	    12.450
  35.540        116.67	    11.832
  35.560        129.17	    12.450
  35.580        112.50	    11.619
  35.600        113.33	    11.662
  35.620         79.17	     9.747
  35.640         79.17	     9.747
  35.660         73.33	     9.381
  35.680         62.50	     8.660
  35.700         71.67	     9.274
  35.720         70.83	     9.220
  35.740         53.33	     8.000
  35.760         57.50	     8.307
  35.780         57.50	     8.307
  35.800         49.17	     7.681
  35.820         47.50	     7.550
  35.840         60.00	     8.485
  35.860         66.67	     8.944
  35.880         42.50	     7.141
  35.900         64.17	     8.775
  35.920         55.83	     8.185
  35.940         74.17	     9.434
  35.960         50.83	     7.810
  35.980         54.17	     8.062
  36.000         54.17	     8.062
  36.020         60.00	     8.485
  36.040         45.83	     7.416
  36.060         55.00	     8.124
  36.080         62.50	     8.660
  36.100         58.33	     8.367
  36.120         40.83	     7.000
  36.140         48.33	     7.616
  36.160         57.50	     8.307
  36.180         49.17	     7.681
  36.200         60.00	     8.485
  36.220         40.83	     7.000
  36.240         47.50	     7.550
  36.260         50.00	     7.746
  36.280         55.00	     8.124
  36.300         63.33	     8.718
  36.320         62.50	     8.660
  36.340         65.83	     8.888
  36.360         79.17	     9.747
  36.380         88.33	    10.296
  36.400        108.33	    11.402
  36.420        134.17	    12.689
  36.440        198.33	    15.427
  36.460        226.67	    16.492
  36.480        255.83	    17.521
  36.500        213.33	    16.000
  36.520        153.33	    13.565
  36.540        156.67	    13.711
  36.560        160.00	    13.856
  36.580        134.17	    12.689
  36.600        129.17	    12.450
  36.620         96.67	    10.770
  36.640         80.00	     9.798
  36.660         97.50	    10.817
  36.680         83.33	    10.000
  36.700         73.33	     9.381
  36.720         65.00	     8.832
  36.740         59.17	     8.426
  36.760         64.17	     8.775
  36.780         77.50	     9.644
  36.800         48.33	     7.616
  36.820         53.33	     8.000
  36.840         47.50	     7.550
  36.860         59.17	     8.426
  36.880         50.00	     7.746
  36.900         46.67	     7.483
  36.920         56.67	     8.246
  36.940         57.50	     8.307
  36.960         53.33	     8.000
  36.980         54.17	     8.062
  37.000         51.67	     7.874
  37.020         40.83	     7.000
  37.040         53.33	     8.000
  37.060         51.67	     7.874
  37.080         55.00	     8.124
  37.100         59.17	     8.426
  37.120         55.83	     8.185
  37.140         55.00	     8.124
  37.160         56.67	     8.246
  37.180         47.50	     7.550
  37.200         65.00	     8.832
  37.220         46.67	     7.483
  37.240         55.83	     8.185
  37.260         52.50	     7.937
  37.280         73.33	     9.381
  37.300         63.33	     8.718
  37.320         77.50	     9.644
  37.340         78.33	     9.695
  37.360         92.50	    10.536
  37.380         84.17	    10.050
  37.400         75.00	     9.487
  37.420         82.50	     9.950
  37.440         81.67	     9.899
  37.460         92.50	    10.536
  37.480        101.67	    11.045
  37.500        108.33	    11.402
  37.520         84.17	    10.050
  37.540         75.00	     9.487
  37.560         81.67	     9.899
  37.580         70.83	     9.220
  37.600         77.50	     9.644
  37.620         85.83	    10.149
  37.640         93.33	    10.583
  37.660         60.00	     8.485
  37.680         62.50	     8.660
  37.700         61.67	     8.602
  37.720         68.33	     9.055
  37.740         60.83	     8.544
  37.760         69.17	     9.110
  37.780         69.17	     9.110
  37.800         51.67	     7.874
  37.820         50.00	     7.746
  37.840         41.67	     7.071
  37.860         50.83	     7.810
  37.880         40.83	     7.000
  37.900         33.33	     6.325
  37.920         44.17	     7.280
  37.940         35.00	     6.481
  37.960         34.17	     6.403
  37.980         36.67	     6.633
  38.000         42.50	     7.141
  38.020         46.67	     7.483
  38.040         41.67	     7.071
  38.060         45.00	     7.348
  38.080         40.00	     6.928
  38.100         33.33	     6.325
  38.120         41.67	     7.071
  38.140         33.33	     6.325
  38.160         46.67	     7.483
  38.180         45.00	     7.348
  38.200         33.33	     6.325
  38.220         44.17	     7.280
  38.240         54.17	     8.062
  38.260         41.67	     7.071
  38.280         40.83	     7.000
  38.300         49.17	     7.681
  38.320         43.33	     7.211
  38.340         52.50	     7.937
  38.360         41.67	     7.071
  38.380         44.17	     7.280
  38.400         37.50	     6.708
  38.420         45.83	     7.416
  38.440         42.50	     7.141
  38.460         44.17	     7.280
  38.480         42.50	     7.141
  38.500         48.33	     7.616
  38.520         49.17	     7.681
  38.540         45.83	     7.416
  38.560         58.33	     8.367
  38.580         58.33	     8.367
  38.600         60.00	     8.485
  38.620         46.67	     7.483
  38.640         41.67	     7.071
  38.660         46.67	     7.483
  38.680         47.50	     7.550
  38.700         59.17	     8.426
  38.720         53.33	     8.000
  38.740         60.83	     8.544
  38.760         65.00	     8.832
  38.780         70.83	     9.220
  38.800         44.17	     7.280
  38.820         40.83	     7.000
  38.840         65.83	     8.888
  38.860         60.83	     8.544
  38.880         63.33	     8.718
  38.900         35.83	     6.557
  38.920         45.00	     7.348
  38.940         46.67	     7.483
  38.960         40.83	     7.000
  38.980         36.67	     6.633
  39.000         35.83	     6.557
  39.020         39.17	     6.856
  39.040         40.83	     7.000
  39.060         42.50	     7.141
  39.080         52.50	     7.937
  39.100         55.83	     8.185
  39.120         46.67	     7.483
  39.140         38.33	     6.782
  39.160         50.00	     7.746
  39.180         49.17	     7.681
  39.200         44.17	     7.280
  39.220         46.67	     7.483
  39.240         50.00	     7.746
  39.260         48.33	     7.616
  39.280         49.17	     7.681
  39.300         59.17	     8.426
  39.320         69.17	     9.110
  39.340         99.17	    10.909
  39.360        138.33	    12.884
  39.380        218.33	    16.186
  39.400        199.17	    15.460
  39.420        182.50	    14.799
  39.440        131.67	    12.570
  39.460        115.83	    11.790
  39.480        140.00	    12.961
  39.500        145.83	    13.229
  39.520        123.33	    12.166
  39.540        104.17	    11.180
  39.560         80.83	     9.849
  39.580         73.33	     9.381
  39.600         70.00	     9.165
  39.620         60.00	     8.485
  39.640         64.17	     8.775
  39.660         69.17	     9.110
  39.680         61.67	     8.602
  39.700         52.50	     7.937
  39.720         46.67	     7.483
  39.740         55.83	     8.185
  39.760         51.67	     7.874
  39.780         58.33	     8.367
  39.800         46.67	     7.483
  39.820         40.00	     6.928
  39.840         49.17	     7.681
  39.860         38.33	     6.782
  39.880         51.67	     7.874
  39.900         52.50	     7.937
  39.920         49.17	     7.681
  39.940         39.17	     6.856
  39.960         45.00	     7.348
  39.980         45.00	     7.348
  40.000         60.83	     8.544
  40.020         47.50	     7.550
  40.040         52.50	     7.937
  40.060         51.67	     7.874
  40.080         56.67	     8.246
  40.100         46.67	     7.483
  40.120         68.33	     9.055
  40.140         56.67	     8.246
  40.160         66.67	     8.944
  40.180         80.83	     9.849
  40.200        117.50	    11.874
  40.220        111.67	    11.576
  40.240        115.83	    11.790
  40.260         86.67	    10.198
  40.280         70.83	     9.220
  40.300         75.00	     9.487
  40.320         90.00	    10.392
  40.340        100.83	    11.000
  40.360         68.33	     9.055
  40.380         58.33	     8.367
  40.400         54.17	     8.062
  40.420         53.33	     8.000
  40.440         48.33	     7.616
  40.460         43.33	     7.211
  40.480         54.17	     8.062
  40.500         47.50	     7.550
  40.520         40.00	     6.928
  40.540         58.33	     8.367
  40.560         50.00	     7.746
  40.580         36.67	     6.633
  40.600         47.50	     7.550
  40.620         40.00	     6.928
  40.640         33.33	     6.325
  40.660         46.67	     7.483
  40.680         40.00	     6.928
  40.700         40.00	     6.928
  40.720         50.00	     7.746
  40.740         55.00	     8.124
  40.760         40.83	     7.000
  40.780         45.83	     7.416
  40.800         45.83	     7.416
  40.820         37.50	     6.708
  40.840         50.00	     7.746
  40.860         60.00	     8.485
  40.880         45.00	     7.348
  40.900         41.67	     7.071
  40.920         45.00	     7.348
  40.940         45.83	     7.416
  40.960         53.33	     8.000
  40.980         55.83	     8.185
  41.000         53.33	     8.000
  41.020         55.00	     8.124
  41.040         50.83	     7.810
  41.060         45.83	     7.416
  41.080         64.17	     8.775
  41.100         58.33	     8.367
  41.120         59.17	     8.426
  41.140         65.00	     8.832
  41.160         62.50	     8.660
  41.180         63.33	     8.718
  41.200         52.50	     7.937
  41.220         47.50	     7.550
  41.240         60.00	     8.485
  41.260         52.50	     7.937
  41.280         58.33	     8.367
  41.300         65.83	     8.888
  41.320         51.67	     7.874
  41.340         50.83	     7.810
  41.360         50.83	     7.810
  41.380         35.00	     6.481
  41.400         50.83	     7.810
  41.420         51.67	     7.874
  41.440         38.33	     6.782
  41.460         53.33	     8.000
  41.480         55.83	     8.185
  41.500         56.67	     8.246
  41.520         55.00	     8.124
  41.540         60.83	     8.544
  41.560         66.67	     8.944
  41.580         70.00	     9.165
  41.600         85.83	    10.149
  41.620         97.50	    10.817
  41.640        110.83	    11.533
  41.660        103.33	    11.136
  41.680         84.17	    10.050
  41.700         78.33	     9.695
  41.720         98.33	    10.863
  41.740        105.00	    11.225
  41.760         82.50	     9.950
  41.780         90.83	    10.440
  41.800         85.83	    10.149
  41.820         85.83	    10.149
  41.840         90.83	    10.440
  41.860         87.50	    10.247
  41.880         70.00	     9.165
  41.900         61.67	     8.602
  41.920         75.83	     9.539
  41.940         75.83	     9.539
  41.960         69.17	     9.110
  41.980         71.67	     9.274
  42.000         59.17	     8.426
  42.020         60.83	     8.544
  42.040         66.67	     8.944
  42.060         60.83	     8.544
  42.080         59.17	     8.426
  42.100         58.33	     8.367
  42.120         55.83	     8.185
  42.140         63.33	     8.718
  42.160         58.33	     8.367
  42.180         61.67	     8.602
  42.200         63.33	     8.718
  42.220         63.33	     8.718
  42.240         80.83	     9.849
  42.260         94.17	    10.630
  42.280         87.50	    10.247
  42.300        115.00	    11.747
  42.320        143.33	    13.115
  42.340        148.33	    13.342
  42.360        201.67	    15.556
  42.380        217.50	    16.155
  42.400        199.17	    15.460
  42.420        161.67	    13.928
  42.440        143.33	    13.115
  42.460        133.33	    12.649
  42.480        149.17	    13.379
  42.500        159.17	    13.820
  42.520        144.17	    13.153
  42.540        115.00	    11.747
  42.560         84.17	    10.050
  42.580         71.67	     9.274
  42.600        104.17	    11.180
  42.620         95.83	    10.724
  42.640         74.17	     9.434
  42.660         60.00	     8.485
  42.680         60.83	     8.544
  42.700         77.50	     9.644
  42.720         61.67	     8.602
  42.740         66.67	     8.944
  42.760         55.00	     8.124
  42.780         65.00	     8.832
  42.800         59.17	     8.426
  42.820         71.67	     9.274
  42.840         57.50	     8.307
  42.860         50.83	     7.810
  42.880         59.17	     8.426
  42.900         52.50	     7.937
  42.920         59.17	     8.426
  42.940         60.83	     8.544
  42.960         59.17	     8.426
  42.980         65.00	     8.832
  43.000         65.00	     8.832
  43.020         66.67	     8.944
  43.040         64.17	     8.775
  43.060         65.83	     8.888
  43.080         73.33	     9.381
  43.100         56.67	     8.246
  43.120         51.67	     7.874
  43.140         55.83	     8.185
  43.160         52.50	     7.937
  43.180         60.00	     8.485
  43.200         70.83	     9.220
  43.220         62.50	     8.660
  43.240         69.17	     9.110
  43.260         73.33	     9.381
  43.280         61.67	     8.602
  43.300         81.67	     9.899
  43.320         69.17	     9.110
  43.340         80.00	     9.798
  43.360         86.67	    10.198
  43.380         72.50	     9.327
  43.400         86.67	    10.198
  43.420        100.83	    11.000
  43.440        120.00	    12.000
  43.460        145.00	    13.191
  43.480        128.33	    12.410
  43.500        131.67	    12.570
  43.520        135.00	    12.728
  43.540        112.50	    11.619
  43.560        139.17	    12.923
  43.580        135.00	    12.728
  43.600        135.00	    12.728
  43.620        116.67	    11.832
  43.640        127.50	    12.369
  43.660        127.50	    12.369
  43.680        160.00	    13.856
  43.700        143.33	    13.115
  43.720        120.00	    12.000
  43.740         75.83	     9.539
  43.760        111.67	    11.576
  43.780        110.00	    11.489
  43.800        115.83	    11.790
  43.820        114.17	    11.705
  43.840        120.00	    12.000
  43.860        118.33	    11.916
  43.880         99.17	    10.909
  43.900         91.67	    10.488
  43.920        112.50	    11.619
  43.940        107.50	    11.358
  43.960         90.83	    10.440
  43.980         98.33	    10.863
  44.000         95.83	    10.724
  44.020        115.83	    11.790
  44.040        129.17	    12.450
  44.060        138.33	    12.884
  44.080        137.50	    12.845
  44.100        144.17	    13.153
  44.120        122.50	    12.124
  44.140        156.67	    13.711
  44.160        154.17	    13.601
  44.180        160.00	    13.856
  44.200        192.50	    15.199
  44.220        205.00	    15.684
  44.240        204.17	    15.652
  44.260        218.33	    16.186
  44.280        225.83	    16.462
  44.300        236.67	    16.852
  44.320        227.50	    16.523
  44.340        230.83	    16.643
  44.360        270.83	    18.028
  44.380        277.50	    18.248
  44.400        240.00	    16.971
  44.420        311.67	    19.339
  44.440        285.83	    18.520
  44.460        295.00	    18.815
  44.480        277.50	    18.248
  44.500        277.50	    18.248
  44.520        277.50	    18.248
  44.540        271.67	    18.055
  44.560        254.17	    17.464
  44.580        238.33	    16.912
  44.600        247.50	    17.234
  44.620        214.17	    16.031
  44.640        215.00	    16.062
  44.660        193.33	    15.232
  44.680        187.50	    15.000
  44.700        153.33	    13.565
  44.720        147.50	    13.304
  44.740        156.67	    13.711
  44.760        155.83	    13.675
  44.780        141.67	    13.038
  44.800        135.00	    12.728
  44.820        122.50	    12.124
  44.840        137.50	    12.845
  44.860        129.17	    12.450
  44.880        134.17	    12.689
  44.900        139.17	    12.923
  44.920        115.83	    11.790
  44.940        104.17	    11.180
  44.960        109.17	    11.446
  44.980        107.50	    11.358
  45.000        109.17	    11.446
  45.020        107.50	    11.358
  45.040         94.17	    10.630
  45.060         98.33	    10.863
  45.080         81.67	     9.899
  45.100         83.33	    10.000
  45.120         88.33	    10.296
  45.140         80.00	     9.798
  45.160         75.00	     9.487
  45.180         93.33	    10.583
  45.200         75.83	     9.539
  45.220         73.33	     9.381
  45.240         90.00	    10.392
  45.260         76.67	     9.592
  45.280         85.83	    10.149
  45.300         83.33	    10.000
  45.320         75.83	     9.539
  45.340         75.00	     9.487
  45.360         92.50	    10.536
  45.380         98.33	    10.863
  45.400        100.83	    11.000
  45.420        103.33	    11.136
  45.440        109.17	    11.446
  45.460         88.33	    10.296
  45.480         98.33	    10.863
  45.500        102.50	    11.091
  45.520         98.33	    10.863
  45.540        103.33	    11.136
  45.560         96.67	    10.770
  45.580        100.83	    11.000
  45.600         89.17	    10.344
  45.620         76.67	     9.592
  45.640         72.50	     9.327
  45.660         99.17	    10.909
  45.680        130.83	    12.530
  45.700        110.00	    11.489
  45.720        142.50	    13.077
  45.740        124.17	    12.207
  45.760        108.33	    11.402
  45.780         90.83	    10.440
  45.800        104.17	    11.180
  45.820        109.17	    11.446
  45.840         93.33	    10.583
  45.860         82.50	     9.950
  45.880         79.17	     9.747
  45.900         84.17	    10.050
  45.920         65.00	     8.832
  45.940         68.33	     9.055
  45.960         75.83	     9.539
  45.980         73.33	     9.381
  46.000         61.67	     8.602
  46.020         55.83	     8.185
  46.040         61.67	     8.602
  46.060         46.67	     7.483
  46.080         63.33	     8.718
  46.100         61.67	     8.602
  46.120         54.17	     8.062
  46.140         49.17	     7.681
  46.160         53.33	     8.000
  46.180         55.83	     8.185
  46.200         40.00	     6.928
  46.220         43.33	     7.211
  46.240         39.17	     6.856
  46.260         49.17	     7.681
  46.280         30.00	     6.000
  46.300         40.83	     7.000
  46.320         46.67	     7.483
  46.340         38.33	     6.782
  46.360         50.00	     7.746
  46.380         40.00	     6.928
  46.400         36.67	     6.633
  46.420         40.00	     6.928
  46.440         29.17	     5.916
  46.460         33.33	     6.325
  46.480         36.67	     6.633
  46.500         35.00	     6.481
  46.520         43.33	     7.211
  46.540         49.17	     7.681
  46.560         38.33	     6.782
  46.580         34.17	     6.403
  46.600         39.17	     6.856
  46.620         39.17	     6.856
  46.640         33.33	     6.325
  46.660         48.33	     7.616
  46.680         36.67	     6.633
  46.700         42.50	     7.141
  46.720         46.67	     7.483
  46.740         29.17	     5.916
  46.760         37.50	     6.708
  46.780         38.33	     6.782
  46.800         45.83	     7.416
  46.820         32.50	     6.245
  46.840         35.00	     6.481
  46.860         33.33	     6.325
  46.880         37.50	     6.708
  46.900         41.67	     7.071
  46.920         30.00	     6.000
  46.940         49.17	     7.681
  46.960         35.00	     6.481
  46.980         50.00	     7.746
  47.000         40.83	     7.000
  47.020         35.00	     6.481
  47.040         35.83	     6.557
  47.060         55.00	     8.124
  47.080         52.50	     7.937
  47.100         50.83	     7.810
  47.120         50.83	     7.810
  47.140         38.33	     6.782
  47.160         42.50	     7.141
  47.180         50.83	     7.810
  47.200         55.83	     8.185
  47.220         55.00	     8.124
  47.240         49.17	     7.681
  47.260         54.17	     8.062
  47.280         39.17	     6.856
  47.300         37.50	     6.708
  47.320         40.00	     6.928
  47.340         45.00	     7.348
  47.360         46.67	     7.483
  47.380         40.83	     7.000
  47.400         35.83	     6.557
  47.420         32.50	     6.245
  47.440         41.67	     7.071
  47.460         39.17	     6.856
  47.480         36.67	     6.633
  47.500         31.67	     6.164
  47.520         49.17	     7.681
  47.540         40.00	     6.928
  47.560         32.50	     6.245
  47.580         39.17	     6.856
  47.600         35.83	     6.557
  47.620         26.67	     5.657
  47.640         40.83	     7.000
  47.660         36.67	     6.633
  47.680         41.67	     7.071
  47.700         36.67	     6.633
  47.720         34.17	     6.403
  47.740         28.33	     5.831
  47.760         35.83	     6.557
  47.780         34.17	     6.403
  47.800         35.83	     6.557
  47.820         35.83	     6.557
  47.840         56.67	     8.246
  47.860         38.33	     6.782
  47.880         55.00	     8.124
  47.900         52.50	     7.937
  47.920         55.00	     8.124
  47.940         46.67	     7.483
  47.960         37.50	     6.708
  47.980         43.33	     7.211
  48.000         48.33	     7.616
  48.020         49.17	     7.681
  48.040         59.17	     8.426
  48.060         70.83	     9.220
  48.080         75.83	     9.539
  48.100         50.00	     7.746
  48.120         62.50	     8.660
  48.140         63.33	     8.718
  48.160         66.67	     8.944
  48.180         68.33	     9.055
  48.200         75.00	     9.487
  48.220         53.33	     8.000
  48.240         60.00	     8.485
  48.260         55.83	     8.185
  48.280         65.83	     8.888
  48.300         66.67	     8.944
  48.320         41.67	     7.071
  48.340         56.67	     8.246
  48.360         62.50	     8.660
  48.380         67.50	     9.000
  48.400         91.67	    10.488
  48.420        106.67	    11.314
  48.440         68.33	     9.055
  48.460         65.83	     8.888
  48.480         63.33	     8.718
  48.500         50.00	     7.746
  48.520         67.50	     9.000
  48.540         70.83	     9.220
  48.560         85.00	    10.100
  48.580         70.00	     9.165
  48.600         50.00	     7.746
  48.620         52.50	     7.937
  48.640         45.83	     7.416
  48.660         44.17	     7.280
  48.680         53.33	     8.000
  48.700         43.33	     7.211
  48.720         37.50	     6.708
  48.740         43.33	     7.211
  48.760         53.33	     8.000
  48.780         42.50	     7.141
  48.800         39.17	     6.856
  48.820         50.00	     7.746
  48.840         43.33	     7.211
  48.860         44.17	     7.280
  48.880         39.17	     6.856
  48.900         47.50	     7.550
  48.920         44.17	     7.280
  48.940         48.33	     7.616
  48.960         59.17	     8.426
  48.980         49.17	     7.681
  49.000         49.17	     7.681
  49.020         58.33	     8.367
  49.040         54.17	     8.062
  49.060         40.00	     6.928
  49.080         53.33	     8.000
  49.100         54.17	     8.062
  49.120         56.67	     8.246
  49.140         57.50	     8.307
  49.160         68.33	     9.055
  49.180         49.17	     7.681
  49.200         55.83	     8.185
  49.220         53.33	     8.000
  49.240         57.50	     8.307
  49.260         55.83	     8.185
  49.280         55.83	     8.185
  49.300         40.00	     6.928
  49.320         42.50	     7.141
  49.340         36.67	     6.633
  49.360         40.83	     7.000
  49.380         30.00	     6.000
  49.400         35.83	     6.557
  49.420         38.33	     6.782
  49.440         42.50	     7.141
  49.460         36.67	     6.633
  49.480         54.17	     8.062
  49.500         45.83	     7.416
  49.520         48.33	     7.616
  49.540         42.50	     7.141
  49.560         43.33	     7.211
  49.580         45.83	     7.416
  49.600         47.50	     7.550
  49.620         47.50	     7.550
  49.640         41.67	     7.071
  49.660         41.67	     7.071
  49.680         58.33	     8.367
  49.700         61.67	     8.602
  49.720         70.83	     9.220
  49.740         75.83	     9.539
  49.760         67.50	     9.000
  49.780         74.17	     9.434
  49.800         80.83	     9.849
  49.820         67.50	     9.000
  49.840         85.00	    10.100
  49.860         72.50	     9.327
  49.880         82.50	     9.950
  49.900         90.00	    10.392
  49.920         74.17	     9.434
  49.940        106.67	    11.314
  49.960         92.50	    10.536
  49.980        125.83	    12.288
  50.000        163.33	    14.000
  50.020        247.50	    17.234
  50.040        332.50	    19.975
  50.060        369.17	    21.048
  50.080        350.00	    20.494
  50.100        232.50	    16.703
  50.120        177.50	    14.595
  50.140        150.83	    13.454
  50.160        158.33	    13.784
  50.180        206.67	    15.748
  50.200        205.83	    15.716
  50.220        190.00	    15.100
  50.240        122.50	    12.124
  50.260         99.17	    10.909
  50.280         74.17	     9.434
  50.300         76.67	     9.592
  50.320         70.83	     9.220
  50.340         65.83	     8.888
  50.360         56.67	     8.246
  50.380         64.17	     8.775
  50.400         47.50	     7.550
  50.420         65.83	     8.888
  50.440         69.17	     9.110
  50.460         75.83	     9.539
  50.480         87.50	    10.247
  50.500         94.17	    10.630
  50.520        105.83	    11.269
  50.540        131.67	    12.570
  50.560        104.17	    11.180
  50.580        128.33	    12.410
  50.600         76.67	     9.592
  50.620         70.83	     9.220
  50.640         90.83	    10.440
  50.660         73.33	     9.381
  50.680         91.67	    10.488
  50.700         96.67	    10.770
  50.720         90.83	    10.440
  50.740         75.83	     9.539
  50.760         63.33	     8.718
  50.780         57.50	     8.307
  50.800         61.67	     8.602
  50.820         59.17	     8.426
  50.840         62.50	     8.660
  50.860         53.33	     8.000
  50.880         46.67	     7.483
  50.900         55.00	     8.124
  50.920         38.33	     6.782
  50.940         38.33	     6.782
  50.960         50.83	     7.810
  50.980         56.67	     8.246
  51.000         47.50	     7.550
  51.020         62.50	     8.660
  51.040         78.33	     9.695
  51.060         76.67	     9.592
  51.080         69.17	     9.110
  51.100         63.33	     8.718
  51.120         58.33	     8.367
  51.140         62.50	     8.660
  51.160         63.33	     8.718
  51.180         71.67	     9.274
  51.200         64.17	     8.775
  51.220         60.00	     8.485
  51.240         58.33	     8.367
  51.260         58.33	     8.367
  51.280         50.00	     7.746
  51.300         53.33	     8.000
  51.320         40.83	     7.000
  51.340         31.67	     6.164
  51.360         43.33	     7.211
  51.380         51.67	     7.874
  51.400         40.83	     7.000
  51.420         38.33	     6.782
  51.440         35.83	     6.557
  51.460         44.17	     7.280
  51.480         41.67	     7.071
  51.500         38.33	     6.782
  51.520         40.00	     6.928
  51.540         34.17	     6.403
  51.560         48.33	     7.616
  51.580         36.67	     6.633
  51.600         34.17	     6.403
  51.620         38.33	     6.782
  51.640         27.50	     5.745
  51.660         36.67	     6.633
  51.680         39.17	     6.856
  51.700         30.83	     6.083
  51.720         36.67	     6.633
  51.740         27.50	     5.745
  51.760         30.00	     6.000
  51.780         26.67	     5.657
  51.800         36.67	     6.633
  51.820         25.83	     5.568
  51.840         34.17	     6.403
  51.860         33.33	     6.325
  51.880         26.67	     5.657
  51.900         31.67	     6.164
  51.920         32.50	     6.245
  51.940         30.83	     6.083
  51.960         40.00	     6.928
  51.980         30.00	     6.000
  52.000         40.00	     6.928
  52.020         47.50	     7.550
  52.040         56.67	     8.246
  52.060         55.00	     8.124
  52.080         55.00	     8.124
  52.100         55.83	     8.185
  52.120         45.83	     7.416
  52.140         39.17	     6.856
  52.160         38.33	     6.782
  52.180         53.33	     8.000
  52.200         47.50	     7.550
  52.220         46.67	     7.483
  52.240         50.83	     7.810
  52.260         51.67	     7.874
  52.280         45.00	     7.348
  52.300         36.67	     6.633
  52.320         48.33	     7.616
  52.340         48.33	     7.616
  52.360         43.33	     7.211
  52.380         48.33	     7.616
  52.400         53.33	     8.000
  52.420         48.33	     7.616
  52.440         40.83	     7.000
  52.460         45.00	     7.348
  52.480         42.50	     7.141
  52.500         39.17	     6.856
  52.520         38.33	     6.782
  52.540         50.83	     7.810
  52.560         36.67	     6.633
  52.580         46.67	     7.483
  52.600         40.83	     7.000
  52.620         39.17	     6.856
  52.640         36.67	     6.633
  52.660         40.83	     7.000
  52.680         45.00	     7.348
  52.700         42.50	     7.141
  52.720         37.50	     6.708
  52.740         39.17	     6.856
  52.760         53.33	     8.000
  52.780         49.17	     7.681
  52.800         38.33	     6.782
  52.820         48.33	     7.616
  52.840         44.17	     7.280
  52.860         49.17	     7.681
  52.880         44.17	     7.280
  52.900         45.00	     7.348
  52.920         45.83	     7.416
  52.940         45.83	     7.416
  52.960         45.83	     7.416
  52.980         35.00	     6.481
  53.000         41.67	     7.071
  53.020         46.67	     7.483
  53.040         49.17	     7.681
  53.060         55.00	     8.124
  53.080         44.17	     7.280
  53.100         59.17	     8.426
  53.120         40.00	     6.928
  53.140         55.00	     8.124
  53.160         47.50	     7.550
  53.180         59.17	     8.426
  53.200         60.83	     8.544
  53.220         59.17	     8.426
  53.240         55.83	     8.185
  53.260         48.33	     7.616
  53.280         51.67	     7.874
  53.300         43.33	     7.211
  53.320         45.83	     7.416
  53.340         57.50	     8.307
  53.360         44.17	     7.280
  53.380         44.17	     7.280
  53.400         40.83	     7.000
  53.420         47.50	     7.550
  53.440         33.33	     6.325
  53.460         37.50	     6.708
  53.480         41.67	     7.071
  53.500         43.33	     7.211
  53.520         37.50	     6.708
  53.540         40.00	     6.928
  53.560         40.00	     6.928
  53.580         38.33	     6.782
  53.600         36.67	     6.633
  53.620         35.83	     6.557
  53.640         54.17	     8.062
  53.660         40.00	     6.928
  53.680         39.17	     6.856
  53.700         30.83	     6.083
  53.720         30.83	     6.083
  53.740         35.83	     6.557
  53.760         44.17	     7.280
  53.780         44.17	     7.280
  53.800         37.50	     6.708
  53.820         39.17	     6.856
  53.840         31.67	     6.164
  53.860         37.50	     6.708
  53.880         25.83	     5.568
  53.900         30.83	     6.083
  53.920         35.83	     6.557
  53.940         37.50	     6.708
  53.960         50.00	     7.746
  53.980         49.17	     7.681
  54.000         41.67	     7.071
  54.020         47.50	     7.550
  54.040         38.33	     6.782
  54.060         49.17	     7.681
  54.080         35.00	     6.481
  54.100         52.50	     7.937
  54.120         38.33	     6.782
  54.140         51.67	     7.874
  54.160         50.83	     7.810
  54.180         37.50	     6.708
  54.200         38.33	     6.782
  54.220         48.33	     7.616
  54.240         48.33	     7.616
  54.260         47.50	     7.550
  54.280         52.50	     7.937
  54.300         49.17	     7.681
  54.320         45.83	     7.416
  54.340         47.50	     7.550
  54.360         42.50	     7.141
  54.380         45.83	     7.416
  54.400         47.50	     7.550
  54.420         38.33	     6.782
  54.440         36.67	     6.633
  54.460         41.67	     7.071
  54.480         48.33	     7.616
  54.500         53.33	     8.000
  54.520         47.50	     7.550
  54.540         36.67	     6.633
  54.560         44.17	     7.280
  54.580         47.50	     7.550
  54.600         41.67	     7.071
  54.620         42.50	     7.141
  54.640         57.50	     8.307
  54.660         63.33	     8.718
  54.680         65.83	     8.888
  54.700         90.00	    10.392
  54.720         96.67	    10.770
  54.740        128.33	    12.410
  54.760        125.00	    12.247
  54.780        160.00	    13.856
  54.800        179.17	    14.663
  54.820        210.83	    15.906
  54.840        169.17	    14.248
  54.860        122.50	    12.124
  54.880        101.67	    11.045
  54.900        101.67	    11.045
  54.920        101.67	    11.045
  54.940        107.50	    11.358
  54.960        123.33	    12.166
  54.980        121.67	    12.083
  55.000         80.83	     9.849
  55.020         56.67	     8.246
  55.040         53.33	     8.000
  55.060         48.33	     7.616
  55.080         47.50	     7.550
  55.100         52.50	     7.937
  55.120         52.50	     7.937
  55.140         48.33	     7.616
  55.160         45.83	     7.416
  55.180         54.17	     8.062
  55.200         69.17	     9.110
  55.220         83.33	    10.000
  55.240         99.17	    10.909
  55.260        107.50	    11.358
  55.280         85.83	    10.149
  55.300         68.33	     9.055
  55.320         60.00	     8.485
  55.340         48.33	     7.616
  55.360         53.33	     8.000
  55.380         57.50	     8.307
  55.400         72.50	     9.327
  55.420         70.00	     9.165
  55.440         47.50	     7.550
  55.460         52.50	     7.937
  55.480         40.00	     6.928
  55.500         49.17	     7.681
  55.520         41.67	     7.071
  55.540         50.83	     7.810
  55.560         55.00	     8.124
  55.580         60.00	     8.485
  55.600         70.00	     9.165
  55.620         62.50	     8.660
  55.640         64.17	     8.775
  55.660         62.50	     8.660
  55.680         64.17	     8.775
  55.700         56.67	     8.246
  55.720         60.83	     8.544
  55.740         45.00	     7.348
  55.760         55.83	     8.185
  55.780         56.67	     8.246
  55.800         55.00	     8.124
  55.820         50.83	     7.810
  55.840         60.00	     8.485
  55.860         54.17	     8.062
  55.880         60.00	     8.485
  55.900         60.00	     8.485
  55.920         49.17	     7.681
  55.940         50.00	     7.746
  55.960         58.33	     8.367
  55.980         46.67	     7.483
  56.000         45.83	     7.416
  56.020         54.17	     8.062
  56.040         55.00	     8.124
  56.060         45.00	     7.348
  56.080         60.83	     8.544
  56.100         48.33	     7.616
  56.120         45.83	     7.416
  56.140         46.67	     7.483
  56.160         37.50	     6.708
  56.180         45.00	     7.348
  56.200         46.67	     7.483
  56.220         45.00	     7.348
  56.240         56.67	     8.246
  56.260         28.33	     5.831
  56.280         42.50	     7.141
  56.300         37.50	     6.708
  56.320         43.33	     7.211
  56.340         34.17	     6.403
  56.360         35.83	     6.557
  56.380         35.00	     6.481
  56.400         37.50	     6.708
  56.420         34.17	     6.403
  56.440         45.00	     7.348
  56.460         37.50	     6.708
  56.480         35.00	     6.481
  56.500         30.83	     6.083
  56.520         30.83	     6.083
  56.540         42.50	     7.141
  56.560         49.17	     7.681
  56.580         37.50	     6.708
  56.600         39.17	     6.856
  56.620         43.33	     7.211
  56.640         55.83	     8.185
  56.660         36.67	     6.633
  56.680         45.00	     7.348
  56.700         45.83	     7.416
  56.720         44.17	     7.280
  56.740         45.83	     7.416
  56.760         45.00	     7.348
  56.780         51.67	     7.874
  56.800         38.33	     6.782
  56.820         61.67	     8.602
  56.840         65.83	     8.888
  56.860         70.83	     9.220
  56.880         61.67	     8.602
  56.900         55.83	     8.185
  56.920         55.83	     8.185
  56.940         49.17	     7.681
  56.960         43.33	     7.211
  56.980         44.17	     7.280
  57.000         56.67	     8.246
  57.020         66.67	     8.944
  57.040         61.67	     8.602
  57.060         53.33	     8.000
  57.080         51.67	     7.874
  57.100         39.17	     6.856
  57.120         48.33	     7.616
  57.140         47.50	     7.550
  57.160         55.00	     8.124
  57.180         59.17	     8.426
  57.200         53.33	     8.000
  57.220         57.50	     8.307
  57.240         38.33	     6.782
  57.260         43.33	     7.211
  57.280         37.50	     6.708
  57.300         32.50	     6.245
  57.320         48.33	     7.616
  57.340         36.67	     6.633
  57.360         33.33	     6.325
  57.380         46.67	     7.483
  57.400         36.67	     6.633
  57.420         35.00	     6.481
  57.440         28.33	     5.831
  57.460         34.17	     6.403
  57.480         31.67	     6.164
  57.500         30.00	     6.000
  57.520         40.00	     6.928
  57.540         35.00	     6.481
  57.560         33.33	     6.325
  57.580         39.17	     6.856
  57.600         40.83	     7.000
  57.620         44.17	     7.280
  57.640         47.50	     7.550
  57.660         28.33	     5.831
  57.680         50.83	     7.810
  57.700         45.00	     7.348
  57.720         32.50	     6.245
  57.740         35.83	     6.557
  57.760         48.33	     7.616
  57.780         40.00	     6.928
  57.800         30.00	     6.000
  57.820         48.33	     7.616
  57.840         48.33	     7.616
  57.860         30.83	     6.083
  57.880         44.17	     7.280
  57.900         41.67	     7.071
  57.920         43.33	     7.211
  57.940         40.83	     7.000
  57.960         39.17	     6.856
  57.980         44.17	     7.280
  58.000         39.17	     6.856
  58.020         34.17	     6.403
  58.040         30.83	     6.083
  58.060         44.17	     7.280
  58.080         41.67	     7.071
  58.100         45.00	     7.348
  58.120         40.00	     6.928
  58.140         35.00	     6.481
  58.160         36.67	     6.633
  58.180         32.50	     6.245
  58.200         45.83	     7.416
  58.220         37.50	     6.708
  58.240         48.33	     7.616
  58.260         32.50	     6.245
  58.280         38.33	     6.782
  58.300         29.17	     5.916
  58.320         46.67	     7.483
  58.340         49.17	     7.681
  58.360         35.83	     6.557
  58.380         42.50	     7.141
  58.400         50.83	     7.810
  58.420         44.17	     7.280
  58.440         59.17	     8.426
  58.460         58.33	     8.367
  58.480         84.17	    10.050
  58.500        101.67	    11.045
  58.520        105.83	    11.269
  58.540         80.83	     9.849
  58.560         74.17	     9.434
  58.580         61.67	     8.602
  58.600         52.50	     7.937
  58.620         59.17	     8.426
  58.640         60.83	     8.544
  58.660         74.17	     9.434
  58.680         73.33	     9.381
  58.700         65.83	     8.888
  58.720         61.67	     8.602
  58.740         57.50	     8.307
  58.760         51.67	     7.874
  58.780         57.50	     8.307
  58.800         46.67	     7.483
  58.820         43.33	     7.211
  58.840         44.17	     7.280
  58.860         43.33	     7.211
  58.880         45.83	     7.416
  58.900         48.33	     7.616
  58.920         59.17	     8.426
  58.940         48.33	     7.616
  58.960         47.50	     7.550
  58.980         44.17	     7.280
  59.000         50.83	     7.810
  59.020         49.17	     7.681
  59.040         63.33	     8.718
  59.060         50.83	     7.810
  59.080         57.50	     8.307
  59.100         65.83	     8.888
  59.120         46.67	     7.483
  59.140         62.50	     8.660
  59.160         66.67	     8.944
  59.180         47.50	     7.550
  59.200         41.67	     7.071
  59.220         46.67	     7.483
  59.240         48.33	     7.616
  59.260         58.33	     8.367
  59.280         44.17	     7.280
  59.300         48.33	     7.616
  59.320         41.67	     7.071
  59.340         55.00	     8.124
  59.360         44.17	     7.280
  59.380         40.83	     7.000
  59.400         43.33	     7.211
  59.420         38.33	     6.782
  59.440         45.83	     7.416
  59.460         49.17	     7.681
  59.480         45.83	     7.416
  59.500         39.17	     6.856
  59.520         45.83	     7.416
  59.540         56.67	     8.246
  59.560         52.50	     7.937
  59.580         38.33	     6.782
  59.600         51.67	     7.874
  59.620         60.00	     8.485
  59.640         55.83	     8.185
  59.660         55.83	     8.185
  59.680         60.83	     8.544
  59.700         50.00	     7.746
  59.720         64.17	     8.775
  59.740         69.17	     9.110
  59.760         76.67	     9.592
  59.780        106.67	    11.314
  59.800        128.33	    12.410
  59.820        165.00	    14.071
  59.840        232.50	    16.703
  59.860        370.83	    21.095
  59.880        410.00	    22.181
  59.900        402.50	    21.977
  59.920        302.50	    19.053
  59.940        205.83	    15.716
  59.960        156.67	    13.711
  59.980        117.50	    11.874
  60.000        170.83	    14.318
  60.020        209.17	    15.843
  60.040        247.50	    17.234
  60.060        249.17	    17.292
  60.080        195.00	    15.297
  60.100        141.67	    13.038
  60.120         99.17	    10.909
  60.140         62.50	     8.660
  60.160         77.50	     9.644
  60.180         72.50	     9.327
  60.200         62.50	     8.660
  60.220         64.17	     8.775
  60.240         55.83	     8.185
  60.260         56.67	     8.246
  60.280         47.50	     7.550
  60.300         55.83	     8.185
  60.320         51.67	     7.874
  60.340         56.67	     8.246
  60.360         49.17	     7.681
  60.380         50.00	     7.746
  60.400         51.67	     7.874
  60.420         45.83	     7.416
  60.440         60.00	     8.485
  60.460         63.33	     8.718
  60.480         39.17	     6.856
  60.500         55.83	     8.185
  60.520         49.17	     7.681
  60.540         50.00	     7.746
  60.560         54.17	     8.062
  60.580         50.83	     7.810
  60.600         50.00	     7.746
  60.620         48.33	     7.616
  60.640         51.67	     7.874
  60.660         42.50	     7.141
  60.680         50.83	     7.810
  60.700         51.67	     7.874
  60.720         50.83	     7.810
  60.740         57.50	     8.307
  60.760         47.50	     7.550
  60.780         50.83	     7.810
  60.800         51.67	     7.874
  60.820         47.50	     7.550
  60.840         44.17	     7.280
  60.860         55.00	     8.124
  60.880         49.17	     7.681
  60.900         52.50	     7.937
  60.920         46.67	     7.483
  60.940         50.00	     7.746
  60.960         37.50	     6.708
  60.980         50.83	     7.810
  61.000         51.67	     7.874
  61.020         47.50	     7.550
  61.040         48.33	     7.616
  61.060         45.00	     7.348
  61.080         40.83	     7.000
  61.100         52.50	     7.937
  61.120         44.17	     7.280
  61.140         35.83	     6.557
  61.160         44.17	     7.280
  61.180         48.33	     7.616
  61.200         50.83	     7.810
  61.220         41.67	     7.071
  61.240         74.17	     9.434
  61.260         52.50	     7.937
  61.280         65.00	     8.832
  61.300         57.50	     8.307
  61.320         41.67	     7.071
  61.340         53.33	     8.000
  61.360         85.83	    10.149
  61.380         63.33	     8.718
  61.400         63.33	     8.718
  61.420         60.83	     8.544
  61.440         75.83	     9.539
  61.460         71.67	     9.274
  61.480         62.50	     8.660
  61.500         69.17	     9.110
  61.520         72.50	     9.327
  61.540         70.83	     9.220
  61.560         75.83	     9.539
  61.580         60.83	     8.544
  61.600         65.00	     8.832
  61.620         60.83	     8.544
  61.640         80.83	     9.849
  61.660         89.17	    10.344
  61.680         66.67	     8.944
  61.700         70.00	     9.165
  61.720         81.67	     9.899
  61.740         55.00	     8.124
  61.760         53.33	     8.000
  61.780         61.67	     8.602
  61.800         60.83	     8.544
  61.820         61.67	     8.602
  61.840         69.17	     9.110
  61.860         65.00	     8.832
  61.880         66.67	     8.944
  61.900         54.17	     8.062
  61.920         55.00	     8.124
  61.940         60.83	     8.544
  61.960         51.67	     7.874
  61.980         40.83	     7.000
  62.000         50.00	     7.746
  62.020         52.50	     7.937
  62.040         42.50	     7.141
  62.060         45.00	     7.348
  62.080         39.17	     6.856
  62.100         45.00	     7.348
  62.120         35.83	     6.557
  62.140         40.00	     6.928
  62.160         38.33	     6.782
  62.180         35.83	     6.557
  62.200         30.00	     6.000
  62.220         36.67	     6.633
  62.240         30.00	     6.000
  62.260         31.67	     6.164
  62.280         36.67	     6.633
  62.300         45.83	     7.416
  62.320         35.00	     6.481
  62.340         38.33	     6.782
  62.360         39.17	     6.856
  62.380         35.83	     6.557
  62.400         37.50	     6.708
  62.420         46.67	     7.483
  62.440         50.83	     7.810
  62.460         55.00	     8.124
  62.480         55.83	     8.185
  62.500         81.67	     9.899
  62.520        110.00	    11.489
  62.540         95.83	    10.724
  62.560         99.17	    10.909
  62.580         56.67	     8.246
  62.600         52.50	     7.937
  62.620         45.83	     7.416
  62.640         56.67	     8.246
  62.660         59.17	     8.426
  62.680         65.83	     8.888
  62.700         77.50	     9.644
  62.720         64.17	     8.775
  62.740         60.00	     8.485
  62.760         48.33	     7.616
  62.780         50.00	     7.746
  62.800         37.50	     6.708
  62.820         37.50	     6.708
  62.840         44.17	     7.280
  62.860         45.00	     7.348
  62.880         31.67	     6.164
  62.900         30.83	     6.083
  62.920         27.50	     5.745
  62.940         39.17	     6.856
  62.960         38.33	     6.782
  62.980         34.17	     6.403
  63.000         40.83	     7.000
  63.020         41.67	     7.071
  63.040         37.50	     6.708
  63.060         37.50	     6.708
  63.080         32.50	     6.245
  63.100         28.33	     5.831
  63.120         40.00	     6.928
  63.140         45.83	     7.416
  63.160         34.17	     6.403
  63.180         44.17	     7.280
  63.200         32.50	     6.245
  63.220         33.33	     6.325
  63.240         40.83	     7.000
  63.260         38.33	     6.782
  63.280         43.33	     7.211
  63.300         47.50	     7.550
  63.320         43.33	     7.211
  63.340         48.33	     7.616
  63.360         37.50	     6.708
  63.380         38.33	     6.782
  63.400         49.17	     7.681
  63.420         45.83	     7.416
  63.440         43.33	     7.211
  63.460         39.17	     6.856
  63.480         44.17	     7.280
  63.500         40.00	     6.928
  63.520         49.17	     7.681
  63.540         39.17	     6.856
  63.560         40.83	     7.000
  63.580         43.33	     7.211
  63.600         60.00	     8.485
  63.620         52.50	     7.937
  63.640         36.67	     6.633
  63.660         51.67	     7.874
  63.680         60.83	     8.544
  63.700         53.33	     8.000
  63.720         41.67	     7.071
  63.740         46.67	     7.483
  63.760         54.17	     8.062
  63.780         54.17	     8.062
  63.800         51.67	     7.874
  63.820         51.67	     7.874
  63.840         50.83	     7.810
  63.860         55.00	     8.124
  63.880         64.17	     8.775
  63.900         62.50	     8.660
  63.920         79.17	     9.747
  63.940         90.83	    10.440
  63.960         97.50	    10.817
  63.980         78.33	     9.695
  64.000        113.33	    11.662
  64.020         67.50	     9.000
  64.040         51.67	     7.874
  64.060         59.17	     8.426
  64.080         55.83	     8.185
  64.100         64.17	     8.775
  64.120         81.67	     9.899
  64.140         70.00	     9.165
  64.160         67.50	     9.000
  64.180         65.00	     8.832
  64.200         56.67	     8.246
  64.220         67.50	     9.000
  64.240         43.33	     7.211
  64.260         50.83	     7.810
  64.280         51.67	     7.874
  64.300         57.50	     8.307
  64.320         30.83	     6.083
  64.340         45.00	     7.348
  64.360         45.00	     7.348
  64.380         43.33	     7.211
  64.400         50.00	     7.746
  64.420         38.33	     6.782
  64.440         50.83	     7.810
  64.460         47.50	     7.550
  64.480         50.00	     7.746
  64.500         48.33	     7.616
  64.520         49.17	     7.681
  64.540         55.83	     8.185
  64.560         47.50	     7.550
  64.580         50.83	     7.810
  64.600         40.00	     6.928
  64.620         48.33	     7.616
  64.640         48.33	     7.616
  64.660         48.33	     7.616
  64.680         55.83	     8.185
  64.700         59.17	     8.426
  64.720         51.67	     7.874
  64.740         40.00	     6.928
  64.760         59.17	     8.426
  64.780         57.50	     8.307
  64.800         51.67	     7.874
  64.820         47.50	     7.550
  64.840         69.17	     9.110
  64.860         60.83	     8.544
  64.880         52.50	     7.937
  64.900         38.33	     6.782
  64.920         54.17	     8.062
  64.940         51.67	     7.874
  64.960         47.50	     7.550
  64.980         48.33	     7.616
  65.000         49.17	     7.681
