
Filename:
	C:\Program Files\Thermo Electron\WinXRD\Datafiles\F_HERMAN\GEO\G51_RT.raw

File Created:
	February 19, 2020 - 12:25 AM

Specimen Id:
	G51_RT

Specimen Name:
	

Specimen Description:
	

Comment:
Scan Type: 2Theta Scan
Start Angle: 3 deg.
Stop Angle: 65 deg.
Num Points: 3101
Step Size: 0.02 deg.
Scan Rate: 1.000000
Scan Mode: Continuous
Wavelength: 1.540562
\Kalpha1: 1.540562	\Kalpha2: 1.544390	\Kbeta: 1.392218

Optics:
		Detector:
			 Type: Fixed Slits
		Tube: 
			 Type: Fixed Slits


Datas:
 Pos [deg]       Rate [CPS]      ESD [-]

Range 1 ---> Iteration 1
   3.000        439.17	    22.956
   3.020        397.50	    21.840
   3.040        416.67	    22.361
   3.060        417.50	    22.383
   3.080        443.33	    23.065
   3.100        437.50	    22.913
   3.120        440.83	    23.000
   3.140        426.67	    22.627
   3.160        434.17	    22.825
   3.180        406.67	    22.091
   3.200        432.50	    22.782
   3.220        366.67	    20.976
   3.240        413.33	    22.271
   3.260        418.33	    22.405
   3.280        445.83	    23.130
   3.300        407.50	    22.113
   3.320        400.00	    21.909
   3.340        375.83	    21.237
   3.360        375.83	    21.237
   3.380        382.50	    21.424
   3.400        390.83	    21.656
   3.420        374.17	    21.190
   3.440        380.00	    21.354
   3.460        405.00	    22.045
   3.480        399.17	    21.886
   3.500        363.33	    20.881
   3.520        378.33	    21.307
   3.540        360.83	    20.809
   3.560        383.33	    21.448
   3.580        366.67	    20.976
   3.600        364.17	    20.905
   3.620        354.17	    20.616
   3.640        370.00	    21.071
   3.660        346.67	    20.396
   3.680        353.33	    20.591
   3.700        350.00	    20.494
   3.720        350.83	    20.518
   3.740        347.50	    20.421
   3.760        327.50	    19.824
   3.780        333.33	    20.000
   3.800        328.33	    19.849
   3.820        317.50	    19.519
   3.840        345.00	    20.347
   3.860        314.17	    19.416
   3.880        312.50	    19.365
   3.900        340.83	    20.224
   3.920        302.50	    19.053
   3.940        312.50	    19.365
   3.960        314.17	    19.416
   3.980        295.83	    18.841
   4.000        318.33	    19.545
   4.020        297.50	    18.894
   4.040        301.67	    19.026
   4.060        303.33	    19.079
   4.080        285.83	    18.520
   4.100        303.33	    19.079
   4.120        306.67	    19.183
   4.140        295.83	    18.841
   4.160        300.00	    18.974
   4.180        285.83	    18.520
   4.200        308.33	    19.235
   4.220        283.33	    18.439
   4.240        283.33	    18.439
   4.260        288.33	    18.601
   4.280        278.33	    18.276
   4.300        267.50	    17.916
   4.320        306.67	    19.183
   4.340        270.83	    18.028
   4.360        276.67	    18.221
   4.380        312.50	    19.365
   4.400        262.50	    17.748
   4.420        270.83	    18.028
   4.440        307.50	    19.209
   4.460        290.83	    18.682
   4.480        288.33	    18.601
   4.500        246.67	    17.205
   4.520        244.17	    17.117
   4.540        290.83	    18.682
   4.560        273.33	    18.111
   4.580        284.17	    18.466
   4.600        268.33	    17.944
   4.620        259.17	    17.635
   4.640        255.83	    17.521
   4.660        261.67	    17.720
   4.680        265.83	    17.861
   4.700        262.50	    17.748
   4.720        256.67	    17.550
   4.740        263.33	    17.776
   4.760        264.17	    17.804
   4.780        260.83	    17.692
   4.800        246.67	    17.205
   4.820        266.67	    17.889
   4.840        265.00	    17.833
   4.860        247.50	    17.234
   4.880        232.50	    16.703
   4.900        222.50	    16.340
   4.920        225.83	    16.462
   4.940        216.67	    16.125
   4.960        250.83	    17.349
   4.980        238.33	    16.912
   5.000        220.00	    16.248
   5.020        250.83	    17.349
   5.040        240.83	    17.000
   5.060        235.83	    16.823
   5.080        223.33	    16.371
   5.100        247.50	    17.234
   5.120        247.50	    17.234
   5.140        221.67	    16.310
   5.160        239.17	    16.941
   5.180        222.50	    16.340
   5.200        237.50	    16.882
   5.220        240.83	    17.000
   5.240        210.83	    15.906
   5.260        237.50	    16.882
   5.280        253.33	    17.436
   5.300        228.33	    16.553
   5.320        236.67	    16.852
   5.340        227.50	    16.523
   5.360        228.33	    16.553
   5.380        222.50	    16.340
   5.400        221.67	    16.310
   5.420        212.50	    15.969
   5.440        214.17	    16.031
   5.460        202.50	    15.588
   5.480        208.33	    15.811
   5.500        233.33	    16.733
   5.520        201.67	    15.556
   5.540        195.83	    15.330
   5.560        232.50	    16.703
   5.580        231.67	    16.673
   5.600        228.33	    16.553
   5.620        220.00	    16.248
   5.640        189.17	    15.067
   5.660        195.00	    15.297
   5.680        196.67	    15.362
   5.700        232.50	    16.703
   5.720        204.17	    15.652
   5.740        206.67	    15.748
   5.760        222.50	    16.340
   5.780        190.83	    15.133
   5.800        216.67	    16.125
   5.820        204.17	    15.652
   5.840        233.33	    16.733
   5.860        215.83	    16.093
   5.880        202.50	    15.588
   5.900        229.17	    16.583
   5.920        178.33	    14.629
   5.940        216.67	    16.125
   5.960        213.33	    16.000
   5.980        214.17	    16.031
   6.000        225.00	    16.432
   6.020        205.83	    15.716
   6.040        251.67	    17.378
   6.060        230.00	    16.613
   6.080        258.33	    17.607
   6.100        266.67	    17.889
   6.120        274.17	    18.138
   6.140        232.50	    16.703
   6.160        237.50	    16.882
   6.180        223.33	    16.371
   6.200        205.83	    15.716
   6.220        191.67	    15.166
   6.240        211.67	    15.937
   6.260        196.67	    15.362
   6.280        212.50	    15.969
   6.300        180.83	    14.731
   6.320        189.17	    15.067
   6.340        182.50	    14.799
   6.360        180.00	    14.697
   6.380        195.00	    15.297
   6.400        194.17	    15.264
   6.420        179.17	    14.663
   6.440        146.67	    13.266
   6.460        158.33	    13.784
   6.480        180.83	    14.731
   6.500        193.33	    15.232
   6.520        180.83	    14.731
   6.540        183.33	    14.832
   6.560        177.50	    14.595
   6.580        164.17	    14.036
   6.600        195.83	    15.330
   6.620        180.00	    14.697
   6.640        185.00	    14.900
   6.660        191.67	    15.166
   6.680        151.67	    13.491
   6.700        180.83	    14.731
   6.720        183.33	    14.832
   6.740        188.33	    15.033
   6.760        183.33	    14.832
   6.780        165.00	    14.071
   6.800        165.83	    14.107
   6.820        160.83	    13.892
   6.840        191.67	    15.166
   6.860        148.33	    13.342
   6.880        160.00	    13.856
   6.900        176.67	    14.560
   6.920        177.50	    14.595
   6.940        159.17	    13.820
   6.960        157.50	    13.748
   6.980        169.17	    14.248
   7.000        185.00	    14.900
   7.020        151.67	    13.491
   7.040        157.50	    13.748
   7.060        170.00	    14.283
   7.080        170.00	    14.283
   7.100        160.83	    13.892
   7.120        155.00	    13.638
   7.140        160.00	    13.856
   7.160        165.00	    14.071
   7.180        156.67	    13.711
   7.200        172.50	    14.387
   7.220        165.00	    14.071
   7.240        149.17	    13.379
   7.260        146.67	    13.266
   7.280        185.00	    14.900
   7.300        171.67	    14.353
   7.320        169.17	    14.248
   7.340        175.00	    14.491
   7.360        166.67	    14.142
   7.380        148.33	    13.342
   7.400        160.83	    13.892
   7.420        168.33	    14.213
   7.440        152.50	    13.528
   7.460        166.67	    14.142
   7.480        140.83	    13.000
   7.500        125.00	    12.247
   7.520        164.17	    14.036
   7.540        152.50	    13.528
   7.560        131.67	    12.570
   7.580        160.00	    13.856
   7.600        147.50	    13.304
   7.620        160.00	    13.856
   7.640        172.50	    14.387
   7.660        152.50	    13.528
   7.680        142.50	    13.077
   7.700        147.50	    13.304
   7.720        163.33	    14.000
   7.740        125.83	    12.288
   7.760        140.00	    12.961
   7.780        143.33	    13.115
   7.800        145.83	    13.229
   7.820        135.83	    12.767
   7.840        140.83	    13.000
   7.860        147.50	    13.304
   7.880        145.00	    13.191
   7.900        152.50	    13.528
   7.920        131.67	    12.570
   7.940        135.83	    12.767
   7.960        137.50	    12.845
   7.980        155.00	    13.638
   8.000        134.17	    12.689
   8.020        140.00	    12.961
   8.040        130.83	    12.530
   8.060        142.50	    13.077
   8.080        130.00	    12.490
   8.100        131.67	    12.570
   8.120        145.83	    13.229
   8.140        135.00	    12.728
   8.160        132.50	    12.610
   8.180        136.67	    12.806
   8.200        133.33	    12.649
   8.220        135.00	    12.728
   8.240        134.17	    12.689
   8.260        135.83	    12.767
   8.280        150.83	    13.454
   8.300        144.17	    13.153
   8.320        160.00	    13.856
   8.340        149.17	    13.379
   8.360        138.33	    12.884
   8.380        144.17	    13.153
   8.400        158.33	    13.784
   8.420        164.17	    14.036
   8.440        162.50	    13.964
   8.460        150.83	    13.454
   8.480        135.00	    12.728
   8.500        163.33	    14.000
   8.520        155.00	    13.638
   8.540        156.67	    13.711
   8.560        174.17	    14.457
   8.580        163.33	    14.000
   8.600        178.33	    14.629
   8.620        170.83	    14.318
   8.640        190.00	    15.100
   8.660        231.67	    16.673
   8.680        240.00	    16.971
   8.700        233.33	    16.733
   8.720        265.83	    17.861
   8.740        300.00	    18.974
   8.760        334.17	    20.025
   8.780        415.00	    22.316
   8.800        471.67	    23.791
   8.820        375.00	    21.213
   8.840        245.83	    17.176
   8.860        171.67	    14.353
   8.880        167.50	    14.177
   8.900        146.67	    13.266
   8.920        155.00	    13.638
   8.940        136.67	    12.806
   8.960        150.00	    13.416
   8.980        137.50	    12.845
   9.000        138.33	    12.884
   9.020        126.67	    12.329
   9.040        144.17	    13.153
   9.060        137.50	    12.845
   9.080        125.00	    12.247
   9.100        141.67	    13.038
   9.120        135.00	    12.728
   9.140        116.67	    11.832
   9.160        112.50	    11.619
   9.180        134.17	    12.689
   9.200         95.83	    10.724
   9.220        145.00	    13.191
   9.240        117.50	    11.874
   9.260        140.83	    13.000
   9.280        121.67	    12.083
   9.300        123.33	    12.166
   9.320        141.67	    13.038
   9.340        158.33	    13.784
   9.360        170.83	    14.318
   9.380        155.83	    13.675
   9.400        136.67	    12.806
   9.420        118.33	    11.916
   9.440        112.50	    11.619
   9.460        129.17	    12.450
   9.480        127.50	    12.369
   9.500        125.83	    12.288
   9.520        108.33	    11.402
   9.540         97.50	    10.817
   9.560        125.83	    12.288
   9.580        113.33	    11.662
   9.600        138.33	    12.884
   9.620        123.33	    12.166
   9.640        123.33	    12.166
   9.660        120.00	    12.000
   9.680        101.67	    11.045
   9.700        127.50	    12.369
   9.720        123.33	    12.166
   9.740        115.00	    11.747
   9.760        106.67	    11.314
   9.780        100.00	    10.954
   9.800        104.17	    11.180
   9.820         95.00	    10.677
   9.840        113.33	    11.662
   9.860        101.67	    11.045
   9.880        120.00	    12.000
   9.900         99.17	    10.909
   9.920        110.83	    11.533
   9.940        115.00	    11.747
   9.960        108.33	    11.402
   9.980         97.50	    10.817
  10.000        107.50	    11.358
  10.020        101.67	    11.045
  10.040        114.17	    11.705
  10.060        110.00	    11.489
  10.080        105.83	    11.269
  10.100        107.50	    11.358
  10.120        129.17	    12.450
  10.140         98.33	    10.863
  10.160        108.33	    11.402
  10.180        109.17	    11.446
  10.200        100.83	    11.000
  10.220         90.83	    10.440
  10.240        109.17	    11.446
  10.260        127.50	    12.369
  10.280         85.00	    10.100
  10.300        120.00	    12.000
  10.320        110.00	    11.489
  10.340        122.50	    12.124
  10.360        115.00	    11.747
  10.380        137.50	    12.845
  10.400        150.00	    13.416
  10.420        172.50	    14.387
  10.440        190.00	    15.100
  10.460        166.67	    14.142
  10.480        158.33	    13.784
  10.500        110.00	    11.489
  10.520        130.00	    12.490
  10.540        106.67	    11.314
  10.560         89.17	    10.344
  10.580         98.33	    10.863
  10.600        120.83	    12.042
  10.620         85.83	    10.149
  10.640        115.83	    11.790
  10.660         96.67	    10.770
  10.680         90.00	    10.392
  10.700        104.17	    11.180
  10.720        103.33	    11.136
  10.740         93.33	    10.583
  10.760         80.00	     9.798
  10.780         98.33	    10.863
  10.800        109.17	    11.446
  10.820        105.83	    11.269
  10.840        112.50	    11.619
  10.860        101.67	    11.045
  10.880         99.17	    10.909
  10.900         88.33	    10.296
  10.920         97.50	    10.817
  10.940         99.17	    10.909
  10.960         86.67	    10.198
  10.980         86.67	    10.198
  11.000         86.67	    10.198
  11.020         96.67	    10.770
  11.040         87.50	    10.247
  11.060         90.00	    10.392
  11.080         94.17	    10.630
  11.100         91.67	    10.488
  11.120         86.67	    10.198
  11.140        104.17	    11.180
  11.160         83.33	    10.000
  11.180         79.17	     9.747
  11.200         89.17	    10.344
  11.220        106.67	    11.314
  11.240         73.33	     9.381
  11.260         88.33	    10.296
  11.280         88.33	    10.296
  11.300         92.50	    10.536
  11.320         98.33	    10.863
  11.340         79.17	     9.747
  11.360         85.83	    10.149
  11.380         80.00	     9.798
  11.400        100.83	    11.000
  11.420         90.00	    10.392
  11.440         89.17	    10.344
  11.460        103.33	    11.136
  11.480        111.67	    11.576
  11.500         88.33	    10.296
  11.520         80.83	     9.849
  11.540         81.67	     9.899
  11.560         97.50	    10.817
  11.580         92.50	    10.536
  11.600         87.50	    10.247
  11.620         91.67	    10.488
  11.640         90.83	    10.440
  11.660         95.83	    10.724
  11.680         99.17	    10.909
  11.700         83.33	    10.000
  11.720        100.83	    11.000
  11.740         95.83	    10.724
  11.760         98.33	    10.863
  11.780         85.83	    10.149
  11.800        111.67	    11.576
  11.820         95.83	    10.724
  11.840         81.67	     9.899
  11.860        100.83	    11.000
  11.880        106.67	    11.314
  11.900         85.00	    10.100
  11.920        109.17	    11.446
  11.940         99.17	    10.909
  11.960        108.33	    11.402
  11.980        155.83	    13.675
  12.000        135.00	    12.728
  12.020        150.83	    13.454
  12.040        185.00	    14.900
  12.060        273.33	    18.111
  12.080        352.50	    20.567
  12.100        382.50	    21.424
  12.120        332.50	    19.975
  12.140        248.33	    17.263
  12.160        174.17	    14.457
  12.180        162.50	    13.964
  12.200        164.17	    14.036
  12.220        161.67	    13.928
  12.240        211.67	    15.937
  12.260        229.17	    16.583
  12.280        215.00	    16.062
  12.300        195.83	    15.330
  12.320        195.83	    15.330
  12.340        178.33	    14.629
  12.360        192.50	    15.199
  12.380        240.83	    17.000
  12.400        247.50	    17.234
  12.420        242.50	    17.059
  12.440        210.83	    15.906
  12.460        145.00	    13.191
  12.480        116.67	    11.832
  12.500         95.83	    10.724
  12.520        107.50	    11.358
  12.540         94.17	    10.630
  12.560         96.67	    10.770
  12.580         95.83	    10.724
  12.600         74.17	     9.434
  12.620         73.33	     9.381
  12.640         98.33	    10.863
  12.660         98.33	    10.863
  12.680         96.67	    10.770
  12.700         81.67	     9.899
  12.720         83.33	    10.000
  12.740         80.83	     9.849
  12.760         85.00	    10.100
  12.780         89.17	    10.344
  12.800         93.33	    10.583
  12.820         66.67	     8.944
  12.840         85.83	    10.149
  12.860         88.33	    10.296
  12.880         75.83	     9.539
  12.900         95.00	    10.677
  12.920         72.50	     9.327
  12.940         63.33	     8.718
  12.960         93.33	    10.583
  12.980         80.83	     9.849
  13.000         85.00	    10.100
  13.020         75.83	     9.539
  13.040         65.83	     8.888
  13.060         79.17	     9.747
  13.080         86.67	    10.198
  13.100         87.50	    10.247
  13.120         78.33	     9.695
  13.140         89.17	    10.344
  13.160         65.83	     8.888
  13.180         66.67	     8.944
  13.200         85.00	    10.100
  13.220         67.50	     9.000
  13.240         85.83	    10.149
  13.260         95.00	    10.677
  13.280         75.00	     9.487
  13.300         90.00	    10.392
  13.320         80.83	     9.849
  13.340         67.50	     9.000
  13.360         79.17	     9.747
  13.380         82.50	     9.950
  13.400         64.17	     8.775
  13.420         84.17	    10.050
  13.440         67.50	     9.000
  13.460         83.33	    10.000
  13.480         65.00	     8.832
  13.500         93.33	    10.583
  13.520         82.50	     9.950
  13.540         96.67	    10.770
  13.560         84.17	    10.050
  13.580         75.83	     9.539
  13.600         75.83	     9.539
  13.620         64.17	     8.775
  13.640         73.33	     9.381
  13.660         84.17	    10.050
  13.680         73.33	     9.381
  13.700         83.33	    10.000
  13.720         83.33	    10.000
  13.740        108.33	    11.402
  13.760         98.33	    10.863
  13.780         94.17	    10.630
  13.800         97.50	    10.817
  13.820         92.50	    10.536
  13.840        107.50	    11.358
  13.860         72.50	     9.327
  13.880         80.00	     9.798
  13.900         85.00	    10.100
  13.920         81.67	     9.899
  13.940         81.67	     9.899
  13.960         79.17	     9.747
  13.980         71.67	     9.274
  14.000         88.33	    10.296
  14.020         61.67	     8.602
  14.040         82.50	     9.950
  14.060         54.17	     8.062
  14.080         56.67	     8.246
  14.100         55.00	     8.124
  14.120         87.50	    10.247
  14.140         80.83	     9.849
  14.160         76.67	     9.592
  14.180         73.33	     9.381
  14.200         73.33	     9.381
  14.220         71.67	     9.274
  14.240         72.50	     9.327
  14.260         70.83	     9.220
  14.280         58.33	     8.367
  14.300         66.67	     8.944
  14.320         72.50	     9.327
  14.340         57.50	     8.307
  14.360         85.83	    10.149
  14.380         70.83	     9.220
  14.400         69.17	     9.110
  14.420         70.00	     9.165
  14.440         65.00	     8.832
  14.460         56.67	     8.246
  14.480         70.00	     9.165
  14.500         70.00	     9.165
  14.520         66.67	     8.944
  14.540         75.00	     9.487
  14.560         70.00	     9.165
  14.580         79.17	     9.747
  14.600         72.50	     9.327
  14.620         65.00	     8.832
  14.640         69.17	     9.110
  14.660         83.33	    10.000
  14.680         73.33	     9.381
  14.700         71.67	     9.274
  14.720         58.33	     8.367
  14.740         70.83	     9.220
  14.760         70.00	     9.165
  14.780         74.17	     9.434
  14.800         71.67	     9.274
  14.820         63.33	     8.718
  14.840         67.50	     9.000
  14.860         70.83	     9.220
  14.880         86.67	    10.198
  14.900         79.17	     9.747
  14.920         71.67	     9.274
  14.940         66.67	     8.944
  14.960         60.00	     8.485
  14.980         60.83	     8.544
  15.000         65.00	     8.832
  15.020         55.00	     8.124
  15.040         75.83	     9.539
  15.060         57.50	     8.307
  15.080         71.67	     9.274
  15.100         69.17	     9.110
  15.120         62.50	     8.660
  15.140         65.00	     8.832
  15.160         57.50	     8.307
  15.180         64.17	     8.775
  15.200         60.83	     8.544
  15.220         65.83	     8.888
  15.240         68.33	     9.055
  15.260         52.50	     7.937
  15.280         69.17	     9.110
  15.300         60.00	     8.485
  15.320         65.00	     8.832
  15.340         61.67	     8.602
  15.360         75.00	     9.487
  15.380         59.17	     8.426
  15.400         60.00	     8.485
  15.420         55.83	     8.185
  15.440         64.17	     8.775
  15.460         77.50	     9.644
  15.480         70.83	     9.220
  15.500         73.33	     9.381
  15.520         67.50	     9.000
  15.540         60.00	     8.485
  15.560         55.00	     8.124
  15.580         71.67	     9.274
  15.600         62.50	     8.660
  15.620         69.17	     9.110
  15.640         60.83	     8.544
  15.660         70.83	     9.220
  15.680         65.83	     8.888
  15.700         72.50	     9.327
  15.720         68.33	     9.055
  15.740         70.00	     9.165
  15.760         76.67	     9.592
  15.780         74.17	     9.434
  15.800         68.33	     9.055
  15.820         73.33	     9.381
  15.840         72.50	     9.327
  15.860         75.83	     9.539
  15.880         64.17	     8.775
  15.900         52.50	     7.937
  15.920         59.17	     8.426
  15.940         51.67	     7.874
  15.960         55.00	     8.124
  15.980         72.50	     9.327
  16.000         60.83	     8.544
  16.020         47.50	     7.550
  16.040         54.17	     8.062
  16.060         63.33	     8.718
  16.080         56.67	     8.246
  16.100         60.83	     8.544
  16.120         50.83	     7.810
  16.140         58.33	     8.367
  16.160         54.17	     8.062
  16.180         45.00	     7.348
  16.200         58.33	     8.367
  16.220         69.17	     9.110
  16.240         53.33	     8.000
  16.260         65.83	     8.888
  16.280         55.00	     8.124
  16.300         59.17	     8.426
  16.320         60.83	     8.544
  16.340         58.33	     8.367
  16.360         69.17	     9.110
  16.380         58.33	     8.367
  16.400         64.17	     8.775
  16.420         51.67	     7.874
  16.440         50.83	     7.810
  16.460         52.50	     7.937
  16.480         55.00	     8.124
  16.500         65.00	     8.832
  16.520         56.67	     8.246
  16.540         50.83	     7.810
  16.560         70.00	     9.165
  16.580         55.83	     8.185
  16.600         41.67	     7.071
  16.620         52.50	     7.937
  16.640         71.67	     9.274
  16.660         61.67	     8.602
  16.680         59.17	     8.426
  16.700         62.50	     8.660
  16.720         60.83	     8.544
  16.740         67.50	     9.000
  16.760         55.00	     8.124
  16.780         65.00	     8.832
  16.800         72.50	     9.327
  16.820         62.50	     8.660
  16.840         65.00	     8.832
  16.860         57.50	     8.307
  16.880         62.50	     8.660
  16.900         62.50	     8.660
  16.920         63.33	     8.718
  16.940         45.00	     7.348
  16.960         56.67	     8.246
  16.980         61.67	     8.602
  17.000         52.50	     7.937
  17.020         65.00	     8.832
  17.040         68.33	     9.055
  17.060         63.33	     8.718
  17.080         50.00	     7.746
  17.100         70.00	     9.165
  17.120         60.83	     8.544
  17.140         54.17	     8.062
  17.160         60.83	     8.544
  17.180         64.17	     8.775
  17.200         83.33	    10.000
  17.220         60.00	     8.485
  17.240         63.33	     8.718
  17.260         72.50	     9.327
  17.280         69.17	     9.110
  17.300         64.17	     8.775
  17.320         56.67	     8.246
  17.340         72.50	     9.327
  17.360         75.83	     9.539
  17.380         65.83	     8.888
  17.400         65.83	     8.888
  17.420         55.83	     8.185
  17.440         61.67	     8.602
  17.460         49.17	     7.681
  17.480         60.00	     8.485
  17.500         59.17	     8.426
  17.520         65.83	     8.888
  17.540         60.00	     8.485
  17.560         65.83	     8.888
  17.580         72.50	     9.327
  17.600         74.17	     9.434
  17.620         81.67	     9.899
  17.640         92.50	    10.536
  17.660        101.67	    11.045
  17.680        130.00	    12.490
  17.700        149.17	    13.379
  17.720        155.83	    13.675
  17.740        186.67	    14.967
  17.760        174.17	    14.457
  17.780        135.83	    12.767
  17.800        101.67	    11.045
  17.820         89.17	    10.344
  17.840         63.33	     8.718
  17.860         73.33	     9.381
  17.880         66.67	     8.944
  17.900         54.17	     8.062
  17.920         63.33	     8.718
  17.940         52.50	     7.937
  17.960         57.50	     8.307
  17.980         65.83	     8.888
  18.000         49.17	     7.681
  18.020         61.67	     8.602
  18.040         65.00	     8.832
  18.060         78.33	     9.695
  18.080         71.67	     9.274
  18.100         61.67	     8.602
  18.120         59.17	     8.426
  18.140         60.00	     8.485
  18.160         71.67	     9.274
  18.180         65.00	     8.832
  18.200         63.33	     8.718
  18.220         63.33	     8.718
  18.240         67.50	     9.000
  18.260         47.50	     7.550
  18.280         63.33	     8.718
  18.300         64.17	     8.775
  18.320         70.83	     9.220
  18.340         70.00	     9.165
  18.360         60.00	     8.485
  18.380         78.33	     9.695
  18.400         61.67	     8.602
  18.420         90.00	    10.392
  18.440        103.33	    11.136
  18.460        126.67	    12.329
  18.480        131.67	    12.570
  18.500        124.17	    12.207
  18.520        110.83	    11.533
  18.540         89.17	    10.344
  18.560         83.33	    10.000
  18.580         76.67	     9.592
  18.600         92.50	    10.536
  18.620         81.67	     9.899
  18.640        103.33	    11.136
  18.660         97.50	    10.817
  18.680        125.00	    12.247
  18.700        141.67	    13.038
  18.720        122.50	    12.124
  18.740        105.83	    11.269
  18.760        100.00	    10.954
  18.780         85.00	    10.100
  18.800         80.83	     9.849
  18.820         50.83	     7.810
  18.840         63.33	     8.718
  18.860         78.33	     9.695
  18.880         72.50	     9.327
  18.900         71.67	     9.274
  18.920         61.67	     8.602
  18.940         59.17	     8.426
  18.960         58.33	     8.367
  18.980         57.50	     8.307
  19.000         75.83	     9.539
  19.020         69.17	     9.110
  19.040         60.00	     8.485
  19.060         63.33	     8.718
  19.080         73.33	     9.381
  19.100         75.83	     9.539
  19.120         78.33	     9.695
  19.140         74.17	     9.434
  19.160         77.50	     9.644
  19.180         65.83	     8.888
  19.200         55.00	     8.124
  19.220         60.83	     8.544
  19.240         59.17	     8.426
  19.260         68.33	     9.055
  19.280         60.00	     8.485
  19.300         64.17	     8.775
  19.320         69.17	     9.110
  19.340         54.17	     8.062
  19.360         62.50	     8.660
  19.380         60.83	     8.544
  19.400         58.33	     8.367
  19.420         59.17	     8.426
  19.440         54.17	     8.062
  19.460         53.33	     8.000
  19.480         77.50	     9.644
  19.500         75.83	     9.539
  19.520         71.67	     9.274
  19.540         80.00	     9.798
  19.560         80.83	     9.849
  19.580         65.83	     8.888
  19.600         75.00	     9.487
  19.620         69.17	     9.110
  19.640         71.67	     9.274
  19.660         69.17	     9.110
  19.680         75.83	     9.539
  19.700         76.67	     9.592
  19.720         74.17	     9.434
  19.740         91.67	    10.488
  19.760         68.33	     9.055
  19.780         72.50	     9.327
  19.800         78.33	     9.695
  19.820         71.67	     9.274
  19.840         79.17	     9.747
  19.860         72.50	     9.327
  19.880         58.33	     8.367
  19.900         69.17	     9.110
  19.920         65.00	     8.832
  19.940         48.33	     7.616
  19.960         70.00	     9.165
  19.980         62.50	     8.660
  20.000         56.67	     8.246
  20.020         68.33	     9.055
  20.040         69.17	     9.110
  20.060         64.17	     8.775
  20.080         55.00	     8.124
  20.100         56.67	     8.246
  20.120         56.67	     8.246
  20.140         69.17	     9.110
  20.160         40.83	     7.000
  20.180         59.17	     8.426
  20.200         57.50	     8.307
  20.220         59.17	     8.426
  20.240         60.83	     8.544
  20.260         60.00	     8.485
  20.280         50.00	     7.746
  20.300         58.33	     8.367
  20.320         65.00	     8.832
  20.340         65.00	     8.832
  20.360         62.50	     8.660
  20.380         43.33	     7.211
  20.400         56.67	     8.246
  20.420         70.83	     9.220
  20.440         62.50	     8.660
  20.460         56.67	     8.246
  20.480         67.50	     9.000
  20.500         64.17	     8.775
  20.520         50.00	     7.746
  20.540         62.50	     8.660
  20.560         74.17	     9.434
  20.580         65.83	     8.888
  20.600         80.00	     9.798
  20.620         79.17	     9.747
  20.640         77.50	     9.644
  20.660         92.50	    10.536
  20.680        115.83	    11.790
  20.700        160.83	    13.892
  20.720        197.50	    15.395
  20.740        322.50	    19.672
  20.760        538.33	    25.417
  20.780        479.17	    23.979
  20.800        381.67	    21.401
  20.820        289.17	    18.628
  20.840        190.00	    15.100
  20.860        111.67	    11.576
  20.880        108.33	    11.402
  20.900        108.33	    11.402
  20.920        113.33	    11.662
  20.940         95.83	    10.724
  20.960         97.50	    10.817
  20.980         83.33	    10.000
  21.000         77.50	     9.644
  21.020         58.33	     8.367
  21.040         55.00	     8.124
  21.060         57.50	     8.307
  21.080         62.50	     8.660
  21.100         55.83	     8.185
  21.120         61.67	     8.602
  21.140         65.00	     8.832
  21.160         65.83	     8.888
  21.180         60.00	     8.485
  21.200         47.50	     7.550
  21.220         65.00	     8.832
  21.240         45.83	     7.416
  21.260         69.17	     9.110
  21.280         53.33	     8.000
  21.300         59.17	     8.426
  21.320         56.67	     8.246
  21.340         50.83	     7.810
  21.360         54.17	     8.062
  21.380         52.50	     7.937
  21.400         52.50	     7.937
  21.420         64.17	     8.775
  21.440         49.17	     7.681
  21.460         51.67	     7.874
  21.480         58.33	     8.367
  21.500         52.50	     7.937
  21.520         52.50	     7.937
  21.540         62.50	     8.660
  21.560         57.50	     8.307
  21.580         54.17	     8.062
  21.600         40.00	     6.928
  21.620         54.17	     8.062
  21.640         51.67	     7.874
  21.660         56.67	     8.246
  21.680         59.17	     8.426
  21.700         56.67	     8.246
  21.720         55.00	     8.124
  21.740         51.67	     7.874
  21.760         56.67	     8.246
  21.780         60.00	     8.485
  21.800         76.67	     9.592
  21.820         59.17	     8.426
  21.840         65.83	     8.888
  21.860         70.00	     9.165
  21.880         73.33	     9.381
  21.900        115.00	    11.747
  21.920        122.50	    12.124
  21.940        121.67	    12.083
  21.960        139.17	    12.923
  21.980        130.00	    12.490
  22.000        115.83	    11.790
  22.020         99.17	    10.909
  22.040         75.83	     9.539
  22.060         64.17	     8.775
  22.080         63.33	     8.718
  22.100         65.83	     8.888
  22.120         57.50	     8.307
  22.140         62.50	     8.660
  22.160         60.00	     8.485
  22.180         56.67	     8.246
  22.200         56.67	     8.246
  22.220         60.83	     8.544
  22.240         66.67	     8.944
  22.260         59.17	     8.426
  22.280         47.50	     7.550
  22.300         46.67	     7.483
  22.320         60.83	     8.544
  22.340         65.00	     8.832
  22.360         60.00	     8.485
  22.380         57.50	     8.307
  22.400         55.83	     8.185
  22.420         47.50	     7.550
  22.440         61.67	     8.602
  22.460         57.50	     8.307
  22.480         50.00	     7.746
  22.500         50.00	     7.746
  22.520         40.00	     6.928
  22.540         59.17	     8.426
  22.560         46.67	     7.483
  22.580         50.83	     7.810
  22.600         53.33	     8.000
  22.620         46.67	     7.483
  22.640         50.83	     7.810
  22.660         45.83	     7.416
  22.680         60.83	     8.544
  22.700         50.83	     7.810
  22.720         74.17	     9.434
  22.740         78.33	     9.695
  22.760         75.00	     9.487
  22.780         71.67	     9.274
  22.800         91.67	    10.488
  22.820         98.33	    10.863
  22.840         72.50	     9.327
  22.860         75.00	     9.487
  22.880         85.00	    10.100
  22.900         67.50	     9.000
  22.920         87.50	    10.247
  22.940         65.83	     8.888
  22.960         92.50	    10.536
  22.980        104.17	    11.180
  23.000         86.67	    10.198
  23.020         90.83	    10.440
  23.040         82.50	     9.950
  23.060         85.83	    10.149
  23.080         62.50	     8.660
  23.100         45.00	     7.348
  23.120         57.50	     8.307
  23.140         53.33	     8.000
  23.160         65.83	     8.888
  23.180         55.83	     8.185
  23.200         56.67	     8.246
  23.220         63.33	     8.718
  23.240         70.00	     9.165
  23.260         50.83	     7.810
  23.280         55.00	     8.124
  23.300         67.50	     9.000
  23.320         69.17	     9.110
  23.340         80.00	     9.798
  23.360         70.00	     9.165
  23.380         66.67	     8.944
  23.400         85.00	    10.100
  23.420        119.17	    11.958
  23.440        135.00	    12.728
  23.460        110.00	    11.489
  23.480        103.33	    11.136
  23.500        107.50	    11.358
  23.520        114.17	    11.705
  23.540         96.67	    10.770
  23.560         96.67	    10.770
  23.580         74.17	     9.434
  23.600         56.67	     8.246
  23.620         77.50	     9.644
  23.640         65.00	     8.832
  23.660         90.83	    10.440
  23.680         70.83	     9.220
  23.700         86.67	    10.198
  23.720         77.50	     9.644
  23.740         75.00	     9.487
  23.760         63.33	     8.718
  23.780         74.17	     9.434
  23.800         62.50	     8.660
  23.820         63.33	     8.718
  23.840         68.33	     9.055
  23.860         65.00	     8.832
  23.880         67.50	     9.000
  23.900         71.67	     9.274
  23.920         73.33	     9.381
  23.940         76.67	     9.592
  23.960         81.67	     9.899
  23.980         76.67	     9.592
  24.000         70.00	     9.165
  24.020         89.17	    10.344
  24.040         81.67	     9.899
  24.060        102.50	    11.091
  24.080        104.17	    11.180
  24.100         93.33	    10.583
  24.120        109.17	    11.446
  24.140        113.33	    11.662
  24.160        124.17	    12.207
  24.180        132.50	    12.610
  24.200        127.50	    12.369
  24.220        121.67	    12.083
  24.240        121.67	    12.083
  24.260        112.50	    11.619
  24.280         91.67	    10.488
  24.300         84.17	    10.050
  24.320         78.33	     9.695
  24.340         82.50	     9.950
  24.360         82.50	     9.950
  24.380         87.50	    10.247
  24.400         84.17	    10.050
  24.420        110.00	    11.489
  24.440        130.83	    12.530
  24.460        218.33	    16.186
  24.480        245.00	    17.146
  24.500        235.00	    16.793
  24.520        245.00	    17.146
  24.540        275.00	    18.166
  24.560        243.33	    17.088
  24.580        208.33	    15.811
  24.600        176.67	    14.560
  24.620        136.67	    12.806
  24.640        118.33	    11.916
  24.660        110.00	    11.489
  24.680        111.67	    11.576
  24.700        122.50	    12.124
  24.720        124.17	    12.207
  24.740        149.17	    13.379
  24.760        130.83	    12.530
  24.780        123.33	    12.166
  24.800        133.33	    12.649
  24.820        119.17	    11.958
  24.840         97.50	    10.817
  24.860         96.67	    10.770
  24.880        103.33	    11.136
  24.900        104.17	    11.180
  24.920        110.00	    11.489
  24.940        112.50	    11.619
  24.960        101.67	    11.045
  24.980        126.67	    12.329
  25.000        151.67	    13.491
  25.020        178.33	    14.629
  25.040        211.67	    15.937
  25.060        178.33	    14.629
  25.080        190.83	    15.133
  25.100        180.00	    14.697
  25.120        122.50	    12.124
  25.140        108.33	    11.402
  25.160        110.83	    11.533
  25.180         82.50	     9.950
  25.200         95.83	    10.724
  25.220         74.17	     9.434
  25.240        100.83	    11.000
  25.260        110.00	    11.489
  25.280        137.50	    12.845
  25.300        130.00	    12.490
  25.320        137.50	    12.845
  25.340        142.50	    13.077
  25.360        131.67	    12.570
  25.380        129.17	    12.450
  25.400        128.33	    12.410
  25.420        147.50	    13.304
  25.440        110.00	    11.489
  25.460        129.17	    12.450
  25.480        109.17	    11.446
  25.500        116.67	    11.832
  25.520         81.67	     9.899
  25.540        108.33	    11.402
  25.560         99.17	    10.909
  25.580         96.67	    10.770
  25.600         85.83	    10.149
  25.620         86.67	    10.198
  25.640         75.00	     9.487
  25.660         70.83	     9.220
  25.680         76.67	     9.592
  25.700         70.83	     9.220
  25.720         74.17	     9.434
  25.740         50.00	     7.746
  25.760         65.83	     8.888
  25.780         63.33	     8.718
  25.800         68.33	     9.055
  25.820         61.67	     8.602
  25.840         62.50	     8.660
  25.860         56.67	     8.246
  25.880         71.67	     9.274
  25.900         66.67	     8.944
  25.920         60.83	     8.544
  25.940         53.33	     8.000
  25.960         50.83	     7.810
  25.980         65.00	     8.832
  26.000         67.50	     9.000
  26.020         80.83	     9.849
  26.040         75.00	     9.487
  26.060         62.50	     8.660
  26.080         74.17	     9.434
  26.100         72.50	     9.327
  26.120         75.83	     9.539
  26.140         74.17	     9.434
  26.160         75.00	     9.487
  26.180         81.67	     9.899
  26.200         85.00	    10.100
  26.220         86.67	    10.198
  26.240         91.67	    10.488
  26.260        120.00	    12.000
  26.280        187.50	    15.000
  26.300        223.33	    16.371
  26.320        200.83	    15.524
  26.340        205.83	    15.716
  26.360        195.00	    15.297
  26.380        222.50	    16.340
  26.400        255.00	    17.493
  26.420        215.00	    16.062
  26.440        275.83	    18.193
  26.460        350.83	    20.518
  26.480        498.33	    24.454
  26.500       1069.17	    35.819
  26.520       1913.33	    47.917
  26.540       2761.67	    57.567
  26.560       2706.67	    56.991
  26.580       1924.17	    48.052
  26.600       1710.83	    45.310
  26.620       1559.17	    43.255
  26.640       1077.50	    35.958
  26.660        522.50	    25.040
  26.680        345.00	    20.347
  26.700        366.67	    20.976
  26.720        357.50	    20.712
  26.740        386.67	    21.541
  26.760        462.50	    23.558
  26.780        413.33	    22.271
  26.800        403.33	    22.000
  26.820        367.50	    21.000
  26.840        288.33	    18.601
  26.860        260.83	    17.692
  26.880        233.33	    16.733
  26.900        155.00	    13.638
  26.920        132.50	    12.610
  26.940        143.33	    13.115
  26.960        235.00	    16.793
  26.980        285.83	    18.520
  27.000        195.00	    15.297
  27.020        167.50	    14.177
  27.040        185.83	    14.933
  27.060        154.17	    13.601
  27.080         99.17	    10.909
  27.100         72.50	     9.327
  27.120         86.67	    10.198
  27.140         91.67	    10.488
  27.160         80.83	     9.849
  27.180         80.00	     9.798
  27.200         81.67	     9.899
  27.220         66.67	     8.944
  27.240         83.33	    10.000
  27.260         69.17	     9.110
  27.280         81.67	     9.899
  27.300         69.17	     9.110
  27.320         97.50	    10.817
  27.340         95.83	    10.724
  27.360        117.50	    11.874
  27.380        158.33	    13.784
  27.400        211.67	    15.937
  27.420        225.00	    16.432
  27.440        191.67	    15.166
  27.460        179.17	    14.663
  27.480        165.83	    14.107
  27.500        155.00	    13.638
  27.520        102.50	    11.091
  27.540         96.67	    10.770
  27.560        125.83	    12.288
  27.580        122.50	    12.124
  27.600        145.83	    13.229
  27.620        220.00	    16.248
  27.640        210.00	    15.875
  27.660        200.00	    15.492
  27.680        180.83	    14.731
  27.700        212.50	    15.969
  27.720        181.67	    14.765
  27.740        188.33	    15.033
  27.760        244.17	    17.117
  27.780        299.17	    18.947
  27.800        361.67	    20.833
  27.820        431.67	    22.760
  27.840        430.83	    22.738
  27.860        433.33	    22.804
  27.880        430.00	    22.716
  27.900        293.33	    18.762
  27.920        225.83	    16.462
  27.940        236.67	    16.852
  27.960        137.50	    12.845
  27.980        103.33	    11.136
  28.000        115.00	    11.747
  28.020        106.67	    11.314
  28.040        118.33	    11.916
  28.060        135.00	    12.728
  28.080        110.00	    11.489
  28.100        113.33	    11.662
  28.120         99.17	    10.909
  28.140         93.33	    10.583
  28.160         80.00	     9.798
  28.180         91.67	    10.488
  28.200         76.67	     9.592
  28.220         95.00	    10.677
  28.240         85.00	    10.100
  28.260         73.33	     9.381
  28.280         70.83	     9.220
  28.300         70.00	     9.165
  28.320         59.17	     8.426
  28.340         60.83	     8.544
  28.360         59.17	     8.426
  28.380         60.00	     8.485
  28.400         70.00	     9.165
  28.420         68.33	     9.055
  28.440         67.50	     9.000
  28.460         80.00	     9.798
  28.480         84.17	    10.050
  28.500        108.33	    11.402
  28.520        117.50	    11.874
  28.540        120.83	    12.042
  28.560        128.33	    12.410
  28.580         98.33	    10.863
  28.600         85.00	    10.100
  28.620         78.33	     9.695
  28.640         80.00	     9.798
  28.660         71.67	     9.274
  28.680         66.67	     8.944
  28.700         57.50	     8.307
  28.720         50.83	     7.810
  28.740         60.00	     8.485
  28.760         49.17	     7.681
  28.780         47.50	     7.550
  28.800         48.33	     7.616
  28.820         60.00	     8.485
  28.840         42.50	     7.141
  28.860         54.17	     8.062
  28.880         62.50	     8.660
  28.900         50.83	     7.810
  28.920         55.83	     8.185
  28.940         49.17	     7.681
  28.960         61.67	     8.602
  28.980         48.33	     7.616
  29.000         38.33	     6.782
  29.020         57.50	     8.307
  29.040         46.67	     7.483
  29.060         51.67	     7.874
  29.080         37.50	     6.708
  29.100         48.33	     7.616
  29.120         54.17	     8.062
  29.140         40.00	     6.928
  29.160         50.00	     7.746
  29.180         55.83	     8.185
  29.200         61.67	     8.602
  29.220         45.00	     7.348
  29.240         47.50	     7.550
  29.260         45.83	     7.416
  29.280         55.83	     8.185
  29.300         63.33	     8.718
  29.320         51.67	     7.874
  29.340         47.50	     7.550
  29.360         43.33	     7.211
  29.380         56.67	     8.246
  29.400         61.67	     8.602
  29.420         55.83	     8.185
  29.440         55.83	     8.185
  29.460         55.00	     8.124
  29.480         57.50	     8.307
  29.500         55.00	     8.124
  29.520         58.33	     8.367
  29.540         60.83	     8.544
  29.560         53.33	     8.000
  29.580         58.33	     8.367
  29.600         60.83	     8.544
  29.620         60.83	     8.544
  29.640         64.17	     8.775
  29.660         68.33	     9.055
  29.680         70.83	     9.220
  29.700         90.00	    10.392
  29.720        132.50	    12.610
  29.740        196.67	    15.362
  29.760        215.83	    16.093
  29.780        172.50	    14.387
  29.800        127.50	    12.369
  29.820        137.50	    12.845
  29.840        152.50	    13.528
  29.860        110.83	    11.533
  29.880         88.33	    10.296
  29.900         78.33	     9.695
  29.920         80.83	     9.849
  29.940         72.50	     9.327
  29.960         73.33	     9.381
  29.980        100.83	    11.000
  30.000         90.83	    10.440
  30.020         87.50	    10.247
  30.040         74.17	     9.434
  30.060         73.33	     9.381
  30.080         85.83	    10.149
  30.100         85.00	    10.100
  30.120         80.83	     9.849
  30.140         94.17	    10.630
  30.160         91.67	    10.488
  30.180         90.83	    10.440
  30.200         90.83	    10.440
  30.220         90.00	    10.392
  30.240         74.17	     9.434
  30.260         75.00	     9.487
  30.280         70.00	     9.165
  30.300         94.17	    10.630
  30.320         69.17	     9.110
  30.340         72.50	     9.327
  30.360         89.17	    10.344
  30.380        105.83	    11.269
  30.400        111.67	    11.576
  30.420         88.33	    10.296
  30.440        103.33	    11.136
  30.460         84.17	    10.050
  30.480         75.83	     9.539
  30.500         67.50	     9.000
  30.520         59.17	     8.426
  30.540         64.17	     8.775
  30.560         45.83	     7.416
  30.580         52.50	     7.937
  30.600         58.33	     8.367
  30.620         62.50	     8.660
  30.640         87.50	    10.247
  30.660        114.17	    11.705
  30.680        119.17	    11.958
  30.700        140.00	    12.961
  30.720        132.50	    12.610
  30.740        140.00	    12.961
  30.760        143.33	    13.115
  30.780        165.00	    14.071
  30.800        147.50	    13.304
  30.820        156.67	    13.711
  30.840        143.33	    13.115
  30.860        135.00	    12.728
  30.880        141.67	    13.038
  30.900         98.33	    10.863
  30.920         79.17	     9.747
  30.940         84.17	    10.050
  30.960         56.67	     8.246
  30.980         61.67	     8.602
  31.000         71.67	     9.274
  31.020         79.17	     9.747
  31.040         64.17	     8.775
  31.060         81.67	     9.899
  31.080        101.67	    11.045
  31.100         98.33	    10.863
  31.120        113.33	    11.662
  31.140        128.33	    12.410
  31.160        106.67	    11.314
  31.180        116.67	    11.832
  31.200         88.33	    10.296
  31.220         82.50	     9.950
  31.240         81.67	     9.899
  31.260         72.50	     9.327
  31.280         65.00	     8.832
  31.300         65.83	     8.888
  31.320         56.67	     8.246
  31.340         63.33	     8.718
  31.360         57.50	     8.307
  31.380         50.00	     7.746
  31.400         62.50	     8.660
  31.420         62.50	     8.660
  31.440         67.50	     9.000
  31.460         67.50	     9.000
  31.480         65.00	     8.832
  31.500         70.83	     9.220
  31.520         68.33	     9.055
  31.540         62.50	     8.660
  31.560         77.50	     9.644
  31.580         64.17	     8.775
  31.600         66.67	     8.944
  31.620         45.83	     7.416
  31.640         45.00	     7.348
  31.660         45.00	     7.348
  31.680         41.67	     7.071
  31.700         42.50	     7.141
  31.720         55.83	     8.185
  31.740         44.17	     7.280
  31.760         52.50	     7.937
  31.780         55.00	     8.124
  31.800         59.17	     8.426
  31.820         50.83	     7.810
  31.840         68.33	     9.055
  31.860         50.00	     7.746
  31.880         54.17	     8.062
  31.900         72.50	     9.327
  31.920         57.50	     8.307
  31.940         63.33	     8.718
  31.960         57.50	     8.307
  31.980         77.50	     9.644
  32.000         77.50	     9.644
  32.020         75.00	     9.487
  32.040         58.33	     8.367
  32.060         72.50	     9.327
  32.080         61.67	     8.602
  32.100         75.83	     9.539
  32.120         70.00	     9.165
  32.140         63.33	     8.718
  32.160         62.50	     8.660
  32.180         73.33	     9.381
  32.200         61.67	     8.602
  32.220         65.83	     8.888
  32.240         69.17	     9.110
  32.260         46.67	     7.483
  32.280         45.83	     7.416
  32.300         46.67	     7.483
  32.320         41.67	     7.071
  32.340         53.33	     8.000
  32.360         38.33	     6.782
  32.380         57.50	     8.307
  32.400         52.50	     7.937
  32.420         38.33	     6.782
  32.440         41.67	     7.071
  32.460         43.33	     7.211
  32.480         38.33	     6.782
  32.500         44.17	     7.280
  32.520         40.00	     6.928
  32.540         33.33	     6.325
  32.560         53.33	     8.000
  32.580         38.33	     6.782
  32.600         51.67	     7.874
  32.620         66.67	     8.944
  32.640         59.17	     8.426
  32.660         47.50	     7.550
  32.680         65.83	     8.888
  32.700         50.83	     7.810
  32.720         62.50	     8.660
  32.740         59.17	     8.426
  32.760         56.67	     8.246
  32.780         47.50	     7.550
  32.800         46.67	     7.483
  32.820         43.33	     7.211
  32.840         39.17	     6.856
  32.860         50.83	     7.810
  32.880         45.83	     7.416
  32.900         57.50	     8.307
  32.920         54.17	     8.062
  32.940         47.50	     7.550
  32.960         63.33	     8.718
  32.980         67.50	     9.000
  33.000         62.50	     8.660
  33.020         50.83	     7.810
  33.040         57.50	     8.307
  33.060         55.00	     8.124
  33.080         39.17	     6.856
  33.100         44.17	     7.280
  33.120         37.50	     6.708
  33.140         46.67	     7.483
  33.160         40.00	     6.928
  33.180         47.50	     7.550
  33.200         48.33	     7.616
  33.220         48.33	     7.616
  33.240         60.83	     8.544
  33.260         55.83	     8.185
  33.280         47.50	     7.550
  33.300         58.33	     8.367
  33.320         52.50	     7.937
  33.340         55.00	     8.124
  33.360         55.83	     8.185
  33.380         46.67	     7.483
  33.400         52.50	     7.937
  33.420         51.67	     7.874
  33.440         45.83	     7.416
  33.460         46.67	     7.483
  33.480         44.17	     7.280
  33.500         42.50	     7.141
  33.520         36.67	     6.633
  33.540         38.33	     6.782
  33.560         43.33	     7.211
  33.580         50.00	     7.746
  33.600         43.33	     7.211
  33.620         40.83	     7.000
  33.640         52.50	     7.937
  33.660         50.00	     7.746
  33.680         45.83	     7.416
  33.700         49.17	     7.681
  33.720         58.33	     8.367
  33.740         61.67	     8.602
  33.760         55.00	     8.124
  33.780         65.00	     8.832
  33.800         55.83	     8.185
  33.820         82.50	     9.950
  33.840         72.50	     9.327
  33.860         63.33	     8.718
  33.880         71.67	     9.274
  33.900         62.50	     8.660
  33.920         57.50	     8.307
  33.940         65.00	     8.832
  33.960         41.67	     7.071
  33.980         55.83	     8.185
  34.000         63.33	     8.718
  34.020         67.50	     9.000
  34.040         53.33	     8.000
  34.060         49.17	     7.681
  34.080         57.50	     8.307
  34.100         50.00	     7.746
  34.120         49.17	     7.681
  34.140         55.00	     8.124
  34.160         57.50	     8.307
  34.180         65.83	     8.888
  34.200         71.67	     9.274
  34.220         65.83	     8.888
  34.240         68.33	     9.055
  34.260         65.00	     8.832
  34.280         73.33	     9.381
  34.300         80.83	     9.849
  34.320         85.83	    10.149
  34.340         84.17	    10.050
  34.360         81.67	     9.899
  34.380         90.00	    10.392
  34.400        100.00	    10.954
  34.420        109.17	    11.446
  34.440         85.83	    10.149
  34.460         80.83	     9.849
  34.480         85.83	    10.149
  34.500         84.17	    10.050
  34.520         87.50	    10.247
  34.540         75.83	     9.539
  34.560         72.50	     9.327
  34.580         83.33	    10.000
  34.600         82.50	     9.950
  34.620         68.33	     9.055
  34.640         65.00	     8.832
  34.660         71.67	     9.274
  34.680         68.33	     9.055
  34.700         71.67	     9.274
  34.720         99.17	    10.909
  34.740         84.17	    10.050
  34.760         98.33	    10.863
  34.780         83.33	    10.000
  34.800        120.00	    12.000
  34.820        110.00	    11.489
  34.840        101.67	    11.045
  34.860        105.00	    11.225
  34.880        103.33	    11.136
  34.900        112.50	    11.619
  34.920        106.67	    11.314
  34.940        135.00	    12.728
  34.960        135.00	    12.728
  34.980        120.83	    12.042
  35.000        116.67	    11.832
  35.020        101.67	    11.045
  35.040         97.50	    10.817
  35.060         95.83	    10.724
  35.080         85.83	    10.149
  35.100         96.67	    10.770
  35.120         80.00	     9.798
  35.140         78.33	     9.695
  35.160         85.00	    10.100
  35.180         75.00	     9.487
  35.200         74.17	     9.434
  35.220         71.67	     9.274
  35.240         92.50	    10.536
  35.260         97.50	    10.817
  35.280         92.50	    10.536
  35.300        105.83	    11.269
  35.320        105.00	    11.225
  35.340         94.17	    10.630
  35.360        120.83	    12.042
  35.380        154.17	    13.601
  35.400        147.50	    13.304
  35.420        161.67	    13.928
  35.440        190.00	    15.100
  35.460        195.00	    15.297
  35.480        178.33	    14.629
  35.500        159.17	    13.820
  35.520        142.50	    13.077
  35.540        150.00	    13.416
  35.560        154.17	    13.601
  35.580        110.00	    11.489
  35.600        103.33	    11.136
  35.620         89.17	    10.344
  35.640         79.17	     9.747
  35.660         89.17	    10.344
  35.680         73.33	     9.381
  35.700         62.50	     8.660
  35.720         56.67	     8.246
  35.740         75.00	     9.487
  35.760         75.00	     9.487
  35.780         60.00	     8.485
  35.800         65.83	     8.888
  35.820         64.17	     8.775
  35.840         65.83	     8.888
  35.860         71.67	     9.274
  35.880         68.33	     9.055
  35.900         62.50	     8.660
  35.920         60.83	     8.544
  35.940         77.50	     9.644
  35.960         81.67	     9.899
  35.980         75.00	     9.487
  36.000         75.00	     9.487
  36.020         62.50	     8.660
  36.040         66.67	     8.944
  36.060         71.67	     9.274
  36.080         54.17	     8.062
  36.100         62.50	     8.660
  36.120         49.17	     7.681
  36.140         45.83	     7.416
  36.160         41.67	     7.071
  36.180         60.00	     8.485
  36.200         51.67	     7.874
  36.220         50.00	     7.746
  36.240         61.67	     8.602
  36.260         60.83	     8.544
  36.280         63.33	     8.718
  36.300         58.33	     8.367
  36.320         72.50	     9.327
  36.340         70.00	     9.165
  36.360         88.33	    10.296
  36.380        125.83	    12.288
  36.400        155.00	    13.638
  36.420        238.33	    16.912
  36.440        285.00	    18.493
  36.460        254.17	    17.464
  36.480        176.67	    14.560
  36.500        163.33	    14.000
  36.520        185.00	    14.900
  36.540        174.17	    14.457
  36.560        156.67	    13.711
  36.580        118.33	    11.916
  36.600        102.50	    11.091
  36.620        111.67	    11.576
  36.640         93.33	    10.583
  36.660         86.67	    10.198
  36.680         71.67	     9.274
  36.700        100.83	    11.000
  36.720         72.50	     9.327
  36.740         70.00	     9.165
  36.760         65.83	     8.888
  36.780         64.17	     8.775
  36.800         53.33	     8.000
  36.820         59.17	     8.426
  36.840         65.83	     8.888
  36.860         57.50	     8.307
  36.880         45.83	     7.416
  36.900         55.00	     8.124
  36.920         43.33	     7.211
  36.940         40.00	     6.928
  36.960         45.83	     7.416
  36.980         43.33	     7.211
  37.000         50.00	     7.746
  37.020         42.50	     7.141
  37.040         68.33	     9.055
  37.060         67.50	     9.000
  37.080         46.67	     7.483
  37.100         55.00	     8.124
  37.120         66.67	     8.944
  37.140         61.67	     8.602
  37.160         58.33	     8.367
  37.180         72.50	     9.327
  37.200         72.50	     9.327
  37.220         69.17	     9.110
  37.240         62.50	     8.660
  37.260         75.83	     9.539
  37.280         69.17	     9.110
  37.300         82.50	     9.950
  37.320         84.17	    10.050
  37.340        111.67	    11.576
  37.360        145.83	    13.229
  37.380        122.50	    12.124
  37.400         96.67	    10.770
  37.420         86.67	    10.198
  37.440         81.67	     9.899
  37.460        110.83	    11.533
  37.480         80.83	     9.849
  37.500         77.50	     9.644
  37.520         71.67	     9.274
  37.540         83.33	    10.000
  37.560         90.00	    10.392
  37.580         75.00	     9.487
  37.600         80.83	     9.849
  37.620         78.33	     9.695
  37.640         75.83	     9.539
  37.660         75.83	     9.539
  37.680         70.00	     9.165
  37.700         65.83	     8.888
  37.720         63.33	     8.718
  37.740         41.67	     7.071
  37.760         46.67	     7.483
  37.780         46.67	     7.483
  37.800         43.33	     7.211
  37.820         38.33	     6.782
  37.840         43.33	     7.211
  37.860         36.67	     6.633
  37.880         41.67	     7.071
  37.900         41.67	     7.071
  37.920         31.67	     6.164
  37.940         50.83	     7.810
  37.960         36.67	     6.633
  37.980         29.17	     5.916
  38.000         54.17	     8.062
  38.020         51.67	     7.874
  38.040         37.50	     6.708
  38.060         47.50	     7.550
  38.080         45.00	     7.348
  38.100         35.83	     6.557
  38.120         54.17	     8.062
  38.140         35.00	     6.481
  38.160         41.67	     7.071
  38.180         45.00	     7.348
  38.200         42.50	     7.141
  38.220         35.00	     6.481
  38.240         40.00	     6.928
  38.260         41.67	     7.071
  38.280         35.00	     6.481
  38.300         25.00	     5.477
  38.320         45.83	     7.416
  38.340         39.17	     6.856
  38.360         38.33	     6.782
  38.380         44.17	     7.280
  38.400         51.67	     7.874
  38.420         40.83	     7.000
  38.440         44.17	     7.280
  38.460         49.17	     7.681
  38.480         48.33	     7.616
  38.500         34.17	     6.403
  38.520         55.83	     8.185
  38.540         57.50	     8.307
  38.560         55.00	     8.124
  38.580         50.83	     7.810
  38.600         50.83	     7.810
  38.620         45.00	     7.348
  38.640         51.67	     7.874
  38.660         38.33	     6.782
  38.680         35.83	     6.557
  38.700         54.17	     8.062
  38.720         49.17	     7.681
  38.740         57.50	     8.307
  38.760         49.17	     7.681
  38.780         36.67	     6.633
  38.800         38.33	     6.782
  38.820         50.83	     7.810
  38.840         43.33	     7.211
  38.860         41.67	     7.071
  38.880         55.00	     8.124
  38.900         44.17	     7.280
  38.920         52.50	     7.937
  38.940         42.50	     7.141
  38.960         43.33	     7.211
  38.980         39.17	     6.856
  39.000         46.67	     7.483
  39.020         43.33	     7.211
  39.040         45.83	     7.416
  39.060         45.83	     7.416
  39.080         48.33	     7.616
  39.100         43.33	     7.211
  39.120         51.67	     7.874
  39.140         59.17	     8.426
  39.160         36.67	     6.633
  39.180         50.00	     7.746
  39.200         53.33	     8.000
  39.220         47.50	     7.550
  39.240         54.17	     8.062
  39.260         58.33	     8.367
  39.280         56.67	     8.246
  39.300         76.67	     9.592
  39.320         99.17	    10.909
  39.340        136.67	    12.806
  39.360        150.00	    13.416
  39.380        190.00	    15.100
  39.400        152.50	    13.528
  39.420        108.33	    11.402
  39.440        109.17	    11.446
  39.460        130.83	    12.530
  39.480        105.83	    11.269
  39.500        112.50	    11.619
  39.520         82.50	     9.950
  39.540         59.17	     8.426
  39.560         71.67	     9.274
  39.580         68.33	     9.055
  39.600         52.50	     7.937
  39.620         64.17	     8.775
  39.640         58.33	     8.367
  39.660         62.50	     8.660
  39.680         59.17	     8.426
  39.700         53.33	     8.000
  39.720         52.50	     7.937
  39.740         48.33	     7.616
  39.760         45.83	     7.416
  39.780         53.33	     8.000
  39.800         52.50	     7.937
  39.820         50.83	     7.810
  39.840         61.67	     8.602
  39.860         45.00	     7.348
  39.880         60.83	     8.544
  39.900         45.83	     7.416
  39.920         45.00	     7.348
  39.940         47.50	     7.550
  39.960         51.67	     7.874
  39.980         58.33	     8.367
  40.000         50.83	     7.810
  40.020         44.17	     7.280
  40.040         40.83	     7.000
  40.060         44.17	     7.280
  40.080         45.00	     7.348
  40.100         49.17	     7.681
  40.120         65.00	     8.832
  40.140         62.50	     8.660
  40.160         70.83	     9.220
  40.180        105.00	    11.225
  40.200        135.83	    12.767
  40.220        120.00	    12.000
  40.240         94.17	    10.630
  40.260         69.17	     9.110
  40.280         81.67	     9.899
  40.300         71.67	     9.274
  40.320         85.83	    10.149
  40.340         70.00	     9.165
  40.360         43.33	     7.211
  40.380         43.33	     7.211
  40.400         50.00	     7.746
  40.420         45.83	     7.416
  40.440         41.67	     7.071
  40.460         39.17	     6.856
  40.480         35.83	     6.557
  40.500         37.50	     6.708
  40.520         43.33	     7.211
  40.540         45.83	     7.416
  40.560         39.17	     6.856
  40.580         28.33	     5.831
  40.600         41.67	     7.071
  40.620         35.00	     6.481
  40.640         42.50	     7.141
  40.660         50.83	     7.810
  40.680         53.33	     8.000
  40.700         48.33	     7.616
  40.720         45.83	     7.416
  40.740         42.50	     7.141
  40.760         52.50	     7.937
  40.780         55.00	     8.124
  40.800         60.83	     8.544
  40.820         45.00	     7.348
  40.840         49.17	     7.681
  40.860         49.17	     7.681
  40.880         57.50	     8.307
  40.900         41.67	     7.071
  40.920         51.67	     7.874
  40.940         44.17	     7.280
  40.960         54.17	     8.062
  40.980         43.33	     7.211
  41.000         58.33	     8.367
  41.020         47.50	     7.550
  41.040         36.67	     6.633
  41.060         55.83	     8.185
  41.080         55.83	     8.185
  41.100         46.67	     7.483
  41.120         62.50	     8.660
  41.140         43.33	     7.211
  41.160         45.00	     7.348
  41.180         42.50	     7.141
  41.200         50.00	     7.746
  41.220         55.83	     8.185
  41.240         45.00	     7.348
  41.260         45.83	     7.416
  41.280         48.33	     7.616
  41.300         61.67	     8.602
  41.320         50.00	     7.746
  41.340         40.00	     6.928
  41.360         40.83	     7.000
  41.380         48.33	     7.616
  41.400         46.67	     7.483
  41.420         48.33	     7.616
  41.440         55.83	     8.185
  41.460         37.50	     6.708
  41.480         48.33	     7.616
  41.500         55.83	     8.185
  41.520         73.33	     9.381
  41.540         74.17	     9.434
  41.560         92.50	    10.536
  41.580         85.83	    10.149
  41.600        105.00	    11.225
  41.620         83.33	    10.000
  41.640         99.17	    10.909
  41.660         83.33	    10.000
  41.680         86.67	    10.198
  41.700         80.00	     9.798
  41.720         83.33	    10.000
  41.740         96.67	    10.770
  41.760         75.00	     9.487
  41.780         79.17	     9.747
  41.800         76.67	     9.592
  41.820         73.33	     9.381
  41.840         80.00	     9.798
  41.860         66.67	     8.944
  41.880         89.17	    10.344
  41.900         74.17	     9.434
  41.920         60.00	     8.485
  41.940         64.17	     8.775
  41.960         71.67	     9.274
  41.980         60.00	     8.485
  42.000         65.00	     8.832
  42.020         63.33	     8.718
  42.040         59.17	     8.426
  42.060         52.50	     7.937
  42.080         57.50	     8.307
  42.100         58.33	     8.367
  42.120         57.50	     8.307
  42.140         49.17	     7.681
  42.160         57.50	     8.307
  42.180         59.17	     8.426
  42.200         62.50	     8.660
  42.220         72.50	     9.327
  42.240         60.00	     8.485
  42.260         82.50	     9.950
  42.280         91.67	    10.488
  42.300        130.00	    12.490
  42.320        146.67	    13.266
  42.340        181.67	    14.765
  42.360        181.67	    14.765
  42.380        164.17	    14.036
  42.400        125.83	    12.288
  42.420        127.50	    12.369
  42.440        100.83	    11.000
  42.460        131.67	    12.570
  42.480        122.50	    12.124
  42.500        120.00	    12.000
  42.520         76.67	     9.592
  42.540         98.33	    10.863
  42.560         62.50	     8.660
  42.580         57.50	     8.307
  42.600         64.17	     8.775
  42.620         44.17	     7.280
  42.640         67.50	     9.000
  42.660         58.33	     8.367
  42.680         60.00	     8.485
  42.700         64.17	     8.775
  42.720         67.50	     9.000
  42.740         54.17	     8.062
  42.760         58.33	     8.367
  42.780         49.17	     7.681
  42.800         49.17	     7.681
  42.820         46.67	     7.483
  42.840         53.33	     8.000
  42.860         58.33	     8.367
  42.880         39.17	     6.856
  42.900         48.33	     7.616
  42.920         43.33	     7.211
  42.940         58.33	     8.367
  42.960         56.67	     8.246
  42.980         46.67	     7.483
  43.000         55.83	     8.185
  43.020         51.67	     7.874
  43.040         54.17	     8.062
  43.060         40.83	     7.000
  43.080         45.00	     7.348
  43.100         41.67	     7.071
  43.120         56.67	     8.246
  43.140         38.33	     6.782
  43.160         46.67	     7.483
  43.180         49.17	     7.681
  43.200         53.33	     8.000
  43.220         56.67	     8.246
  43.240         60.83	     8.544
  43.260         60.00	     8.485
  43.280         61.67	     8.602
  43.300         62.50	     8.660
  43.320         43.33	     7.211
  43.340         69.17	     9.110
  43.360         66.67	     8.944
  43.380         63.33	     8.718
  43.400         69.17	     9.110
  43.420         74.17	     9.434
  43.440         80.00	     9.798
  43.460         84.17	    10.050
  43.480         88.33	    10.296
  43.500         87.50	    10.247
  43.520         98.33	    10.863
  43.540        117.50	    11.874
  43.560        103.33	    11.136
  43.580         80.83	     9.849
  43.600        100.83	    11.000
  43.620        108.33	    11.402
  43.640        115.83	    11.790
  43.660         92.50	    10.536
  43.680         79.17	     9.747
  43.700        105.00	    11.225
  43.720         75.83	     9.539
  43.740         89.17	    10.344
  43.760         95.83	    10.724
  43.780         97.50	    10.817
  43.800         99.17	    10.909
  43.820         81.67	     9.899
  43.840         95.83	    10.724
  43.860         93.33	    10.583
  43.880         57.50	     8.307
  43.900         94.17	    10.630
  43.920         98.33	    10.863
  43.940         87.50	    10.247
  43.960         88.33	    10.296
  43.980         78.33	     9.695
  44.000         95.83	    10.724
  44.020        100.00	    10.954
  44.040        100.00	    10.954
  44.060        119.17	    11.958
  44.080        115.00	    11.747
  44.100        136.67	    12.806
  44.120        129.17	    12.450
  44.140        130.83	    12.530
  44.160        140.00	    12.961
  44.180        140.00	    12.961
  44.200        168.33	    14.213
  44.220        189.17	    15.067
  44.240        190.83	    15.133
  44.260        227.50	    16.523
  44.280        218.33	    16.186
  44.300        220.83	    16.279
  44.320        238.33	    16.912
  44.340        249.17	    17.292
  44.360        244.17	    17.117
  44.380        265.00	    17.833
  44.400        276.67	    18.221
  44.420        285.83	    18.520
  44.440        276.67	    18.221
  44.460        266.67	    17.889
  44.480        271.67	    18.055
  44.500        225.00	    16.432
  44.520        243.33	    17.088
  44.540        254.17	    17.464
  44.560        251.67	    17.378
  44.580        232.50	    16.703
  44.600        208.33	    15.811
  44.620        197.50	    15.395
  44.640        215.83	    16.093
  44.660        170.00	    14.283
  44.680        160.00	    13.856
  44.700        165.83	    14.107
  44.720        162.50	    13.964
  44.740        147.50	    13.304
  44.760        147.50	    13.304
  44.780        145.83	    13.229
  44.800        124.17	    12.207
  44.820        120.00	    12.000
  44.840        120.83	    12.042
  44.860        122.50	    12.124
  44.880        115.00	    11.747
  44.900        115.83	    11.790
  44.920        104.17	    11.180
  44.940        100.83	    11.000
  44.960        105.83	    11.269
  44.980         87.50	    10.247
  45.000        101.67	    11.045
  45.020        100.00	    10.954
  45.040         93.33	    10.583
  45.060         76.67	     9.592
  45.080        100.00	    10.954
  45.100         75.00	     9.487
  45.120         79.17	     9.747
  45.140         80.83	     9.849
  45.160         73.33	     9.381
  45.180         72.50	     9.327
  45.200         81.67	     9.899
  45.220         81.67	     9.899
  45.240         62.50	     8.660
  45.260        100.00	    10.954
  45.280        105.00	    11.225
  45.300        121.67	    12.083
  45.320        116.67	    11.832
  45.340        109.17	    11.446
  45.360        135.00	    12.728
  45.380        150.83	    13.454
  45.400        156.67	    13.711
  45.420        135.00	    12.728
  45.440        162.50	    13.964
  45.460        167.50	    14.177
  45.480        166.67	    14.142
  45.500        185.00	    14.900
  45.520        152.50	    13.528
  45.540        151.67	    13.491
  45.560        134.17	    12.689
  45.580        144.17	    13.153
  45.600        102.50	    11.091
  45.620        132.50	    12.610
  45.640        140.00	    12.961
  45.660        135.83	    12.767
  45.680        190.83	    15.133
  45.700        222.50	    16.340
  45.720        195.00	    15.297
  45.740        149.17	    13.379
  45.760        102.50	    11.091
  45.780        110.83	    11.533
  45.800         97.50	    10.817
  45.820        118.33	    11.916
  45.840        128.33	    12.410
  45.860         95.00	    10.677
  45.880         95.83	    10.724
  45.900         75.83	     9.539
  45.920         63.33	     8.718
  45.940         61.67	     8.602
  45.960         57.50	     8.307
  45.980         60.00	     8.485
  46.000         49.17	     7.681
  46.020         54.17	     8.062
  46.040         47.50	     7.550
  46.060         53.33	     8.000
  46.080         38.33	     6.782
  46.100         57.50	     8.307
  46.120         39.17	     6.856
  46.140         48.33	     7.616
  46.160         55.83	     8.185
  46.180         49.17	     7.681
  46.200         41.67	     7.071
  46.220         40.00	     6.928
  46.240         42.50	     7.141
  46.260         44.17	     7.280
  46.280         44.17	     7.280
  46.300         40.83	     7.000
  46.320         30.00	     6.000
  46.340         35.83	     6.557
  46.360         35.83	     6.557
  46.380         37.50	     6.708
  46.400         38.33	     6.782
  46.420         43.33	     7.211
  46.440         35.00	     6.481
  46.460         36.67	     6.633
  46.480         39.17	     6.856
  46.500         41.67	     7.071
  46.520         44.17	     7.280
  46.540         43.33	     7.211
  46.560         41.67	     7.071
  46.580         29.17	     5.916
  46.600         32.50	     6.245
  46.620         36.67	     6.633
  46.640         39.17	     6.856
  46.660         35.00	     6.481
  46.680         41.67	     7.071
  46.700         35.83	     6.557
  46.720         30.00	     6.000
  46.740         35.83	     6.557
  46.760         45.83	     7.416
  46.780         41.67	     7.071
  46.800         27.50	     5.745
  46.820         37.50	     6.708
  46.840         33.33	     6.325
  46.860         37.50	     6.708
  46.880         38.33	     6.782
  46.900         50.83	     7.810
  46.920         45.00	     7.348
  46.940         38.33	     6.782
  46.960         42.50	     7.141
  46.980         50.83	     7.810
  47.000         56.67	     8.246
  47.020         55.00	     8.124
  47.040         69.17	     9.110
  47.060         55.83	     8.185
  47.080         41.67	     7.071
  47.100         33.33	     6.325
  47.120         54.17	     8.062
  47.140         32.50	     6.245
  47.160         43.33	     7.211
  47.180         41.67	     7.071
  47.200         42.50	     7.141
  47.220         39.17	     6.856
  47.240         39.17	     6.856
  47.260         40.83	     7.000
  47.280         34.17	     6.403
  47.300         41.67	     7.071
  47.320         35.00	     6.481
  47.340         36.67	     6.633
  47.360         39.17	     6.856
  47.380         29.17	     5.916
  47.400         41.67	     7.071
  47.420         33.33	     6.325
  47.440         33.33	     6.325
  47.460         38.33	     6.782
  47.480         45.83	     7.416
  47.500         34.17	     6.403
  47.520         39.17	     6.856
  47.540         30.00	     6.000
  47.560         30.00	     6.000
  47.580         25.83	     5.568
  47.600         34.17	     6.403
  47.620         36.67	     6.633
  47.640         28.33	     5.831
  47.660         38.33	     6.782
  47.680         32.50	     6.245
  47.700         30.83	     6.083
  47.720         32.50	     6.245
  47.740         32.50	     6.245
  47.760         38.33	     6.782
  47.780         40.83	     7.000
  47.800         39.17	     6.856
  47.820         37.50	     6.708
  47.840         42.50	     7.141
  47.860         43.33	     7.211
  47.880         56.67	     8.246
  47.900         39.17	     6.856
  47.920         48.33	     7.616
  47.940         45.83	     7.416
  47.960         45.83	     7.416
  47.980         52.50	     7.937
  48.000         31.67	     6.164
  48.020         62.50	     8.660
  48.040         59.17	     8.426
  48.060         66.67	     8.944
  48.080         64.17	     8.775
  48.100         60.83	     8.544
  48.120         49.17	     7.681
  48.140         54.17	     8.062
  48.160         56.67	     8.246
  48.180         56.67	     8.246
  48.200         68.33	     9.055
  48.220         50.83	     7.810
  48.240         60.83	     8.544
  48.260         35.83	     6.557
  48.280         46.67	     7.483
  48.300         52.50	     7.937
  48.320         45.00	     7.348
  48.340         48.33	     7.616
  48.360         49.17	     7.681
  48.380         40.83	     7.000
  48.400         45.00	     7.348
  48.420         47.50	     7.550
  48.440         51.67	     7.874
  48.460         50.00	     7.746
  48.480         41.67	     7.071
  48.500         39.17	     6.856
  48.520         38.33	     6.782
  48.540         46.67	     7.483
  48.560         40.00	     6.928
  48.580         44.17	     7.280
  48.600         39.17	     6.856
  48.620         64.17	     8.775
  48.640         35.83	     6.557
  48.660         35.83	     6.557
  48.680         43.33	     7.211
  48.700         39.17	     6.856
  48.720         34.17	     6.403
  48.740         40.00	     6.928
  48.760         49.17	     7.681
  48.780         38.33	     6.782
  48.800         37.50	     6.708
  48.820         37.50	     6.708
  48.840         36.67	     6.633
  48.860         36.67	     6.633
  48.880         30.83	     6.083
  48.900         39.17	     6.856
  48.920         46.67	     7.483
  48.940         45.83	     7.416
  48.960         35.83	     6.557
  48.980         45.00	     7.348
  49.000         30.83	     6.083
  49.020         46.67	     7.483
  49.040         35.83	     6.557
  49.060         38.33	     6.782
  49.080         40.00	     6.928
  49.100         41.67	     7.071
  49.120         55.00	     8.124
  49.140         40.83	     7.000
  49.160         41.67	     7.071
  49.180         47.50	     7.550
  49.200         40.83	     7.000
  49.220         51.67	     7.874
  49.240         45.83	     7.416
  49.260         45.83	     7.416
  49.280         40.83	     7.000
  49.300         55.00	     8.124
  49.320         36.67	     6.633
  49.340         35.83	     6.557
  49.360         37.50	     6.708
  49.380         59.17	     8.426
  49.400         47.50	     7.550
  49.420         52.50	     7.937
  49.440         56.67	     8.246
  49.460         44.17	     7.280
  49.480         52.50	     7.937
  49.500         48.33	     7.616
  49.520         45.83	     7.416
  49.540         54.17	     8.062
  49.560         49.17	     7.681
  49.580         50.83	     7.810
  49.600         55.00	     8.124
  49.620         50.00	     7.746
  49.640         63.33	     8.718
  49.660         65.00	     8.832
  49.680         64.17	     8.775
  49.700         55.83	     8.185
  49.720         76.67	     9.592
  49.740         61.67	     8.602
  49.760         60.00	     8.485
  49.780         71.67	     9.274
  49.800         73.33	     9.381
  49.820         84.17	    10.050
  49.840         85.83	    10.149
  49.860         69.17	     9.110
  49.880         84.17	    10.050
  49.900         71.67	     9.274
  49.920         73.33	     9.381
  49.940        105.00	    11.225
  49.960        105.83	    11.269
  49.980        141.67	    13.038
  50.000        204.17	    15.652
  50.020        280.00	    18.330
  50.040        426.67	    22.627
  50.060        377.50	    21.284
  50.080        231.67	    16.673
  50.100        167.50	    14.177
  50.120        141.67	    13.038
  50.140        163.33	    14.000
  50.160        240.83	    17.000
  50.180        227.50	    16.523
  50.200        209.17	    15.843
  50.220        129.17	    12.450
  50.240         74.17	     9.434
  50.260         70.83	     9.220
  50.280         60.83	     8.544
  50.300         60.00	     8.485
  50.320         55.83	     8.185
  50.340         50.00	     7.746
  50.360         58.33	     8.367
  50.380         55.83	     8.185
  50.400         62.50	     8.660
  50.420         68.33	     9.055
  50.440         66.67	     8.944
  50.460         62.50	     8.660
  50.480         75.00	     9.487
  50.500         90.83	    10.440
  50.520         83.33	    10.000
  50.540         83.33	    10.000
  50.560         76.67	     9.592
  50.580         79.17	     9.747
  50.600         80.00	     9.798
  50.620         97.50	    10.817
  50.640         87.50	    10.247
  50.660         91.67	    10.488
  50.680         71.67	     9.274
  50.700         80.83	     9.849
  50.720         55.00	     8.124
  50.740         50.00	     7.746
  50.760         58.33	     8.367
  50.780         67.50	     9.000
  50.800         55.00	     8.124
  50.820         42.50	     7.141
  50.840         50.00	     7.746
  50.860         41.67	     7.071
  50.880         45.83	     7.416
  50.900         39.17	     6.856
  50.920         50.83	     7.810
  50.940         54.17	     8.062
  50.960         48.33	     7.616
  50.980         52.50	     7.937
  51.000         65.83	     8.888
  51.020         74.17	     9.434
  51.040         67.50	     9.000
  51.060         55.83	     8.185
  51.080         73.33	     9.381
  51.100         59.17	     8.426
  51.120         64.17	     8.775
  51.140         62.50	     8.660
  51.160         67.50	     9.000
  51.180         70.00	     9.165
  51.200         58.33	     8.367
  51.220         60.83	     8.544
  51.240         42.50	     7.141
  51.260         47.50	     7.550
  51.280         51.67	     7.874
  51.300         46.67	     7.483
  51.320         39.17	     6.856
  51.340         36.67	     6.633
  51.360         46.67	     7.483
  51.380         30.83	     6.083
  51.400         42.50	     7.141
  51.420         44.17	     7.280
  51.440         28.33	     5.831
  51.460         44.17	     7.280
  51.480         39.17	     6.856
  51.500         38.33	     6.782
  51.520         36.67	     6.633
  51.540         30.00	     6.000
  51.560         41.67	     7.071
  51.580         22.50	     5.196
  51.600         38.33	     6.782
  51.620         44.17	     7.280
  51.640         39.17	     6.856
  51.660         23.33	     5.292
  51.680         26.67	     5.657
  51.700         30.83	     6.083
  51.720         22.50	     5.196
  51.740         31.67	     6.164
  51.760         21.67	     5.099
  51.780         33.33	     6.325
  51.800         32.50	     6.245
  51.820         40.00	     6.928
  51.840         35.00	     6.481
  51.860         31.67	     6.164
  51.880         48.33	     7.616
  51.900         32.50	     6.245
  51.920         35.00	     6.481
  51.940         36.67	     6.633
  51.960         40.83	     7.000
  51.980         60.83	     8.544
  52.000         52.50	     7.937
  52.020         53.33	     8.000
  52.040         64.17	     8.775
  52.060         59.17	     8.426
  52.080         52.50	     7.937
  52.100         45.00	     7.348
  52.120         40.83	     7.000
  52.140         56.67	     8.246
  52.160         45.00	     7.348
  52.180         60.83	     8.544
  52.200         45.83	     7.416
  52.220         51.67	     7.874
  52.240         54.17	     8.062
  52.260         52.50	     7.937
  52.280         55.00	     8.124
  52.300         44.17	     7.280
  52.320         54.17	     8.062
  52.340         50.00	     7.746
  52.360         51.67	     7.874
  52.380         60.83	     8.544
  52.400         58.33	     8.367
  52.420         56.67	     8.246
  52.440         49.17	     7.681
  52.460         53.33	     8.000
  52.480         70.00	     9.165
  52.500         51.67	     7.874
  52.520         48.33	     7.616
  52.540         45.83	     7.416
  52.560         50.83	     7.810
  52.580         33.33	     6.325
  52.600         35.00	     6.481
  52.620         45.83	     7.416
  52.640         46.67	     7.483
  52.660         40.00	     6.928
  52.680         42.50	     7.141
  52.700         39.17	     6.856
  52.720         31.67	     6.164
  52.740         45.00	     7.348
  52.760         48.33	     7.616
  52.780         36.67	     6.633
  52.800         35.00	     6.481
  52.820         35.83	     6.557
  52.840         51.67	     7.874
  52.860         50.83	     7.810
  52.880         26.67	     5.657
  52.900         34.17	     6.403
  52.920         41.67	     7.071
  52.940         48.33	     7.616
  52.960         40.00	     6.928
  52.980         51.67	     7.874
  53.000         30.83	     6.083
  53.020         39.17	     6.856
  53.040         44.17	     7.280
  53.060         50.00	     7.746
  53.080         41.67	     7.071
  53.100         43.33	     7.211
  53.120         54.17	     8.062
  53.140         41.67	     7.071
  53.160         52.50	     7.937
  53.180         45.83	     7.416
  53.200         53.33	     8.000
  53.220         49.17	     7.681
  53.240         58.33	     8.367
  53.260         38.33	     6.782
  53.280         45.83	     7.416
  53.300         42.50	     7.141
  53.320         33.33	     6.325
  53.340         30.00	     6.000
  53.360         32.50	     6.245
  53.380         35.00	     6.481
  53.400         35.00	     6.481
  53.420         39.17	     6.856
  53.440         31.67	     6.164
  53.460         35.00	     6.481
  53.480         24.17	     5.385
  53.500         32.50	     6.245
  53.520         41.67	     7.071
  53.540         39.17	     6.856
  53.560         35.83	     6.557
  53.580         45.83	     7.416
  53.600         40.83	     7.000
  53.620         35.83	     6.557
  53.640         42.50	     7.141
  53.660         39.17	     6.856
  53.680         28.33	     5.831
  53.700         41.67	     7.071
  53.720         45.83	     7.416
  53.740         52.50	     7.937
  53.760         39.17	     6.856
  53.780         44.17	     7.280
  53.800         45.83	     7.416
  53.820         39.17	     6.856
  53.840         42.50	     7.141
  53.860         41.67	     7.071
  53.880         33.33	     6.325
  53.900         32.50	     6.245
  53.920         25.00	     5.477
  53.940         34.17	     6.403
  53.960         43.33	     7.211
  53.980         32.50	     6.245
  54.000         31.67	     6.164
  54.020         28.33	     5.831
  54.040         35.83	     6.557
  54.060         40.83	     7.000
  54.080         36.67	     6.633
  54.100         39.17	     6.856
  54.120         42.50	     7.141
  54.140         42.50	     7.141
  54.160         60.83	     8.544
  54.180         55.00	     8.124
  54.200         52.50	     7.937
  54.220         52.50	     7.937
  54.240         59.17	     8.426
  54.260         65.00	     8.832
  54.280         62.50	     8.660
  54.300         61.67	     8.602
  54.320         52.50	     7.937
  54.340         60.83	     8.544
  54.360         45.00	     7.348
  54.380         62.50	     8.660
  54.400         56.67	     8.246
  54.420         61.67	     8.602
  54.440         45.00	     7.348
  54.460         35.00	     6.481
  54.480         40.00	     6.928
  54.500         38.33	     6.782
  54.520         40.00	     6.928
  54.540         48.33	     7.616
  54.560         41.67	     7.071
  54.580         34.17	     6.403
  54.600         40.83	     7.000
  54.620         53.33	     8.000
  54.640         56.67	     8.246
  54.660         44.17	     7.280
  54.680         61.67	     8.602
  54.700         78.33	     9.695
  54.720         95.83	    10.724
  54.740        130.83	    12.530
  54.760        153.33	    13.565
  54.780        160.00	    13.856
  54.800        155.00	    13.638
  54.820         95.83	    10.724
  54.840         97.50	    10.817
  54.860         90.83	    10.440
  54.880         80.83	     9.849
  54.900         99.17	    10.909
  54.920        106.67	    11.314
  54.940         93.33	    10.583
  54.960         90.83	    10.440
  54.980         65.83	     8.888
  55.000         63.33	     8.718
  55.020         49.17	     7.681
  55.040         45.83	     7.416
  55.060         54.17	     8.062
  55.080         45.83	     7.416
  55.100         49.17	     7.681
  55.120         50.00	     7.746
  55.140         42.50	     7.141
  55.160         65.00	     8.832
  55.180         60.00	     8.485
  55.200         62.50	     8.660
  55.220         71.67	     9.274
  55.240         65.83	     8.888
  55.260         53.33	     8.000
  55.280         46.67	     7.483
  55.300         53.33	     8.000
  55.320         42.50	     7.141
  55.340         44.17	     7.280
  55.360         54.17	     8.062
  55.380         56.67	     8.246
  55.400         39.17	     6.856
  55.420         40.83	     7.000
  55.440         47.50	     7.550
  55.460         42.50	     7.141
  55.480         42.50	     7.141
  55.500         44.17	     7.280
  55.520         44.17	     7.280
  55.540         39.17	     6.856
  55.560         47.50	     7.550
  55.580         43.33	     7.211
  55.600         52.50	     7.937
  55.620         43.33	     7.211
  55.640         54.17	     8.062
  55.660         47.50	     7.550
  55.680         68.33	     9.055
  55.700         58.33	     8.367
  55.720         69.17	     9.110
  55.740         53.33	     8.000
  55.760         55.83	     8.185
  55.780         48.33	     7.616
  55.800         63.33	     8.718
  55.820         55.83	     8.185
  55.840         59.17	     8.426
  55.860         55.00	     8.124
  55.880         50.83	     7.810
  55.900         56.67	     8.246
  55.920         42.50	     7.141
  55.940         48.33	     7.616
  55.960         45.00	     7.348
  55.980         50.83	     7.810
  56.000         48.33	     7.616
  56.020         59.17	     8.426
  56.040         45.00	     7.348
  56.060         46.67	     7.483
  56.080         63.33	     8.718
  56.100         65.83	     8.888
  56.120         55.83	     8.185
  56.140         57.50	     8.307
  56.160         52.50	     7.937
  56.180         57.50	     8.307
  56.200         43.33	     7.211
  56.220         52.50	     7.937
  56.240         51.67	     7.874
  56.260         44.17	     7.280
  56.280         43.33	     7.211
  56.300         44.17	     7.280
  56.320         35.00	     6.481
  56.340         35.83	     6.557
  56.360         47.50	     7.550
  56.380         42.50	     7.141
  56.400         41.67	     7.071
  56.420         49.17	     7.681
  56.440         52.50	     7.937
  56.460         59.17	     8.426
  56.480         63.33	     8.718
  56.500         50.00	     7.746
  56.520         50.83	     7.810
  56.540         41.67	     7.071
  56.560         50.83	     7.810
  56.580         37.50	     6.708
  56.600         54.17	     8.062
  56.620         49.17	     7.681
  56.640         57.50	     8.307
  56.660         45.83	     7.416
  56.680         33.33	     6.325
  56.700         48.33	     7.616
  56.720         52.50	     7.937
  56.740         32.50	     6.245
  56.760         40.00	     6.928
  56.780         36.67	     6.633
  56.800         38.33	     6.782
  56.820         40.83	     7.000
  56.840         35.00	     6.481
  56.860         49.17	     7.681
  56.880         35.83	     6.557
  56.900         44.17	     7.280
  56.920         50.83	     7.810
  56.940         39.17	     6.856
  56.960         31.67	     6.164
  56.980         45.83	     7.416
  57.000         26.67	     5.657
  57.020         29.17	     5.916
  57.040         39.17	     6.856
  57.060         34.17	     6.403
  57.080         49.17	     7.681
  57.100         47.50	     7.550
  57.120         47.50	     7.550
  57.140         45.00	     7.348
  57.160         41.67	     7.071
  57.180         41.67	     7.071
  57.200         40.00	     6.928
  57.220         30.00	     6.000
  57.240         35.00	     6.481
  57.260         36.67	     6.633
  57.280         42.50	     7.141
  57.300         29.17	     5.916
  57.320         38.33	     6.782
  57.340         37.50	     6.708
  57.360         43.33	     7.211
  57.380         33.33	     6.325
  57.400         39.17	     6.856
  57.420         36.67	     6.633
  57.440         43.33	     7.211
  57.460         35.00	     6.481
  57.480         43.33	     7.211
  57.500         41.67	     7.071
  57.520         40.83	     7.000
  57.540         34.17	     6.403
  57.560         35.83	     6.557
  57.580         39.17	     6.856
  57.600         35.83	     6.557
  57.620         35.83	     6.557
  57.640         38.33	     6.782
  57.660         40.83	     7.000
  57.680         36.67	     6.633
  57.700         41.67	     7.071
  57.720         30.83	     6.083
  57.740         36.67	     6.633
  57.760         45.83	     7.416
  57.780         37.50	     6.708
  57.800         30.83	     6.083
  57.820         31.67	     6.164
  57.840         34.17	     6.403
  57.860         30.00	     6.000
  57.880         40.83	     7.000
  57.900         41.67	     7.071
  57.920         44.17	     7.280
  57.940         34.17	     6.403
  57.960         44.17	     7.280
  57.980         49.17	     7.681
  58.000         42.50	     7.141
  58.020         41.67	     7.071
  58.040         35.83	     6.557
  58.060         44.17	     7.280
  58.080         35.83	     6.557
  58.100         46.67	     7.483
  58.120         50.83	     7.810
  58.140         37.50	     6.708
  58.160         44.17	     7.280
  58.180         38.33	     6.782
  58.200         49.17	     7.681
  58.220         47.50	     7.550
  58.240         40.83	     7.000
  58.260         39.17	     6.856
  58.280         38.33	     6.782
  58.300         40.83	     7.000
  58.320         39.17	     6.856
  58.340         42.50	     7.141
  58.360         40.83	     7.000
  58.380         54.17	     8.062
  58.400         42.50	     7.141
  58.420         46.67	     7.483
  58.440         40.00	     6.928
  58.460         56.67	     8.246
  58.480         34.17	     6.403
  58.500         47.50	     7.550
  58.520         52.50	     7.937
  58.540         45.83	     7.416
  58.560         49.17	     7.681
  58.580         48.33	     7.616
  58.600         44.17	     7.280
  58.620         41.67	     7.071
  58.640         48.33	     7.616
  58.660         42.50	     7.141
  58.680         42.50	     7.141
  58.700         53.33	     8.000
  58.720         45.83	     7.416
  58.740         56.67	     8.246
  58.760         54.17	     8.062
  58.780         41.67	     7.071
  58.800         49.17	     7.681
  58.820         46.67	     7.483
  58.840         45.00	     7.348
  58.860         45.83	     7.416
  58.880         66.67	     8.944
  58.900         73.33	     9.381
  58.920         53.33	     8.000
  58.940         60.00	     8.485
  58.960         53.33	     8.000
  58.980         56.67	     8.246
  59.000         54.17	     8.062
  59.020         60.00	     8.485
  59.040         51.67	     7.874
  59.060         70.83	     9.220
  59.080         71.67	     9.274
  59.100         80.83	     9.849
  59.120         76.67	     9.592
  59.140         60.83	     8.544
  59.160         60.83	     8.544
  59.180         60.00	     8.485
  59.200         66.67	     8.944
  59.220         61.67	     8.602
  59.240         55.00	     8.124
  59.260         48.33	     7.616
  59.280         58.33	     8.367
  59.300         56.67	     8.246
  59.320         45.83	     7.416
  59.340         55.00	     8.124
  59.360         42.50	     7.141
  59.380         45.00	     7.348
  59.400         44.17	     7.280
  59.420         41.67	     7.071
  59.440         44.17	     7.280
  59.460         45.00	     7.348
  59.480         51.67	     7.874
  59.500         41.67	     7.071
  59.520         57.50	     8.307
  59.540         33.33	     6.325
  59.560         39.17	     6.856
  59.580         52.50	     7.937
  59.600         45.00	     7.348
  59.620         43.33	     7.211
  59.640         57.50	     8.307
  59.660         58.33	     8.367
  59.680         73.33	     9.381
  59.700         68.33	     9.055
  59.720         70.00	     9.165
  59.740         91.67	    10.488
  59.760         98.33	    10.863
  59.780        101.67	    11.045
  59.800        134.17	    12.689
  59.820        186.67	    14.967
  59.840        258.33	    17.607
  59.860        296.67	    18.868
  59.880        261.67	    17.720
  59.900        186.67	    14.967
  59.920        175.83	    14.526
  59.940        115.00	    11.747
  59.960        114.17	    11.705
  59.980        148.33	    13.342
  60.000        145.83	    13.229
  60.020        195.00	    15.297
  60.040        163.33	    14.000
  60.060        120.00	    12.000
  60.080        110.83	    11.533
  60.100         90.83	    10.440
  60.120         65.83	     8.888
  60.140         63.33	     8.718
  60.160         63.33	     8.718
  60.180         55.00	     8.124
  60.200         45.83	     7.416
  60.220         45.00	     7.348
  60.240         43.33	     7.211
  60.260         46.67	     7.483
  60.280         52.50	     7.937
  60.300         47.50	     7.550
  60.320         49.17	     7.681
  60.340         50.83	     7.810
  60.360         39.17	     6.856
  60.380         54.17	     8.062
  60.400         56.67	     8.246
  60.420         41.67	     7.071
  60.440         48.33	     7.616
  60.460         55.83	     8.185
  60.480         64.17	     8.775
  60.500         69.17	     9.110
  60.520         52.50	     7.937
  60.540         50.00	     7.746
  60.560         54.17	     8.062
  60.580         63.33	     8.718
  60.600         56.67	     8.246
  60.620         61.67	     8.602
  60.640         69.17	     9.110
  60.660         84.17	    10.050
  60.680         72.50	     9.327
  60.700         75.00	     9.487
  60.720         69.17	     9.110
  60.740         59.17	     8.426
  60.760         54.17	     8.062
  60.780         72.50	     9.327
  60.800         73.33	     9.381
  60.820         59.17	     8.426
  60.840         65.83	     8.888
  60.860         65.00	     8.832
  60.880         56.67	     8.246
  60.900         60.00	     8.485
  60.920         60.83	     8.544
  60.940         55.83	     8.185
  60.960         51.67	     7.874
  60.980         41.67	     7.071
  61.000         50.00	     7.746
  61.020         35.83	     6.557
  61.040         53.33	     8.000
  61.060         50.00	     7.746
  61.080         43.33	     7.211
  61.100         54.17	     8.062
  61.120         35.83	     6.557
  61.140         50.83	     7.810
  61.160         42.50	     7.141
  61.180         60.83	     8.544
  61.200         53.33	     8.000
  61.220         54.17	     8.062
  61.240         55.83	     8.185
  61.260         58.33	     8.367
  61.280         57.50	     8.307
  61.300         50.83	     7.810
  61.320         60.00	     8.485
  61.340         60.00	     8.485
  61.360         79.17	     9.747
  61.380         72.50	     9.327
  61.400         59.17	     8.426
  61.420         69.17	     9.110
  61.440         66.67	     8.944
  61.460         66.67	     8.944
  61.480         64.17	     8.775
  61.500         65.00	     8.832
  61.520         85.83	    10.149
  61.540         63.33	     8.718
  61.560         74.17	     9.434
  61.580         55.00	     8.124
  61.600         67.50	     9.000
  61.620         63.33	     8.718
  61.640         71.67	     9.274
  61.660         65.00	     8.832
  61.680         68.33	     9.055
  61.700         59.17	     8.426
  61.720         53.33	     8.000
  61.740         55.00	     8.124
  61.760         63.33	     8.718
  61.780         65.00	     8.832
  61.800         55.83	     8.185
  61.820         65.83	     8.888
  61.840         72.50	     9.327
  61.860         55.83	     8.185
  61.880         70.83	     9.220
  61.900         57.50	     8.307
  61.920         45.83	     7.416
  61.940         65.00	     8.832
  61.960         57.50	     8.307
  61.980         52.50	     7.937
  62.000         59.17	     8.426
  62.020         62.50	     8.660
  62.040         60.00	     8.485
  62.060         55.83	     8.185
  62.080         48.33	     7.616
  62.100         60.00	     8.485
  62.120         48.33	     7.616
  62.140         60.83	     8.544
  62.160         49.17	     7.681
  62.180         53.33	     8.000
  62.200         48.33	     7.616
  62.220         51.67	     7.874
  62.240         46.67	     7.483
  62.260         42.50	     7.141
  62.280         44.17	     7.280
  62.300         40.83	     7.000
  62.320         40.00	     6.928
  62.340         45.83	     7.416
  62.360         55.83	     8.185
  62.380         39.17	     6.856
  62.400         41.67	     7.071
  62.420         25.83	     5.568
  62.440         44.17	     7.280
  62.460         38.33	     6.782
  62.480         44.17	     7.280
  62.500         48.33	     7.616
  62.520         43.33	     7.211
  62.540         33.33	     6.325
  62.560         35.83	     6.557
  62.580         35.83	     6.557
  62.600         37.50	     6.708
  62.620         50.00	     7.746
  62.640         45.00	     7.348
  62.660         50.00	     7.746
  62.680         38.33	     6.782
  62.700         37.50	     6.708
  62.720         40.83	     7.000
  62.740         48.33	     7.616
  62.760         41.67	     7.071
  62.780         34.17	     6.403
  62.800         45.83	     7.416
  62.820         40.00	     6.928
  62.840         35.83	     6.557
  62.860         39.17	     6.856
  62.880         30.00	     6.000
  62.900         46.67	     7.483
  62.920         31.67	     6.164
  62.940         34.17	     6.403
  62.960         33.33	     6.325
  62.980         32.50	     6.245
  63.000         41.67	     7.071
  63.020         45.83	     7.416
  63.040         40.00	     6.928
  63.060         35.83	     6.557
  63.080         33.33	     6.325
  63.100         24.17	     5.385
  63.120         30.00	     6.000
  63.140         40.00	     6.928
  63.160         40.83	     7.000
  63.180         33.33	     6.325
  63.200         43.33	     7.211
  63.220         44.17	     7.280
  63.240         48.33	     7.616
  63.260         48.33	     7.616
  63.280         53.33	     8.000
  63.300         50.00	     7.746
  63.320         57.50	     8.307
  63.340         40.83	     7.000
  63.360         56.67	     8.246
  63.380         53.33	     8.000
  63.400         40.83	     7.000
  63.420         53.33	     8.000
  63.440         59.17	     8.426
  63.460         45.00	     7.348
  63.480         47.50	     7.550
  63.500         49.17	     7.681
  63.520         45.83	     7.416
  63.540         48.33	     7.616
  63.560         56.67	     8.246
  63.580         60.00	     8.485
  63.600         59.17	     8.426
  63.620         65.00	     8.832
  63.640         55.00	     8.124
  63.660         45.00	     7.348
  63.680         47.50	     7.550
  63.700         49.17	     7.681
  63.720         46.67	     7.483
  63.740         53.33	     8.000
  63.760         48.33	     7.616
  63.780         49.17	     7.681
  63.800         67.50	     9.000
  63.820         50.00	     7.746
  63.840         57.50	     8.307
  63.860         50.00	     7.746
  63.880         62.50	     8.660
  63.900         64.17	     8.775
  63.920         76.67	     9.592
  63.940         76.67	     9.592
  63.960         61.67	     8.602
  63.980         70.00	     9.165
  64.000         56.67	     8.246
  64.020         61.67	     8.602
  64.040         58.33	     8.367
  64.060         59.17	     8.426
  64.080         76.67	     9.592
  64.100         58.33	     8.367
  64.120         75.00	     9.487
  64.140         71.67	     9.274
  64.160         47.50	     7.550
  64.180         61.67	     8.602
  64.200         43.33	     7.211
  64.220         54.17	     8.062
  64.240         51.67	     7.874
  64.260         64.17	     8.775
  64.280         49.17	     7.681
  64.300         58.33	     8.367
  64.320         47.50	     7.550
  64.340         42.50	     7.141
  64.360         48.33	     7.616
  64.380         50.83	     7.810
  64.400         38.33	     6.782
  64.420         47.50	     7.550
  64.440         52.50	     7.937
  64.460         47.50	     7.550
  64.480         49.17	     7.681
  64.500         45.00	     7.348
  64.520         47.50	     7.550
  64.540         63.33	     8.718
  64.560         65.00	     8.832
  64.580         62.50	     8.660
  64.600         74.17	     9.434
  64.620         80.00	     9.798
  64.640         66.67	     8.944
  64.660         65.83	     8.888
  64.680         63.33	     8.718
  64.700         85.00	    10.100
  64.720        108.33	    11.402
  64.740         76.67	     9.592
  64.760         84.17	    10.050
  64.780         71.67	     9.274
  64.800         78.33	     9.695
  64.820         65.83	     8.888
  64.840         69.17	     9.110
  64.860         74.17	     9.434
  64.880         55.00	     8.124
  64.900         62.50	     8.660
  64.920         72.50	     9.327
  64.940         60.83	     8.544
  64.960         55.83	     8.185
  64.980         55.83	     8.185
  65.000         54.17	     8.062
