
Filename:
	C:\Program Files\Thermo Electron\WinXRD\Datafiles\F_HERMAN\GEO\G53_RT.raw

File Created:
	February 19, 2020 - 01:28 AM

Specimen Id:
	G53_RT

Specimen Name:
	

Specimen Description:
	

Comment:
Scan Type: 2Theta Scan
Start Angle: 3 deg.
Stop Angle: 65 deg.
Num Points: 3101
Step Size: 0.02 deg.
Scan Rate: 1.000000
Scan Mode: Continuous
Wavelength: 1.540562
\Kalpha1: 1.540562	\Kalpha2: 1.544390	\Kbeta: 1.392218

Optics:
		Detector:
			 Type: Fixed Slits
		Tube: 
			 Type: Fixed Slits


Datas:
 Pos [deg]       Rate [CPS]      ESD [-]

Range 1 ---> Iteration 1
   3.000        443.33	    23.065
   3.020        426.67	    22.627
   3.040        450.83	    23.259
   3.060        430.83	    22.738
   3.080        440.00	    22.978
   3.100        429.17	    22.694
   3.120        464.17	    23.601
   3.140        434.17	    22.825
   3.160        445.00	    23.108
   3.180        448.33	    23.195
   3.200        398.33	    21.863
   3.220        420.83	    22.472
   3.240        403.33	    22.000
   3.260        423.33	    22.539
   3.280        418.33	    22.405
   3.300        393.33	    21.726
   3.320        399.17	    21.886
   3.340        388.33	    21.587
   3.360        382.50	    21.424
   3.380        378.33	    21.307
   3.400        422.50	    22.517
   3.420        418.33	    22.405
   3.440        387.50	    21.564
   3.460        370.00	    21.071
   3.480        387.50	    21.564
   3.500        376.67	    21.260
   3.520        370.83	    21.095
   3.540        371.67	    21.119
   3.560        386.67	    21.541
   3.580        342.50	    20.273
   3.600        395.00	    21.772
   3.620        364.17	    20.905
   3.640        362.50	    20.857
   3.660        370.00	    21.071
   3.680        345.83	    20.372
   3.700        363.33	    20.881
   3.720        355.00	    20.640
   3.740        341.67	    20.248
   3.760        367.50	    21.000
   3.780        348.33	    20.445
   3.800        340.83	    20.224
   3.820        325.83	    19.774
   3.840        294.17	    18.788
   3.860        338.33	    20.149
   3.880        352.50	    20.567
   3.900        341.67	    20.248
   3.920        310.00	    19.287
   3.940        346.67	    20.396
   3.960        328.33	    19.849
   3.980        356.67	    20.688
   4.000        322.50	    19.672
   4.020        316.67	    19.494
   4.040        327.50	    19.824
   4.060        336.67	    20.100
   4.080        302.50	    19.053
   4.100        309.17	    19.261
   4.120        308.33	    19.235
   4.140        302.50	    19.053
   4.160        290.83	    18.682
   4.180        310.83	    19.313
   4.200        324.17	    19.723
   4.220        322.50	    19.672
   4.240        331.67	    19.950
   4.260        300.83	    19.000
   4.280        284.17	    18.466
   4.300        287.50	    18.574
   4.320        307.50	    19.209
   4.340        301.67	    19.026
   4.360        283.33	    18.439
   4.380        285.00	    18.493
   4.400        282.50	    18.412
   4.420        302.50	    19.053
   4.440        249.17	    17.292
   4.460        266.67	    17.889
   4.480        275.00	    18.166
   4.500        285.83	    18.520
   4.520        268.33	    17.944
   4.540        291.67	    18.708
   4.560        251.67	    17.378
   4.580        271.67	    18.055
   4.600        243.33	    17.088
   4.620        263.33	    17.776
   4.640        274.17	    18.138
   4.660        260.00	    17.664
   4.680        275.00	    18.166
   4.700        274.17	    18.138
   4.720        270.00	    18.000
   4.740        263.33	    17.776
   4.760        261.67	    17.720
   4.780        281.67	    18.385
   4.800        268.33	    17.944
   4.820        236.67	    16.852
   4.840        249.17	    17.292
   4.860        270.00	    18.000
   4.880        262.50	    17.748
   4.900        241.67	    17.029
   4.920        263.33	    17.776
   4.940        245.00	    17.146
   4.960        238.33	    16.912
   4.980        263.33	    17.776
   5.000        244.17	    17.117
   5.020        260.83	    17.692
   5.040        245.83	    17.176
   5.060        236.67	    16.852
   5.080        243.33	    17.088
   5.100        253.33	    17.436
   5.120        255.83	    17.521
   5.140        252.50	    17.407
   5.160        241.67	    17.029
   5.180        219.17	    16.217
   5.200        246.67	    17.205
   5.220        240.83	    17.000
   5.240        240.83	    17.000
   5.260        237.50	    16.882
   5.280        225.83	    16.462
   5.300        220.83	    16.279
   5.320        213.33	    16.000
   5.340        254.17	    17.464
   5.360        215.00	    16.062
   5.380        255.00	    17.493
   5.400        214.17	    16.031
   5.420        210.83	    15.906
   5.440        251.67	    17.378
   5.460        246.67	    17.205
   5.480        233.33	    16.733
   5.500        205.00	    15.684
   5.520        225.00	    16.432
   5.540        203.33	    15.620
   5.560        237.50	    16.882
   5.580        222.50	    16.340
   5.600        238.33	    16.912
   5.620        218.33	    16.186
   5.640        231.67	    16.673
   5.660        235.00	    16.793
   5.680        211.67	    15.937
   5.700        221.67	    16.310
   5.720        207.50	    15.780
   5.740        236.67	    16.852
   5.760        210.83	    15.906
   5.780        209.17	    15.843
   5.800        239.17	    16.941
   5.820        227.50	    16.523
   5.840        234.17	    16.763
   5.860        225.00	    16.432
   5.880        262.50	    17.748
   5.900        222.50	    16.340
   5.920        247.50	    17.234
   5.940        230.83	    16.643
   5.960        238.33	    16.912
   5.980        238.33	    16.912
   6.000        243.33	    17.088
   6.020        268.33	    17.944
   6.040        302.50	    19.053
   6.060        303.33	    19.079
   6.080        294.17	    18.788
   6.100        316.67	    19.494
   6.120        309.17	    19.261
   6.140        335.83	    20.075
   6.160        291.67	    18.708
   6.180        263.33	    17.776
   6.200        230.00	    16.613
   6.220        222.50	    16.340
   6.240        201.67	    15.556
   6.260        193.33	    15.232
   6.280        193.33	    15.232
   6.300        180.83	    14.731
   6.320        192.50	    15.199
   6.340        220.00	    16.248
   6.360        196.67	    15.362
   6.380        172.50	    14.387
   6.400        188.33	    15.033
   6.420        171.67	    14.353
   6.440        197.50	    15.395
   6.460        198.33	    15.427
   6.480        186.67	    14.967
   6.500        171.67	    14.353
   6.520        193.33	    15.232
   6.540        175.00	    14.491
   6.560        199.17	    15.460
   6.580        192.50	    15.199
   6.600        175.83	    14.526
   6.620        185.00	    14.900
   6.640        185.00	    14.900
   6.660        186.67	    14.967
   6.680        197.50	    15.395
   6.700        159.17	    13.820
   6.720        196.67	    15.362
   6.740        203.33	    15.620
   6.760        226.67	    16.492
   6.780        172.50	    14.387
   6.800        191.67	    15.166
   6.820        182.50	    14.799
   6.840        169.17	    14.248
   6.860        179.17	    14.663
   6.880        180.00	    14.697
   6.900        161.67	    13.928
   6.920        195.00	    15.297
   6.940        175.00	    14.491
   6.960        194.17	    15.264
   6.980        179.17	    14.663
   7.000        181.67	    14.765
   7.020        166.67	    14.142
   7.040        173.33	    14.422
   7.060        155.00	    13.638
   7.080        181.67	    14.765
   7.100        193.33	    15.232
   7.120        184.17	    14.866
   7.140        181.67	    14.765
   7.160        183.33	    14.832
   7.180        180.00	    14.697
   7.200        173.33	    14.422
   7.220        164.17	    14.036
   7.240        186.67	    14.967
   7.260        198.33	    15.427
   7.280        168.33	    14.213
   7.300        164.17	    14.036
   7.320        140.83	    13.000
   7.340        159.17	    13.820
   7.360        169.17	    14.248
   7.380        178.33	    14.629
   7.400        165.00	    14.071
   7.420        155.00	    13.638
   7.440        158.33	    13.784
   7.460        168.33	    14.213
   7.480        170.83	    14.318
   7.500        170.00	    14.283
   7.520        161.67	    13.928
   7.540        154.17	    13.601
   7.560        175.83	    14.526
   7.580        164.17	    14.036
   7.600        180.83	    14.731
   7.620        140.83	    13.000
   7.640        155.00	    13.638
   7.660        163.33	    14.000
   7.680        150.83	    13.454
   7.700        145.83	    13.229
   7.720        184.17	    14.866
   7.740        167.50	    14.177
   7.760        159.17	    13.820
   7.780        160.00	    13.856
   7.800        163.33	    14.000
   7.820        159.17	    13.820
   7.840        166.67	    14.142
   7.860        141.67	    13.038
   7.880        138.33	    12.884
   7.900        148.33	    13.342
   7.920        166.67	    14.142
   7.940        165.83	    14.107
   7.960        170.00	    14.283
   7.980        171.67	    14.353
   8.000        174.17	    14.457
   8.020        164.17	    14.036
   8.040        178.33	    14.629
   8.060        150.83	    13.454
   8.080        142.50	    13.077
   8.100        154.17	    13.601
   8.120        135.83	    12.767
   8.140        155.83	    13.675
   8.160        154.17	    13.601
   8.180        168.33	    14.213
   8.200        155.83	    13.675
   8.220        159.17	    13.820
   8.240        175.00	    14.491
   8.260        145.00	    13.191
   8.280        177.50	    14.595
   8.300        181.67	    14.765
   8.320        181.67	    14.765
   8.340        190.00	    15.100
   8.360        164.17	    14.036
   8.380        162.50	    13.964
   8.400        171.67	    14.353
   8.420        179.17	    14.663
   8.440        172.50	    14.387
   8.460        185.00	    14.900
   8.480        185.83	    14.933
   8.500        187.50	    15.000
   8.520        192.50	    15.199
   8.540        178.33	    14.629
   8.560        229.17	    16.583
   8.580        258.33	    17.607
   8.600        270.83	    18.028
   8.620        302.50	    19.053
   8.640        299.17	    18.947
   8.660        360.83	    20.809
   8.680        395.00	    21.772
   8.700        389.17	    21.610
   8.720        470.00	    23.749
   8.740        596.67	    26.758
   8.760        765.83	    30.315
   8.780        900.83	    32.879
   8.800        873.33	    32.373
   8.820        642.50	    27.767
   8.840        359.17	    20.761
   8.860        237.50	    16.882
   8.880        186.67	    14.967
   8.900        156.67	    13.711
   8.920        168.33	    14.213
   8.940        160.83	    13.892
   8.960        162.50	    13.964
   8.980        151.67	    13.491
   9.000        144.17	    13.153
   9.020        160.83	    13.892
   9.040        170.83	    14.318
   9.060        187.50	    15.000
   9.080        183.33	    14.832
   9.100        200.00	    15.492
   9.120        166.67	    14.142
   9.140        148.33	    13.342
   9.160        146.67	    13.266
   9.180        157.50	    13.748
   9.200        128.33	    12.410
   9.220        142.50	    13.077
   9.240        131.67	    12.570
   9.260        155.00	    13.638
   9.280        131.67	    12.570
   9.300        162.50	    13.964
   9.320        150.83	    13.454
   9.340        154.17	    13.601
   9.360        132.50	    12.610
   9.380        147.50	    13.304
   9.400        156.67	    13.711
   9.420        137.50	    12.845
   9.440        131.67	    12.570
   9.460        109.17	    11.446
   9.480        110.00	    11.489
   9.500        149.17	    13.379
   9.520        124.17	    12.207
   9.540        130.00	    12.490
   9.560        128.33	    12.410
   9.580        129.17	    12.450
   9.600        115.00	    11.747
   9.620        134.17	    12.689
   9.640        125.00	    12.247
   9.660        120.00	    12.000
   9.680        129.17	    12.450
   9.700        101.67	    11.045
   9.720        132.50	    12.610
   9.740        119.17	    11.958
   9.760        106.67	    11.314
   9.780        123.33	    12.166
   9.800        105.83	    11.269
   9.820        121.67	    12.083
   9.840        125.00	    12.247
   9.860        119.17	    11.958
   9.880        120.00	    12.000
   9.900        115.83	    11.790
   9.920        115.00	    11.747
   9.940        120.00	    12.000
   9.960        125.83	    12.288
   9.980        124.17	    12.207
  10.000        112.50	    11.619
  10.020        110.83	    11.533
  10.040        117.50	    11.874
  10.060        103.33	    11.136
  10.080        109.17	    11.446
  10.100         97.50	    10.817
  10.120        103.33	    11.136
  10.140        113.33	    11.662
  10.160        115.00	    11.747
  10.180        107.50	    11.358
  10.200        117.50	    11.874
  10.220        124.17	    12.207
  10.240        118.33	    11.916
  10.260        115.00	    11.747
  10.280        103.33	    11.136
  10.300        114.17	    11.705
  10.320        120.00	    12.000
  10.340        124.17	    12.207
  10.360        150.00	    13.416
  10.380        135.83	    12.767
  10.400        155.83	    13.675
  10.420        160.83	    13.892
  10.440        155.00	    13.638
  10.460        156.67	    13.711
  10.480        125.83	    12.288
  10.500        116.67	    11.832
  10.520        118.33	    11.916
  10.540        123.33	    12.166
  10.560        117.50	    11.874
  10.580        116.67	    11.832
  10.600        101.67	    11.045
  10.620        106.67	    11.314
  10.640        111.67	    11.576
  10.660        135.00	    12.728
  10.680        107.50	    11.358
  10.700        112.50	    11.619
  10.720        114.17	    11.705
  10.740        105.83	    11.269
  10.760        102.50	    11.091
  10.780        108.33	    11.402
  10.800        130.83	    12.530
  10.820        102.50	    11.091
  10.840        118.33	    11.916
  10.860        108.33	    11.402
  10.880        114.17	    11.705
  10.900        113.33	    11.662
  10.920        110.00	    11.489
  10.940        126.67	    12.329
  10.960        115.83	    11.790
  10.980         92.50	    10.536
  11.000         95.83	    10.724
  11.020         90.00	    10.392
  11.040         99.17	    10.909
  11.060        114.17	    11.705
  11.080        114.17	    11.705
  11.100        113.33	    11.662
  11.120         98.33	    10.863
  11.140         95.83	    10.724
  11.160        100.00	    10.954
  11.180         99.17	    10.909
  11.200         94.17	    10.630
  11.220        110.00	    11.489
  11.240        110.00	    11.489
  11.260         96.67	    10.770
  11.280        116.67	    11.832
  11.300         90.00	    10.392
  11.320        106.67	    11.314
  11.340         99.17	    10.909
  11.360        100.83	    11.000
  11.380        105.00	    11.225
  11.400        100.83	    11.000
  11.420        123.33	    12.166
  11.440         95.83	    10.724
  11.460        105.00	    11.225
  11.480         99.17	    10.909
  11.500        102.50	    11.091
  11.520         95.83	    10.724
  11.540         97.50	    10.817
  11.560        115.00	    11.747
  11.580        125.83	    12.288
  11.600        115.00	    11.747
  11.620        120.00	    12.000
  11.640         89.17	    10.344
  11.660         95.83	    10.724
  11.680         92.50	    10.536
  11.700        105.83	    11.269
  11.720        113.33	    11.662
  11.740         94.17	    10.630
  11.760        117.50	    11.874
  11.780        106.67	    11.314
  11.800        107.50	    11.358
  11.820        108.33	    11.402
  11.840         95.00	    10.677
  11.860        127.50	    12.369
  11.880        133.33	    12.649
  11.900        130.83	    12.530
  11.920        121.67	    12.083
  11.940        125.83	    12.288
  11.960        110.00	    11.489
  11.980        170.00	    14.283
  12.000        184.17	    14.866
  12.020        219.17	    16.217
  12.040        293.33	    18.762
  12.060        503.33	    24.576
  12.080        731.67	    29.631
  12.100        853.33	    32.000
  12.120        737.50	    29.749
  12.140        495.00	    24.372
  12.160        268.33	    17.944
  12.180        224.17	    16.401
  12.200        191.67	    15.166
  12.220        237.50	    16.882
  12.240        260.83	    17.692
  12.260        248.33	    17.263
  12.280        286.67	    18.547
  12.300        286.67	    18.547
  12.320        271.67	    18.055
  12.340        290.83	    18.682
  12.360        281.67	    18.385
  12.380        383.33	    21.448
  12.400        391.67	    21.679
  12.420        385.83	    21.517
  12.440        305.00	    19.131
  12.460        222.50	    16.340
  12.480        138.33	    12.884
  12.500        114.17	    11.705
  12.520        127.50	    12.369
  12.540        124.17	    12.207
  12.560        106.67	    11.314
  12.580        116.67	    11.832
  12.600         98.33	    10.863
  12.620         86.67	    10.198
  12.640        110.83	    11.533
  12.660        109.17	    11.446
  12.680         89.17	    10.344
  12.700        103.33	    11.136
  12.720         95.83	    10.724
  12.740        100.00	    10.954
  12.760         91.67	    10.488
  12.780         95.83	    10.724
  12.800        102.50	    11.091
  12.820         85.00	    10.100
  12.840         86.67	    10.198
  12.860        114.17	    11.705
  12.880        101.67	    11.045
  12.900        100.00	    10.954
  12.920         85.00	    10.100
  12.940         98.33	    10.863
  12.960        100.83	    11.000
  12.980         82.50	     9.950
  13.000         91.67	    10.488
  13.020         83.33	    10.000
  13.040         85.00	    10.100
  13.060        105.00	    11.225
  13.080         91.67	    10.488
  13.100         94.17	    10.630
  13.120         89.17	    10.344
  13.140         85.00	    10.100
  13.160        105.00	    11.225
  13.180         86.67	    10.198
  13.200         85.83	    10.149
  13.220        100.83	    11.000
  13.240         90.83	    10.440
  13.260        107.50	    11.358
  13.280        104.17	    11.180
  13.300        101.67	    11.045
  13.320         96.67	    10.770
  13.340        101.67	    11.045
  13.360        105.83	    11.269
  13.380        106.67	    11.314
  13.400         97.50	    10.817
  13.420        101.67	    11.045
  13.440        105.00	    11.225
  13.460        103.33	    11.136
  13.480         80.00	     9.798
  13.500         90.00	    10.392
  13.520        110.83	    11.533
  13.540        113.33	    11.662
  13.560        105.83	    11.269
  13.580         89.17	    10.344
  13.600        102.50	    11.091
  13.620         71.67	     9.274
  13.640         87.50	    10.247
  13.660         83.33	    10.000
  13.680         86.67	    10.198
  13.700         90.00	    10.392
  13.720        116.67	    11.832
  13.740        132.50	    12.610
  13.760        160.83	    13.892
  13.780        146.67	    13.266
  13.800        117.50	    11.874
  13.820         99.17	    10.909
  13.840         89.17	    10.344
  13.860        105.83	    11.269
  13.880         90.83	    10.440
  13.900         76.67	     9.592
  13.920         93.33	    10.583
  13.940        100.00	    10.954
  13.960         91.67	    10.488
  13.980         95.00	    10.677
  14.000         75.83	     9.539
  14.020         86.67	    10.198
  14.040         81.67	     9.899
  14.060         66.67	     8.944
  14.080         66.67	     8.944
  14.100         76.67	     9.592
  14.120         74.17	     9.434
  14.140         60.83	     8.544
  14.160         65.83	     8.888
  14.180         70.00	     9.165
  14.200         81.67	     9.899
  14.220         71.67	     9.274
  14.240         71.67	     9.274
  14.260         90.83	    10.440
  14.280         91.67	    10.488
  14.300         78.33	     9.695
  14.320         69.17	     9.110
  14.340         86.67	    10.198
  14.360         75.83	     9.539
  14.380         79.17	     9.747
  14.400         68.33	     9.055
  14.420         85.83	    10.149
  14.440         85.00	    10.100
  14.460         80.83	     9.849
  14.480         73.33	     9.381
  14.500         80.00	     9.798
  14.520         66.67	     8.944
  14.540         80.83	     9.849
  14.560         70.83	     9.220
  14.580         75.83	     9.539
  14.600         70.00	     9.165
  14.620         97.50	    10.817
  14.640         71.67	     9.274
  14.660         75.00	     9.487
  14.680         78.33	     9.695
  14.700         88.33	    10.296
  14.720         74.17	     9.434
  14.740         83.33	    10.000
  14.760         93.33	    10.583
  14.780         88.33	    10.296
  14.800         78.33	     9.695
  14.820         89.17	    10.344
  14.840         90.00	    10.392
  14.860         75.00	     9.487
  14.880         89.17	    10.344
  14.900         74.17	     9.434
  14.920         89.17	    10.344
  14.940         93.33	    10.583
  14.960         81.67	     9.899
  14.980         79.17	     9.747
  15.000         75.83	     9.539
  15.020         81.67	     9.899
  15.040         70.83	     9.220
  15.060         87.50	    10.247
  15.080         86.67	    10.198
  15.100         77.50	     9.644
  15.120         80.83	     9.849
  15.140         79.17	     9.747
  15.160         80.83	     9.849
  15.180         77.50	     9.644
  15.200         75.00	     9.487
  15.220         75.00	     9.487
  15.240         74.17	     9.434
  15.260         69.17	     9.110
  15.280         80.00	     9.798
  15.300         73.33	     9.381
  15.320         75.00	     9.487
  15.340         61.67	     8.602
  15.360         73.33	     9.381
  15.380         77.50	     9.644
  15.400         70.83	     9.220
  15.420         71.67	     9.274
  15.440         81.67	     9.899
  15.460         63.33	     8.718
  15.480         66.67	     8.944
  15.500         65.83	     8.888
  15.520         68.33	     9.055
  15.540         69.17	     9.110
  15.560         77.50	     9.644
  15.580         54.17	     8.062
  15.600         71.67	     9.274
  15.620         60.83	     8.544
  15.640         80.00	     9.798
  15.660         58.33	     8.367
  15.680         85.00	    10.100
  15.700         69.17	     9.110
  15.720         71.67	     9.274
  15.740         90.00	    10.392
  15.760         68.33	     9.055
  15.780         72.50	     9.327
  15.800         86.67	    10.198
  15.820         67.50	     9.000
  15.840         79.17	     9.747
  15.860         76.67	     9.592
  15.880         68.33	     9.055
  15.900         75.83	     9.539
  15.920         64.17	     8.775
  15.940         63.33	     8.718
  15.960         70.83	     9.220
  15.980         69.17	     9.110
  16.000         73.33	     9.381
  16.020         70.00	     9.165
  16.040         79.17	     9.747
  16.060         73.33	     9.381
  16.080         67.50	     9.000
  16.100         76.67	     9.592
  16.120         65.00	     8.832
  16.140         74.17	     9.434
  16.160         69.17	     9.110
  16.180         65.00	     8.832
  16.200         66.67	     8.944
  16.220         70.00	     9.165
  16.240         75.83	     9.539
  16.260         67.50	     9.000
  16.280         72.50	     9.327
  16.300         65.00	     8.832
  16.320         70.83	     9.220
  16.340         54.17	     8.062
  16.360         69.17	     9.110
  16.380         70.83	     9.220
  16.400         70.00	     9.165
  16.420         65.83	     8.888
  16.440         68.33	     9.055
  16.460         57.50	     8.307
  16.480         78.33	     9.695
  16.500         66.67	     8.944
  16.520         74.17	     9.434
  16.540         53.33	     8.000
  16.560         64.17	     8.775
  16.580         67.50	     9.000
  16.600         64.17	     8.775
  16.620         62.50	     8.660
  16.640         70.83	     9.220
  16.660         78.33	     9.695
  16.680         66.67	     8.944
  16.700         59.17	     8.426
  16.720         63.33	     8.718
  16.740         60.00	     8.485
  16.760         76.67	     9.592
  16.780         64.17	     8.775
  16.800         63.33	     8.718
  16.820         69.17	     9.110
  16.840         65.83	     8.888
  16.860         77.50	     9.644
  16.880         71.67	     9.274
  16.900         70.83	     9.220
  16.920         88.33	    10.296
  16.940         62.50	     8.660
  16.960         88.33	    10.296
  16.980         60.00	     8.485
  17.000         73.33	     9.381
  17.020         63.33	     8.718
  17.040         69.17	     9.110
  17.060         65.83	     8.888
  17.080         72.50	     9.327
  17.100         64.17	     8.775
  17.120         91.67	    10.488
  17.140         62.50	     8.660
  17.160         67.50	     9.000
  17.180         76.67	     9.592
  17.200         94.17	    10.630
  17.220         59.17	     8.426
  17.240         71.67	     9.274
  17.260         78.33	     9.695
  17.280         65.83	     8.888
  17.300         53.33	     8.000
  17.320         81.67	     9.899
  17.340         66.67	     8.944
  17.360         81.67	     9.899
  17.380         78.33	     9.695
  17.400         70.83	     9.220
  17.420         78.33	     9.695
  17.440         85.00	    10.100
  17.460         82.50	     9.950
  17.480         70.83	     9.220
  17.500         90.00	    10.392
  17.520         98.33	    10.863
  17.540         80.83	     9.849
  17.560         80.83	     9.849
  17.580         94.17	    10.630
  17.600         93.33	    10.583
  17.620        102.50	    11.091
  17.640        125.83	    12.288
  17.660        171.67	    14.353
  17.680        195.83	    15.330
  17.700        250.00	    17.321
  17.720        276.67	    18.221
  17.740        292.50	    18.735
  17.760        235.00	    16.793
  17.780        187.50	    15.000
  17.800        130.00	    12.490
  17.820        100.83	    11.000
  17.840         93.33	    10.583
  17.860         73.33	     9.381
  17.880         84.17	    10.050
  17.900         68.33	     9.055
  17.920         77.50	     9.644
  17.940         81.67	     9.899
  17.960         67.50	     9.000
  17.980         73.33	     9.381
  18.000         64.17	     8.775
  18.020         72.50	     9.327
  18.040         63.33	     8.718
  18.060         65.00	     8.832
  18.080         66.67	     8.944
  18.100         75.83	     9.539
  18.120         68.33	     9.055
  18.140         94.17	    10.630
  18.160         66.67	     8.944
  18.180         75.83	     9.539
  18.200         71.67	     9.274
  18.220         75.00	     9.487
  18.240         63.33	     8.718
  18.260         80.00	     9.798
  18.280         76.67	     9.592
  18.300         86.67	    10.198
  18.320         91.67	    10.488
  18.340        106.67	    11.314
  18.360        106.67	    11.314
  18.380         89.17	    10.344
  18.400        111.67	    11.576
  18.420        103.33	    11.136
  18.440        105.83	    11.269
  18.460        137.50	    12.845
  18.480        129.17	    12.450
  18.500        131.67	    12.570
  18.520        114.17	    11.705
  18.540        116.67	    11.832
  18.560        101.67	    11.045
  18.580        104.17	    11.180
  18.600        102.50	    11.091
  18.620        104.17	    11.180
  18.640        113.33	    11.662
  18.660        128.33	    12.410
  18.680        164.17	    14.036
  18.700        173.33	    14.422
  18.720        179.17	    14.663
  18.740        120.83	    12.042
  18.760        145.00	    13.191
  18.780        110.00	    11.489
  18.800         70.00	     9.165
  18.820         63.33	     8.718
  18.840         80.83	     9.849
  18.860         82.50	     9.950
  18.880         70.83	     9.220
  18.900         62.50	     8.660
  18.920         66.67	     8.944
  18.940         76.67	     9.592
  18.960         63.33	     8.718
  18.980         70.83	     9.220
  19.000         82.50	     9.950
  19.020         72.50	     9.327
  19.040         56.67	     8.246
  19.060         75.00	     9.487
  19.080         73.33	     9.381
  19.100         82.50	     9.950
  19.120         61.67	     8.602
  19.140         75.00	     9.487
  19.160         69.17	     9.110
  19.180         95.00	    10.677
  19.200         63.33	     8.718
  19.220         79.17	     9.747
  19.240         73.33	     9.381
  19.260         91.67	    10.488
  19.280         92.50	    10.536
  19.300         64.17	     8.775
  19.320         80.00	     9.798
  19.340         81.67	     9.899
  19.360         62.50	     8.660
  19.380         73.33	     9.381
  19.400         80.00	     9.798
  19.420         70.83	     9.220
  19.440         58.33	     8.367
  19.460         78.33	     9.695
  19.480         67.50	     9.000
  19.500         61.67	     8.602
  19.520         79.17	     9.747
  19.540         84.17	    10.050
  19.560         69.17	     9.110
  19.580         90.83	    10.440
  19.600         80.00	     9.798
  19.620         85.83	    10.149
  19.640         95.83	    10.724
  19.660         85.83	    10.149
  19.680         81.67	     9.899
  19.700        105.83	    11.269
  19.720        110.00	    11.489
  19.740         76.67	     9.592
  19.760         97.50	    10.817
  19.780        111.67	    11.576
  19.800         96.67	    10.770
  19.820         92.50	    10.536
  19.840         95.83	    10.724
  19.860         95.83	    10.724
  19.880         80.00	     9.798
  19.900         80.00	     9.798
  19.920         80.00	     9.798
  19.940         80.83	     9.849
  19.960         77.50	     9.644
  19.980         68.33	     9.055
  20.000         70.83	     9.220
  20.020         79.17	     9.747
  20.040         79.17	     9.747
  20.060         64.17	     8.775
  20.080         59.17	     8.426
  20.100         63.33	     8.718
  20.120         77.50	     9.644
  20.140         62.50	     8.660
  20.160         70.83	     9.220
  20.180         86.67	    10.198
  20.200         69.17	     9.110
  20.220         70.83	     9.220
  20.240         64.17	     8.775
  20.260         80.00	     9.798
  20.280         65.83	     8.888
  20.300         65.83	     8.888
  20.320         60.00	     8.485
  20.340         54.17	     8.062
  20.360         71.67	     9.274
  20.380         72.50	     9.327
  20.400         66.67	     8.944
  20.420         71.67	     9.274
  20.440         58.33	     8.367
  20.460         63.33	     8.718
  20.480         85.00	    10.100
  20.500         65.83	     8.888
  20.520         79.17	     9.747
  20.540         84.17	    10.050
  20.560         70.83	     9.220
  20.580         86.67	    10.198
  20.600         93.33	    10.583
  20.620         73.33	     9.381
  20.640         74.17	     9.434
  20.660        117.50	    11.874
  20.680        138.33	    12.884
  20.700        208.33	    15.811
  20.720        286.67	    18.547
  20.740        539.17	    25.436
  20.760        670.00	    28.355
  20.780        573.33	    26.230
  20.800        462.50	    23.558
  20.820        381.67	    21.401
  20.840        270.83	    18.028
  20.860        148.33	    13.342
  20.880        115.83	    11.790
  20.900        118.33	    11.916
  20.920        105.83	    11.269
  20.940        119.17	    11.958
  20.960         98.33	    10.863
  20.980         74.17	     9.434
  21.000         92.50	    10.536
  21.020        100.00	    10.954
  21.040         76.67	     9.592
  21.060         77.50	     9.644
  21.080         76.67	     9.592
  21.100         73.33	     9.381
  21.120         75.83	     9.539
  21.140         90.00	    10.392
  21.160         79.17	     9.747
  21.180         74.17	     9.434
  21.200         66.67	     8.944
  21.220         55.00	     8.124
  21.240         63.33	     8.718
  21.260         56.67	     8.246
  21.280         41.67	     7.071
  21.300         50.00	     7.746
  21.320         50.83	     7.810
  21.340         67.50	     9.000
  21.360         57.50	     8.307
  21.380         65.83	     8.888
  21.400         65.83	     8.888
  21.420         50.83	     7.810
  21.440         69.17	     9.110
  21.460         58.33	     8.367
  21.480         65.00	     8.832
  21.500         59.17	     8.426
  21.520         59.17	     8.426
  21.540         60.83	     8.544
  21.560         66.67	     8.944
  21.580         56.67	     8.246
  21.600         57.50	     8.307
  21.620         60.00	     8.485
  21.640         75.83	     9.539
  21.660         60.83	     8.544
  21.680         57.50	     8.307
  21.700         68.33	     9.055
  21.720         68.33	     9.055
  21.740         71.67	     9.274
  21.760         65.00	     8.832
  21.780         91.67	    10.488
  21.800         66.67	     8.944
  21.820         88.33	    10.296
  21.840         74.17	     9.434
  21.860         95.00	    10.677
  21.880         96.67	    10.770
  21.900        155.83	    13.675
  21.920        276.67	    18.221
  21.940        340.00	    20.199
  21.960        320.83	    19.621
  21.980        308.33	    19.235
  22.000        256.67	    17.550
  22.020        199.17	    15.460
  22.040        118.33	    11.916
  22.060        108.33	    11.402
  22.080         73.33	     9.381
  22.100         75.83	     9.539
  22.120         67.50	     9.000
  22.140         95.00	    10.677
  22.160         74.17	     9.434
  22.180         64.17	     8.775
  22.200         74.17	     9.434
  22.220         67.50	     9.000
  22.240         61.67	     8.602
  22.260         76.67	     9.592
  22.280         65.00	     8.832
  22.300         69.17	     9.110
  22.320         72.50	     9.327
  22.340         76.67	     9.592
  22.360         70.83	     9.220
  22.380         96.67	    10.770
  22.400         94.17	    10.630
  22.420         89.17	    10.344
  22.440         92.50	    10.536
  22.460         69.17	     9.110
  22.480         77.50	     9.644
  22.500         80.00	     9.798
  22.520         58.33	     8.367
  22.540         70.83	     9.220
  22.560         47.50	     7.550
  22.580         85.83	    10.149
  22.600         69.17	     9.110
  22.620         61.67	     8.602
  22.640         70.00	     9.165
  22.660         64.17	     8.775
  22.680         69.17	     9.110
  22.700         72.50	     9.327
  22.720         75.83	     9.539
  22.740        110.00	    11.489
  22.760        100.83	    11.000
  22.780        100.00	    10.954
  22.800         94.17	    10.630
  22.820         98.33	    10.863
  22.840         92.50	    10.536
  22.860         93.33	    10.583
  22.880         90.00	    10.392
  22.900         85.00	    10.100
  22.920        102.50	    11.091
  22.940        102.50	    11.091
  22.960         91.67	    10.488
  22.980         84.17	    10.050
  23.000         87.50	    10.247
  23.020        103.33	    11.136
  23.040         75.83	     9.539
  23.060         75.83	     9.539
  23.080         67.50	     9.000
  23.100         70.83	     9.220
  23.120         78.33	     9.695
  23.140         50.83	     7.810
  23.160         62.50	     8.660
  23.180         61.67	     8.602
  23.200         83.33	    10.000
  23.220         75.00	     9.487
  23.240         76.67	     9.592
  23.260         74.17	     9.434
  23.280         85.00	    10.100
  23.300         76.67	     9.592
  23.320         75.83	     9.539
  23.340         86.67	    10.198
  23.360         98.33	    10.863
  23.380         90.83	    10.440
  23.400        137.50	    12.845
  23.420        245.83	    17.176
  23.440        269.17	    17.972
  23.460        249.17	    17.292
  23.480        204.17	    15.652
  23.500        209.17	    15.843
  23.520        155.83	    13.675
  23.540        137.50	    12.845
  23.560        100.83	    11.000
  23.580        105.00	    11.225
  23.600         90.83	    10.440
  23.620         85.83	    10.149
  23.640         78.33	     9.695
  23.660         91.67	    10.488
  23.680         89.17	    10.344
  23.700        104.17	    11.180
  23.720         99.17	    10.909
  23.740        115.00	    11.747
  23.760         91.67	    10.488
  23.780        100.83	    11.000
  23.800         93.33	    10.583
  23.820         99.17	    10.909
  23.840         80.83	     9.849
  23.860        103.33	    11.136
  23.880         77.50	     9.644
  23.900         90.83	    10.440
  23.920         80.83	     9.849
  23.940        103.33	    11.136
  23.960        108.33	    11.402
  23.980         61.67	     8.602
  24.000         86.67	    10.198
  24.020         98.33	    10.863
  24.040        109.17	    11.446
  24.060        119.17	    11.958
  24.080        120.83	    12.042
  24.100        125.00	    12.247
  24.120        115.00	    11.747
  24.140        139.17	    12.923
  24.160        150.00	    13.416
  24.180        155.83	    13.675
  24.200        193.33	    15.232
  24.220        186.67	    14.967
  24.240        150.00	    13.416
  24.260        124.17	    12.207
  24.280        135.00	    12.728
  24.300         85.00	    10.100
  24.320         80.00	     9.798
  24.340         97.50	    10.817
  24.360         93.33	    10.583
  24.380        105.83	    11.269
  24.400        135.00	    12.728
  24.420        180.83	    14.731
  24.440        193.33	    15.232
  24.460        312.50	    19.365
  24.480        325.83	    19.774
  24.500        341.67	    20.248
  24.520        323.33	    19.698
  24.540        352.50	    20.567
  24.560        295.83	    18.841
  24.580        255.00	    17.493
  24.600        196.67	    15.362
  24.620        183.33	    14.832
  24.640        180.00	    14.697
  24.660        170.00	    14.283
  24.680        155.00	    13.638
  24.700        141.67	    13.038
  24.720        162.50	    13.964
  24.740        145.83	    13.229
  24.760        156.67	    13.711
  24.780        142.50	    13.077
  24.800        155.00	    13.638
  24.820        156.67	    13.711
  24.840        140.00	    12.961
  24.860        160.83	    13.892
  24.880        137.50	    12.845
  24.900        144.17	    13.153
  24.920        147.50	    13.304
  24.940        149.17	    13.379
  24.960        157.50	    13.748
  24.980        175.00	    14.491
  25.000        185.83	    14.933
  25.020        235.83	    16.823
  25.040        275.00	    18.166
  25.060        305.00	    19.131
  25.080        271.67	    18.055
  25.100        233.33	    16.733
  25.120        214.17	    16.031
  25.140        155.83	    13.675
  25.160        171.67	    14.353
  25.180        104.17	    11.180
  25.200        104.17	    11.180
  25.220        119.17	    11.958
  25.240        108.33	    11.402
  25.260        129.17	    12.450
  25.280        156.67	    13.711
  25.300        142.50	    13.077
  25.320        133.33	    12.649
  25.340        160.00	    13.856
  25.360        141.67	    13.038
  25.380        175.00	    14.491
  25.400        156.67	    13.711
  25.420        156.67	    13.711
  25.440        153.33	    13.565
  25.460        132.50	    12.610
  25.480        123.33	    12.166
  25.500        151.67	    13.491
  25.520        140.00	    12.961
  25.540        166.67	    14.142
  25.560        150.83	    13.454
  25.580        152.50	    13.528
  25.600        126.67	    12.329
  25.620        106.67	    11.314
  25.640        120.00	    12.000
  25.660         97.50	    10.817
  25.680         76.67	     9.592
  25.700         83.33	    10.000
  25.720         77.50	     9.644
  25.740         82.50	     9.950
  25.760         76.67	     9.592
  25.780         92.50	    10.536
  25.800         90.83	    10.440
  25.820         69.17	     9.110
  25.840         58.33	     8.367
  25.860         82.50	     9.950
  25.880         85.83	    10.149
  25.900         65.00	     8.832
  25.920         75.00	     9.487
  25.940         75.00	     9.487
  25.960         63.33	     8.718
  25.980         83.33	    10.000
  26.000         87.50	    10.247
  26.020         79.17	     9.747
  26.040         80.00	     9.798
  26.060         75.83	     9.539
  26.080         75.00	     9.487
  26.100         82.50	     9.950
  26.120         85.83	    10.149
  26.140        102.50	    11.091
  26.160         96.67	    10.770
  26.180        130.00	    12.490
  26.200        111.67	    11.576
  26.220        125.00	    12.247
  26.240        120.00	    12.000
  26.260        148.33	    13.342
  26.280        168.33	    14.213
  26.300        201.67	    15.556
  26.320        185.00	    14.900
  26.340        225.00	    16.432
  26.360        256.67	    17.550
  26.380        235.83	    16.823
  26.400        312.50	    19.365
  26.420        309.17	    19.261
  26.440        365.83	    20.952
  26.460        492.50	    24.310
  26.480        745.00	    29.900
  26.500       1258.33	    38.859
  26.520       2266.67	    52.154
  26.540       3035.83	    60.357
  26.560       2883.33	    58.822
  26.580       2004.17	    49.041
  26.600       1851.67	    47.138
  26.620       1601.67	    43.841
  26.640        999.17	    34.627
  26.660        541.67	    25.495
  26.680        450.00	    23.238
  26.700        452.50	    23.302
  26.720        534.17	    25.318
  26.740        647.50	    27.875
  26.760        619.17	    27.258
  26.780        688.33	    28.740
  26.800        643.33	    27.785
  26.820        585.83	    26.514
  26.840        456.67	    23.409
  26.860        415.83	    22.338
  26.880        281.67	    18.385
  26.900        249.17	    17.292
  26.920        207.50	    15.780
  26.940        181.67	    14.765
  26.960        150.00	    13.416
  26.980        162.50	    13.964
  27.000        136.67	    12.806
  27.020        140.00	    12.961
  27.040        110.00	    11.489
  27.060        110.00	    11.489
  27.080        109.17	    11.446
  27.100         97.50	    10.817
  27.120        100.00	    10.954
  27.140        101.67	    11.045
  27.160        105.00	    11.225
  27.180        109.17	    11.446
  27.200         91.67	    10.488
  27.220        101.67	    11.045
  27.240        105.00	    11.225
  27.260        111.67	    11.576
  27.280        129.17	    12.450
  27.300        119.17	    11.958
  27.320        171.67	    14.353
  27.340        218.33	    16.186
  27.360        261.67	    17.720
  27.380        268.33	    17.944
  27.400        294.17	    18.788
  27.420        275.83	    18.193
  27.440        247.50	    17.234
  27.460        201.67	    15.556
  27.480        174.17	    14.457
  27.500        153.33	    13.565
  27.520        134.17	    12.689
  27.540        118.33	    11.916
  27.560        125.00	    12.247
  27.580        161.67	    13.928
  27.600        190.00	    15.100
  27.620        301.67	    19.026
  27.640        355.00	    20.640
  27.660        320.00	    19.596
  27.680        310.00	    19.287
  27.700        393.33	    21.726
  27.720        430.00	    22.716
  27.740        593.33	    26.683
  27.760       1080.00	    36.000
  27.780       1225.00	    38.341
  27.800        955.83	    33.867
  27.820       1036.67	    35.270
  27.840       1125.83	    36.756
  27.860        933.33	    33.466
  27.880        677.50	    28.513
  27.900        544.17	    25.554
  27.920        437.50	    22.913
  27.940        320.83	    19.621
  27.960        268.33	    17.944
  27.980        196.67	    15.362
  28.000        196.67	    15.362
  28.020        175.83	    14.526
  28.040        175.00	    14.491
  28.060        175.83	    14.526
  28.080        165.83	    14.107
  28.100        166.67	    14.142
  28.120        125.83	    12.288
  28.140        130.00	    12.490
  28.160        164.17	    14.036
  28.180        285.00	    18.493
  28.200        437.50	    22.913
  28.220        420.00	    22.450
  28.240        313.33	    19.391
  28.260        230.00	    16.613
  28.280        265.83	    17.861
  28.300        225.83	    16.462
  28.320        135.83	    12.767
  28.340        110.83	    11.533
  28.360         74.17	     9.434
  28.380         98.33	    10.863
  28.400        107.50	    11.358
  28.420         89.17	    10.344
  28.440         98.33	    10.863
  28.460         97.50	    10.817
  28.480        106.67	    11.314
  28.500        129.17	    12.450
  28.520         95.83	    10.724
  28.540        117.50	    11.874
  28.560        109.17	    11.446
  28.580         92.50	    10.536
  28.600        101.67	    11.045
  28.620        100.00	    10.954
  28.640         90.00	    10.392
  28.660         93.33	    10.583
  28.680        102.50	    11.091
  28.700        105.83	    11.269
  28.720         82.50	     9.950
  28.740         85.00	    10.100
  28.760         87.50	    10.247
  28.780         75.00	     9.487
  28.800         76.67	     9.592
  28.820         59.17	     8.426
  28.840         63.33	     8.718
  28.860         45.83	     7.416
  28.880         57.50	     8.307
  28.900         48.33	     7.616
  28.920         66.67	     8.944
  28.940         50.83	     7.810
  28.960         61.67	     8.602
  28.980         59.17	     8.426
  29.000         59.17	     8.426
  29.020         50.83	     7.810
  29.040         65.83	     8.888
  29.060         48.33	     7.616
  29.080         64.17	     8.775
  29.100         76.67	     9.592
  29.120         57.50	     8.307
  29.140         60.83	     8.544
  29.160         47.50	     7.550
  29.180         55.00	     8.124
  29.200         60.83	     8.544
  29.220         56.67	     8.246
  29.240         65.00	     8.832
  29.260         55.83	     8.185
  29.280         47.50	     7.550
  29.300         65.83	     8.888
  29.320         63.33	     8.718
  29.340         58.33	     8.367
  29.360         75.83	     9.539
  29.380         64.17	     8.775
  29.400         66.67	     8.944
  29.420         60.83	     8.544
  29.440         63.33	     8.718
  29.460         63.33	     8.718
  29.480         62.50	     8.660
  29.500         65.83	     8.888
  29.520         62.50	     8.660
  29.540         72.50	     9.327
  29.560         78.33	     9.695
  29.580         70.83	     9.220
  29.600         83.33	    10.000
  29.620         71.67	     9.274
  29.640         65.83	     8.888
  29.660         80.83	     9.849
  29.680         98.33	    10.863
  29.700         91.67	    10.488
  29.720        114.17	    11.705
  29.740        131.67	    12.570
  29.760        106.67	    11.314
  29.780        110.00	    11.489
  29.800        133.33	    12.649
  29.820        102.50	    11.091
  29.840        114.17	    11.705
  29.860        114.17	    11.705
  29.880         95.00	    10.677
  29.900        103.33	    11.136
  29.920        109.17	    11.446
  29.940         95.00	    10.677
  29.960         89.17	    10.344
  29.980        137.50	    12.845
  30.000        195.00	    15.297
  30.020        260.00	    17.664
  30.040        205.83	    15.716
  30.060        140.83	    13.000
  30.080        160.83	    13.892
  30.100        176.67	    14.560
  30.120        120.83	    12.042
  30.140        117.50	    11.874
  30.160        106.67	    11.314
  30.180         82.50	     9.950
  30.200        112.50	    11.619
  30.220        110.00	    11.489
  30.240         92.50	    10.536
  30.260        101.67	    11.045
  30.280        105.00	    11.225
  30.300         96.67	    10.770
  30.320        110.83	    11.533
  30.340        120.00	    12.000
  30.360        120.00	    12.000
  30.380        100.00	    10.954
  30.400        109.17	    11.446
  30.420        125.83	    12.288
  30.440        113.33	    11.662
  30.460        110.83	    11.533
  30.480         97.50	    10.817
  30.500         95.83	    10.724
  30.520         62.50	     8.660
  30.540         60.00	     8.485
  30.560         80.00	     9.798
  30.580         68.33	     9.055
  30.600         52.50	     7.937
  30.620         73.33	     9.381
  30.640         65.00	     8.832
  30.660         68.33	     9.055
  30.680         94.17	    10.630
  30.700         94.17	    10.630
  30.720        135.83	    12.767
  30.740        213.33	    16.000
  30.760        291.67	    18.708
  30.780        182.50	    14.799
  30.800        122.50	    12.124
  30.820        166.67	    14.142
  30.840        158.33	    13.784
  30.860        112.50	    11.619
  30.880         85.83	    10.149
  30.900         78.33	     9.695
  30.920         59.17	     8.426
  30.940         72.50	     9.327
  30.960         71.67	     9.274
  30.980         88.33	    10.296
  31.000         62.50	     8.660
  31.020         75.00	     9.487
  31.040         81.67	     9.899
  31.060         96.67	    10.770
  31.080        102.50	    11.091
  31.100         90.83	    10.440
  31.120        112.50	    11.619
  31.140        103.33	    11.136
  31.160        118.33	    11.916
  31.180        118.33	    11.916
  31.200        103.33	    11.136
  31.220         98.33	    10.863
  31.240        120.00	    12.000
  31.260        100.83	    11.000
  31.280         90.83	    10.440
  31.300         85.83	    10.149
  31.320         75.00	     9.487
  31.340         79.17	     9.747
  31.360         75.00	     9.487
  31.380         75.83	     9.539
  31.400         65.83	     8.888
  31.420         70.83	     9.220
  31.440         87.50	    10.247
  31.460         85.83	    10.149
  31.480         73.33	     9.381
  31.500         98.33	    10.863
  31.520         86.67	    10.198
  31.540         85.00	    10.100
  31.560         77.50	     9.644
  31.580         71.67	     9.274
  31.600         55.83	     8.185
  31.620         75.00	     9.487
  31.640         55.83	     8.185
  31.660         55.00	     8.124
  31.680         42.50	     7.141
  31.700         50.83	     7.810
  31.720         46.67	     7.483
  31.740         45.00	     7.348
  31.760         50.00	     7.746
  31.780         61.67	     8.602
  31.800         54.17	     8.062
  31.820         50.83	     7.810
  31.840         65.83	     8.888
  31.860         58.33	     8.367
  31.880         70.83	     9.220
  31.900         72.50	     9.327
  31.920         74.17	     9.434
  31.940         75.83	     9.539
  31.960         75.83	     9.539
  31.980         76.67	     9.592
  32.000         76.67	     9.592
  32.020         85.00	    10.100
  32.040         92.50	    10.536
  32.060         60.00	     8.485
  32.080         85.00	    10.100
  32.100         65.00	     8.832
  32.120         71.67	     9.274
  32.140         66.67	     8.944
  32.160         62.50	     8.660
  32.180         77.50	     9.644
  32.200         64.17	     8.775
  32.220         60.00	     8.485
  32.240         62.50	     8.660
  32.260         46.67	     7.483
  32.280         53.33	     8.000
  32.300         59.17	     8.426
  32.320         49.17	     7.681
  32.340         55.83	     8.185
  32.360         52.50	     7.937
  32.380         55.83	     8.185
  32.400         54.17	     8.062
  32.420         46.67	     7.483
  32.440         50.00	     7.746
  32.460         45.83	     7.416
  32.480         57.50	     8.307
  32.500         49.17	     7.681
  32.520         43.33	     7.211
  32.540         43.33	     7.211
  32.560         33.33	     6.325
  32.580         55.00	     8.124
  32.600         47.50	     7.550
  32.620         43.33	     7.211
  32.640         47.50	     7.550
  32.660         50.00	     7.746
  32.680         45.00	     7.348
  32.700         50.00	     7.746
  32.720         50.00	     7.746
  32.740         59.17	     8.426
  32.760         61.67	     8.602
  32.780         69.17	     9.110
  32.800         61.67	     8.602
  32.820         91.67	    10.488
  32.840         74.17	     9.434
  32.860         82.50	     9.950
  32.880         75.83	     9.539
  32.900         73.33	     9.381
  32.920         84.17	    10.050
  32.940         78.33	     9.695
  32.960         90.83	    10.440
  32.980         85.83	    10.149
  33.000         66.67	     8.944
  33.020         74.17	     9.434
  33.040         71.67	     9.274
  33.060         76.67	     9.592
  33.080         67.50	     9.000
  33.100         60.83	     8.544
  33.120         46.67	     7.483
  33.140         58.33	     8.367
  33.160         43.33	     7.211
  33.180         37.50	     6.708
  33.200         55.00	     8.124
  33.220         50.83	     7.810
  33.240         51.67	     7.874
  33.260         59.17	     8.426
  33.280         56.67	     8.246
  33.300         47.50	     7.550
  33.320         51.67	     7.874
  33.340         62.50	     8.660
  33.360         48.33	     7.616
  33.380         58.33	     8.367
  33.400         43.33	     7.211
  33.420         44.17	     7.280
  33.440         38.33	     6.782
  33.460         56.67	     8.246
  33.480         54.17	     8.062
  33.500         56.67	     8.246
  33.520         62.50	     8.660
  33.540         61.67	     8.602
  33.560         46.67	     7.483
  33.580         47.50	     7.550
  33.600         46.67	     7.483
  33.620         48.33	     7.616
  33.640         57.50	     8.307
  33.660         47.50	     7.550
  33.680         45.00	     7.348
  33.700         42.50	     7.141
  33.720         52.50	     7.937
  33.740         56.67	     8.246
  33.760         56.67	     8.246
  33.780         61.67	     8.602
  33.800         57.50	     8.307
  33.820         60.00	     8.485
  33.840         83.33	    10.000
  33.860         72.50	     9.327
  33.880         59.17	     8.426
  33.900         55.00	     8.124
  33.920         80.00	     9.798
  33.940         75.83	     9.539
  33.960         78.33	     9.695
  33.980         75.00	     9.487
  34.000         56.67	     8.246
  34.020         64.17	     8.775
  34.040         70.83	     9.220
  34.060         59.17	     8.426
  34.080         47.50	     7.550
  34.100         52.50	     7.937
  34.120         64.17	     8.775
  34.140         47.50	     7.550
  34.160         58.33	     8.367
  34.180         70.00	     9.165
  34.200         68.33	     9.055
  34.220         68.33	     9.055
  34.240         67.50	     9.000
  34.260         69.17	     9.110
  34.280         66.67	     8.944
  34.300         77.50	     9.644
  34.320         75.83	     9.539
  34.340         77.50	     9.644
  34.360         78.33	     9.695
  34.380         82.50	     9.950
  34.400         87.50	    10.247
  34.420         93.33	    10.583
  34.440        120.00	    12.000
  34.460         96.67	    10.770
  34.480        100.00	    10.954
  34.500        112.50	    11.619
  34.520         92.50	    10.536
  34.540        112.50	    11.619
  34.560        106.67	    11.314
  34.580        123.33	    12.166
  34.600         91.67	    10.488
  34.620         98.33	    10.863
  34.640         79.17	     9.747
  34.660         95.00	    10.677
  34.680        100.00	    10.954
  34.700         86.67	    10.198
  34.720        100.83	    11.000
  34.740        116.67	    11.832
  34.760        109.17	    11.446
  34.780         88.33	    10.296
  34.800        115.00	    11.747
  34.820        105.00	    11.225
  34.840        111.67	    11.576
  34.860        113.33	    11.662
  34.880        139.17	    12.923
  34.900        116.67	    11.832
  34.920        119.17	    11.958
  34.940        123.33	    12.166
  34.960        120.83	    12.042
  34.980        125.00	    12.247
  35.000        107.50	    11.358
  35.020         91.67	    10.488
  35.040         74.17	     9.434
  35.060         88.33	    10.296
  35.080         97.50	    10.817
  35.100         75.83	     9.539
  35.120         86.67	    10.198
  35.140         77.50	     9.644
  35.160         79.17	     9.747
  35.180         71.67	     9.274
  35.200         75.00	     9.487
  35.220         79.17	     9.747
  35.240         90.83	    10.440
  35.260         70.00	     9.165
  35.280         94.17	    10.630
  35.300         76.67	     9.592
  35.320         82.50	     9.950
  35.340        110.83	    11.533
  35.360        131.67	    12.570
  35.380        141.67	    13.038
  35.400        153.33	    13.565
  35.420        173.33	    14.422
  35.440        192.50	    15.199
  35.460        173.33	    14.422
  35.480        175.83	    14.526
  35.500        171.67	    14.353
  35.520        160.83	    13.892
  35.540        160.83	    13.892
  35.560        132.50	    12.610
  35.580        105.83	    11.269
  35.600        112.50	    11.619
  35.620         95.00	    10.677
  35.640         95.83	    10.724
  35.660         91.67	    10.488
  35.680         77.50	     9.644
  35.700         75.00	     9.487
  35.720         81.67	     9.899
  35.740         70.83	     9.220
  35.760         70.83	     9.220
  35.780         73.33	     9.381
  35.800         52.50	     7.937
  35.820         69.17	     9.110
  35.840         80.00	     9.798
  35.860         70.00	     9.165
  35.880         65.83	     8.888
  35.900         65.00	     8.832
  35.920         85.00	    10.100
  35.940         83.33	    10.000
  35.960         87.50	    10.247
  35.980         75.83	     9.539
  36.000         90.83	    10.440
  36.020         92.50	    10.536
  36.040         95.00	    10.677
  36.060        109.17	    11.446
  36.080        148.33	    13.342
  36.100        136.67	    12.806
  36.120         90.00	    10.392
  36.140         75.83	     9.539
  36.160         90.83	    10.440
  36.180        109.17	    11.446
  36.200        103.33	    11.136
  36.220         75.00	     9.487
  36.240         65.83	     8.888
  36.260         70.00	     9.165
  36.280         72.50	     9.327
  36.300         64.17	     8.775
  36.320         85.00	    10.100
  36.340         84.17	    10.050
  36.360        102.50	    11.091
  36.380        110.00	    11.489
  36.400        150.00	    13.416
  36.420        223.33	    16.371
  36.440        253.33	    17.436
  36.460        227.50	    16.523
  36.480        182.50	    14.799
  36.500        155.00	    13.638
  36.520        156.67	    13.711
  36.540        186.67	    14.967
  36.560        151.67	    13.491
  36.580        146.67	    13.266
  36.600        120.83	    12.042
  36.620        120.00	    12.000
  36.640        125.00	    12.247
  36.660        126.67	    12.329
  36.680        110.83	    11.533
  36.700        105.83	    11.269
  36.720         81.67	     9.899
  36.740         90.00	    10.392
  36.760         90.00	    10.392
  36.780         63.33	     8.718
  36.800         50.00	     7.746
  36.820         65.83	     8.888
  36.840         70.00	     9.165
  36.860         62.50	     8.660
  36.880         60.83	     8.544
  36.900         62.50	     8.660
  36.920         55.00	     8.124
  36.940         61.67	     8.602
  36.960         67.50	     9.000
  36.980         60.00	     8.485
  37.000         63.33	     8.718
  37.020         59.17	     8.426
  37.040         64.17	     8.775
  37.060         80.00	     9.798
  37.080         83.33	    10.000
  37.100         82.50	     9.950
  37.120         65.00	     8.832
  37.140         75.83	     9.539
  37.160         67.50	     9.000
  37.180         72.50	     9.327
  37.200         72.50	     9.327
  37.220         73.33	     9.381
  37.240         62.50	     8.660
  37.260         70.83	     9.220
  37.280         68.33	     9.055
  37.300         65.83	     8.888
  37.320         77.50	     9.644
  37.340         70.83	     9.220
  37.360         61.67	     8.602
  37.380         75.83	     9.539
  37.400         76.67	     9.592
  37.420         73.33	     9.381
  37.440         75.83	     9.539
  37.460         71.67	     9.274
  37.480         79.17	     9.747
  37.500         68.33	     9.055
  37.520         80.00	     9.798
  37.540         80.00	     9.798
  37.560         98.33	    10.863
  37.580         78.33	     9.695
  37.600         85.00	    10.100
  37.620         84.17	    10.050
  37.640         85.83	    10.149
  37.660         99.17	    10.909
  37.680         79.17	     9.747
  37.700         60.83	     8.544
  37.720         77.50	     9.644
  37.740         58.33	     8.367
  37.760         62.50	     8.660
  37.780         56.67	     8.246
  37.800         59.17	     8.426
  37.820         65.00	     8.832
  37.840         39.17	     6.856
  37.860         48.33	     7.616
  37.880         55.83	     8.185
  37.900         50.83	     7.810
  37.920         50.83	     7.810
  37.940         35.83	     6.557
  37.960         50.83	     7.810
  37.980         51.67	     7.874
  38.000         45.83	     7.416
  38.020         44.17	     7.280
  38.040         45.00	     7.348
  38.060         45.00	     7.348
  38.080         31.67	     6.164
  38.100         40.83	     7.000
  38.120         45.83	     7.416
  38.140         59.17	     8.426
  38.160         50.00	     7.746
  38.180         40.00	     6.928
  38.200         38.33	     6.782
  38.220         45.83	     7.416
  38.240         36.67	     6.633
  38.260         39.17	     6.856
  38.280         46.67	     7.483
  38.300         40.00	     6.928
  38.320         36.67	     6.633
  38.340         53.33	     8.000
  38.360         50.00	     7.746
  38.380         45.83	     7.416
  38.400         45.83	     7.416
  38.420         55.00	     8.124
  38.440         55.83	     8.185
  38.460         62.50	     8.660
  38.480         72.50	     9.327
  38.500         55.00	     8.124
  38.520         76.67	     9.592
  38.540         69.17	     9.110
  38.560         83.33	    10.000
  38.580         60.83	     8.544
  38.600         63.33	     8.718
  38.620         72.50	     9.327
  38.640         55.00	     8.124
  38.660         62.50	     8.660
  38.680         71.67	     9.274
  38.700         94.17	    10.630
  38.720        110.83	    11.533
  38.740         86.67	    10.198
  38.760         89.17	    10.344
  38.780         66.67	     8.944
  38.800         62.50	     8.660
  38.820         80.00	     9.798
  38.840         79.17	     9.747
  38.860         58.33	     8.367
  38.880         49.17	     7.681
  38.900         48.33	     7.616
  38.920         52.50	     7.937
  38.940         54.17	     8.062
  38.960         44.17	     7.280
  38.980         49.17	     7.681
  39.000         56.67	     8.246
  39.020         43.33	     7.211
  39.040         47.50	     7.550
  39.060         43.33	     7.211
  39.080         54.17	     8.062
  39.100         48.33	     7.616
  39.120         47.50	     7.550
  39.140         46.67	     7.483
  39.160         60.83	     8.544
  39.180         55.00	     8.124
  39.200         54.17	     8.062
  39.220         43.33	     7.211
  39.240         52.50	     7.937
  39.260         53.33	     8.000
  39.280         64.17	     8.775
  39.300         90.83	    10.440
  39.320        110.00	    11.489
  39.340        171.67	    14.353
  39.360        255.83	    17.521
  39.380        243.33	    17.088
  39.400        194.17	    15.264
  39.420        135.00	    12.728
  39.440        120.00	    12.000
  39.460        137.50	    12.845
  39.480        160.83	    13.892
  39.500        147.50	    13.304
  39.520         93.33	    10.583
  39.540         71.67	     9.274
  39.560         80.83	     9.849
  39.580         77.50	     9.644
  39.600         69.17	     9.110
  39.620         57.50	     8.307
  39.640         56.67	     8.246
  39.660         49.17	     7.681
  39.680         59.17	     8.426
  39.700         75.83	     9.539
  39.720         75.83	     9.539
  39.740         55.83	     8.185
  39.760         51.67	     7.874
  39.780         55.83	     8.185
  39.800         51.67	     7.874
  39.820         64.17	     8.775
  39.840         75.00	     9.487
  39.860         70.00	     9.165
  39.880         70.83	     9.220
  39.900         50.83	     7.810
  39.920         52.50	     7.937
  39.940         67.50	     9.000
  39.960         55.00	     8.124
  39.980         44.17	     7.280
  40.000         48.33	     7.616
  40.020         55.00	     8.124
  40.040         50.00	     7.746
  40.060         42.50	     7.141
  40.080         46.67	     7.483
  40.100         55.83	     8.185
  40.120         55.83	     8.185
  40.140         78.33	     9.695
  40.160        115.00	    11.747
  40.180        146.67	    13.266
  40.200        146.67	    13.266
  40.220        113.33	    11.662
  40.240         79.17	     9.747
  40.260        101.67	    11.045
  40.280        123.33	    12.166
  40.300         99.17	    10.909
  40.320         85.83	    10.149
  40.340         62.50	     8.660
  40.360         69.17	     9.110
  40.380         54.17	     8.062
  40.400         63.33	     8.718
  40.420         54.17	     8.062
  40.440         47.50	     7.550
  40.460         50.00	     7.746
  40.480         49.17	     7.681
  40.500         50.83	     7.810
  40.520         43.33	     7.211
  40.540         50.00	     7.746
  40.560         45.83	     7.416
  40.580         51.67	     7.874
  40.600         47.50	     7.550
  40.620         48.33	     7.616
  40.640         52.50	     7.937
  40.660         68.33	     9.055
  40.680         46.67	     7.483
  40.700         46.67	     7.483
  40.720         56.67	     8.246
  40.740         52.50	     7.937
  40.760         58.33	     8.367
  40.780         47.50	     7.550
  40.800         55.83	     8.185
  40.820         54.17	     8.062
  40.840         50.83	     7.810
  40.860         43.33	     7.211
  40.880         64.17	     8.775
  40.900         41.67	     7.071
  40.920         46.67	     7.483
  40.940         51.67	     7.874
  40.960         57.50	     8.307
  40.980         43.33	     7.211
  41.000         41.67	     7.071
  41.020         55.83	     8.185
  41.040         65.00	     8.832
  41.060         61.67	     8.602
  41.080         57.50	     8.307
  41.100         60.00	     8.485
  41.120         58.33	     8.367
  41.140         66.67	     8.944
  41.160         69.17	     9.110
  41.180         65.83	     8.888
  41.200         73.33	     9.381
  41.220         69.17	     9.110
  41.240         53.33	     8.000
  41.260         67.50	     9.000
  41.280         51.67	     7.874
  41.300         39.17	     6.856
  41.320         55.83	     8.185
  41.340         49.17	     7.681
  41.360         65.83	     8.888
  41.380         62.50	     8.660
  41.400         59.17	     8.426
  41.420         54.17	     8.062
  41.440         60.83	     8.544
  41.460         51.67	     7.874
  41.480         52.50	     7.937
  41.500         62.50	     8.660
  41.520         69.17	     9.110
  41.540         75.00	     9.487
  41.560         82.50	     9.950
  41.580         93.33	    10.583
  41.600        138.33	    12.884
  41.620        120.00	    12.000
  41.640         90.83	    10.440
  41.660         83.33	    10.000
  41.680         85.00	    10.100
  41.700         81.67	     9.899
  41.720         80.83	     9.849
  41.740         97.50	    10.817
  41.760         81.67	     9.899
  41.780         70.00	     9.165
  41.800         70.00	     9.165
  41.820         73.33	     9.381
  41.840         77.50	     9.644
  41.860         90.00	    10.392
  41.880         71.67	     9.274
  41.900         75.00	     9.487
  41.920         69.17	     9.110
  41.940         76.67	     9.592
  41.960         77.50	     9.644
  41.980         70.00	     9.165
  42.000         87.50	    10.247
  42.020         85.00	    10.100
  42.040         78.33	     9.695
  42.060         69.17	     9.110
  42.080         57.50	     8.307
  42.100         59.17	     8.426
  42.120         76.67	     9.592
  42.140         80.00	     9.798
  42.160         60.83	     8.544
  42.180         83.33	    10.000
  42.200         79.17	     9.747
  42.220        106.67	    11.314
  42.240        131.67	    12.570
  42.260        114.17	    11.705
  42.280        111.67	    11.576
  42.300        123.33	    12.166
  42.320        232.50	    16.703
  42.340        288.33	    18.601
  42.360        262.50	    17.748
  42.380        220.00	    16.248
  42.400        170.00	    14.283
  42.420        158.33	    13.784
  42.440        179.17	    14.663
  42.460        177.50	    14.595
  42.480        147.50	    13.304
  42.500        137.50	    12.845
  42.520         95.83	    10.724
  42.540         80.83	     9.849
  42.560         87.50	    10.247
  42.580         66.67	     8.944
  42.600         65.00	     8.832
  42.620         73.33	     9.381
  42.640         70.00	     9.165
  42.660         68.33	     9.055
  42.680         70.00	     9.165
  42.700         69.17	     9.110
  42.720         75.83	     9.539
  42.740        100.00	    10.954
  42.760         85.83	    10.149
  42.780         69.17	     9.110
  42.800         79.17	     9.747
  42.820         62.50	     8.660
  42.840         65.00	     8.832
  42.860         95.00	    10.677
  42.880         76.67	     9.592
  42.900         58.33	     8.367
  42.920         88.33	    10.296
  42.940         78.33	     9.695
  42.960         92.50	    10.536
  42.980         86.67	    10.198
  43.000         93.33	    10.583
  43.020        105.83	    11.269
  43.040        101.67	    11.045
  43.060        108.33	    11.402
  43.080        109.17	    11.446
  43.100        117.50	    11.874
  43.120        109.17	    11.446
  43.140        124.17	    12.207
  43.160        134.17	    12.689
  43.180        143.33	    13.115
  43.200        135.00	    12.728
  43.220        151.67	    13.491
  43.240        157.50	    13.748
  43.260        174.17	    14.457
  43.280        218.33	    16.186
  43.300        210.00	    15.875
  43.320        220.00	    16.248
  43.340        227.50	    16.523
  43.360        240.83	    17.000
  43.380        222.50	    16.340
  43.400        222.50	    16.340
  43.420        225.00	    16.432
  43.440        236.67	    16.852
  43.460        223.33	    16.371
  43.480        240.83	    17.000
  43.500        245.00	    17.146
  43.520        220.83	    16.279
  43.540        190.83	    15.133
  43.560        210.00	    15.875
  43.580        193.33	    15.232
  43.600        174.17	    14.457
  43.620        176.67	    14.560
  43.640        170.83	    14.318
  43.660        155.83	    13.675
  43.680        160.83	    13.892
  43.700        145.00	    13.191
  43.720        146.67	    13.266
  43.740        116.67	    11.832
  43.760        120.83	    12.042
  43.780        126.67	    12.329
  43.800        103.33	    11.136
  43.820         97.50	    10.817
  43.840        108.33	    11.402
  43.860         86.67	    10.198
  43.880         85.00	    10.100
  43.900         94.17	    10.630
  43.920         83.33	    10.000
  43.940         94.17	    10.630
  43.960         84.17	    10.050
  43.980         75.00	     9.487
  44.000         76.67	     9.592
  44.020         85.00	    10.100
  44.040         72.50	     9.327
  44.060         71.67	     9.274
  44.080         78.33	     9.695
  44.100         74.17	     9.434
  44.120         76.67	     9.592
  44.140         62.50	     8.660
  44.160         64.17	     8.775
  44.180         74.17	     9.434
  44.200         83.33	    10.000
  44.220         50.00	     7.746
  44.240         64.17	     8.775
  44.260         65.00	     8.832
  44.280         72.50	     9.327
  44.300         53.33	     8.000
  44.320         52.50	     7.937
  44.340         59.17	     8.426
  44.360         63.33	     8.718
  44.380         63.33	     8.718
  44.400         53.33	     8.000
  44.420         65.00	     8.832
  44.440         49.17	     7.681
  44.460         47.50	     7.550
  44.480         62.50	     8.660
  44.500         55.83	     8.185
  44.520         44.17	     7.280
  44.540         48.33	     7.616
  44.560         49.17	     7.681
  44.580         53.33	     8.000
  44.600         47.50	     7.550
  44.620         53.33	     8.000
  44.640         42.50	     7.141
  44.660         62.50	     8.660
  44.680         60.00	     8.485
  44.700         53.33	     8.000
  44.720         57.50	     8.307
  44.740         66.67	     8.944
  44.760         67.50	     9.000
  44.780         60.83	     8.544
  44.800         72.50	     9.327
  44.820         75.00	     9.487
  44.840         73.33	     9.381
  44.860         65.83	     8.888
  44.880         85.83	    10.149
  44.900         69.17	     9.110
  44.920         89.17	    10.344
  44.940         64.17	     8.775
  44.960         72.50	     9.327
  44.980         65.00	     8.832
  45.000         70.00	     9.165
  45.020         55.00	     8.124
  45.040         71.67	     9.274
  45.060         50.83	     7.810
  45.080         69.17	     9.110
  45.100         62.50	     8.660
  45.120         77.50	     9.644
  45.140         78.33	     9.695
  45.160         66.67	     8.944
  45.180         80.00	     9.798
  45.200         82.50	     9.950
  45.220         90.00	    10.392
  45.240         79.17	     9.747
  45.260         75.00	     9.487
  45.280         85.00	    10.100
  45.300         99.17	    10.909
  45.320        113.33	    11.662
  45.340        103.33	    11.136
  45.360        152.50	    13.528
  45.380        155.00	    13.638
  45.400        186.67	    14.967
  45.420        160.00	    13.856
  45.440        190.83	    15.133
  45.460        195.83	    15.330
  45.480        194.17	    15.264
  45.500        179.17	    14.663
  45.520        179.17	    14.663
  45.540        184.17	    14.866
  45.560        159.17	    13.820
  45.580        171.67	    14.353
  45.600        155.00	    13.638
  45.620        135.83	    12.767
  45.640        157.50	    13.748
  45.660        188.33	    15.033
  45.680        244.17	    17.117
  45.700        226.67	    16.492
  45.720        173.33	    14.422
  45.740        139.17	    12.923
  45.760        112.50	    11.619
  45.780         96.67	    10.770
  45.800        145.83	    13.229
  45.820        142.50	    13.077
  45.840        139.17	    12.923
  45.860         87.50	    10.247
  45.880         80.00	     9.798
  45.900         71.67	     9.274
  45.920         53.33	     8.000
  45.940         62.50	     8.660
  45.960         64.17	     8.775
  45.980         63.33	     8.718
  46.000         52.50	     7.937
  46.020         55.00	     8.124
  46.040         45.00	     7.348
  46.060         54.17	     8.062
  46.080         59.17	     8.426
  46.100         58.33	     8.367
  46.120         55.00	     8.124
  46.140         37.50	     6.708
  46.160         62.50	     8.660
  46.180         41.67	     7.071
  46.200         45.00	     7.348
  46.220         35.83	     6.557
  46.240         47.50	     7.550
  46.260         56.67	     8.246
  46.280         50.83	     7.810
  46.300         35.83	     6.557
  46.320         49.17	     7.681
  46.340         38.33	     6.782
  46.360         48.33	     7.616
  46.380         59.17	     8.426
  46.400         54.17	     8.062
  46.420         46.67	     7.483
  46.440         44.17	     7.280
  46.460         52.50	     7.937
  46.480         41.67	     7.071
  46.500         45.00	     7.348
  46.520         48.33	     7.616
  46.540         41.67	     7.071
  46.560         43.33	     7.211
  46.580         47.50	     7.550
  46.600         42.50	     7.141
  46.620         43.33	     7.211
  46.640         44.17	     7.280
  46.660         37.50	     6.708
  46.680         30.00	     6.000
  46.700         44.17	     7.280
  46.720         48.33	     7.616
  46.740         50.00	     7.746
  46.760         33.33	     6.325
  46.780         50.83	     7.810
  46.800         35.83	     6.557
  46.820         45.00	     7.348
  46.840         43.33	     7.211
  46.860         38.33	     6.782
  46.880         43.33	     7.211
  46.900         44.17	     7.280
  46.920         50.00	     7.746
  46.940         51.67	     7.874
  46.960         49.17	     7.681
  46.980         57.50	     8.307
  47.000         76.67	     9.592
  47.020         80.00	     9.798
  47.040         71.67	     9.274
  47.060         55.00	     8.124
  47.080         65.83	     8.888
  47.100         51.67	     7.874
  47.120         60.00	     8.485
  47.140         64.17	     8.775
  47.160         67.50	     9.000
  47.180         60.00	     8.485
  47.200         50.83	     7.810
  47.220         45.00	     7.348
  47.240         44.17	     7.280
  47.260         57.50	     8.307
  47.280         48.33	     7.616
  47.300         40.83	     7.000
  47.320         43.33	     7.211
  47.340         35.00	     6.481
  47.360         33.33	     6.325
  47.380         51.67	     7.874
  47.400         37.50	     6.708
  47.420         45.00	     7.348
  47.440         47.50	     7.550
  47.460         40.00	     6.928
  47.480         33.33	     6.325
  47.500         37.50	     6.708
  47.520         36.67	     6.633
  47.540         36.67	     6.633
  47.560         36.67	     6.633
  47.580         50.83	     7.810
  47.600         32.50	     6.245
  47.620         33.33	     6.325
  47.640         38.33	     6.782
  47.660         44.17	     7.280
  47.680         48.33	     7.616
  47.700         37.50	     6.708
  47.720         35.83	     6.557
  47.740         37.50	     6.708
  47.760         50.83	     7.810
  47.780         40.00	     6.928
  47.800         36.67	     6.633
  47.820         52.50	     7.937
  47.840         53.33	     8.000
  47.860         78.33	     9.695
  47.880         68.33	     9.055
  47.900         45.83	     7.416
  47.920         62.50	     8.660
  47.940         50.00	     7.746
  47.960         59.17	     8.426
  47.980         69.17	     9.110
  48.000         63.33	     8.718
  48.020         62.50	     8.660
  48.040         85.83	    10.149
  48.060         93.33	    10.583
  48.080         70.83	     9.220
  48.100         75.00	     9.487
  48.120         67.50	     9.000
  48.140         45.83	     7.416
  48.160         70.00	     9.165
  48.180         74.17	     9.434
  48.200         65.00	     8.832
  48.220         65.00	     8.832
  48.240         62.50	     8.660
  48.260         63.33	     8.718
  48.280         63.33	     8.718
  48.300         40.00	     6.928
  48.320         58.33	     8.367
  48.340         45.83	     7.416
  48.360         48.33	     7.616
  48.380         51.67	     7.874
  48.400         53.33	     8.000
  48.420         42.50	     7.141
  48.440         44.17	     7.280
  48.460         53.33	     8.000
  48.480         41.67	     7.071
  48.500         39.17	     6.856
  48.520         51.67	     7.874
  48.540         48.33	     7.616
  48.560         45.00	     7.348
  48.580         45.00	     7.348
  48.600         63.33	     8.718
  48.620         50.00	     7.746
  48.640         47.50	     7.550
  48.660         52.50	     7.937
  48.680         52.50	     7.937
  48.700         55.00	     8.124
  48.720         45.00	     7.348
  48.740         35.83	     6.557
  48.760         51.67	     7.874
  48.780         35.00	     6.481
  48.800         46.67	     7.483
  48.820         39.17	     6.856
  48.840         52.50	     7.937
  48.860         45.83	     7.416
  48.880         35.83	     6.557
  48.900         51.67	     7.874
  48.920         35.83	     6.557
  48.940         43.33	     7.211
  48.960         45.00	     7.348
  48.980         51.67	     7.874
  49.000         45.00	     7.348
  49.020         40.00	     6.928
  49.040         41.67	     7.071
  49.060         61.67	     8.602
  49.080         54.17	     8.062
  49.100         56.67	     8.246
  49.120         55.00	     8.124
  49.140         51.67	     7.874
  49.160         52.50	     7.937
  49.180         57.50	     8.307
  49.200         49.17	     7.681
  49.220         75.00	     9.487
  49.240         55.83	     8.185
  49.260         47.50	     7.550
  49.280         71.67	     9.274
  49.300         51.67	     7.874
  49.320         50.83	     7.810
  49.340         42.50	     7.141
  49.360         51.67	     7.874
  49.380         52.50	     7.937
  49.400         55.00	     8.124
  49.420         59.17	     8.426
  49.440         67.50	     9.000
  49.460         45.83	     7.416
  49.480         54.17	     8.062
  49.500         60.83	     8.544
  49.520         65.00	     8.832
  49.540         55.83	     8.185
  49.560         51.67	     7.874
  49.580         45.00	     7.348
  49.600         66.67	     8.944
  49.620         58.33	     8.367
  49.640         59.17	     8.426
  49.660         68.33	     9.055
  49.680         75.83	     9.539
  49.700         86.67	    10.198
  49.720         64.17	     8.775
  49.740         86.67	    10.198
  49.760         65.00	     8.832
  49.780         90.83	    10.440
  49.800         94.17	    10.630
  49.820         98.33	    10.863
  49.840        108.33	    11.402
  49.860         95.83	    10.724
  49.880         87.50	    10.247
  49.900         94.17	    10.630
  49.920         90.83	    10.440
  49.940        118.33	    11.916
  49.960        139.17	    12.923
  49.980        199.17	    15.460
  50.000        271.67	    18.055
  50.020        377.50	    21.284
  50.040        459.17	    23.473
  50.060        433.33	    22.804
  50.080        290.83	    18.682
  50.100        205.00	    15.684
  50.120        165.00	    14.071
  50.140        169.17	    14.248
  50.160        261.67	    17.720
  50.180        281.67	    18.385
  50.200        240.83	    17.000
  50.220        183.33	    14.832
  50.240        118.33	    11.916
  50.260        107.50	    11.358
  50.280         85.83	    10.149
  50.300         98.33	    10.863
  50.320         98.33	    10.863
  50.340         99.17	    10.909
  50.360         95.00	    10.677
  50.380        102.50	    11.091
  50.400        109.17	    11.446
  50.420        113.33	    11.662
  50.440         93.33	    10.583
  50.460         95.00	    10.677
  50.480        125.83	    12.288
  50.500        104.17	    11.180
  50.520        119.17	    11.958
  50.540         97.50	    10.817
  50.560        102.50	    11.091
  50.580        101.67	    11.045
  50.600        116.67	    11.832
  50.620         99.17	    10.909
  50.640        108.33	    11.402
  50.660        113.33	    11.662
  50.680        102.50	    11.091
  50.700         81.67	     9.899
  50.720         87.50	    10.247
  50.740         68.33	     9.055
  50.760         82.50	     9.950
  50.780         82.50	     9.950
  50.800         57.50	     8.307
  50.820         65.83	     8.888
  50.840         60.00	     8.485
  50.860         59.17	     8.426
  50.880         55.00	     8.124
  50.900         54.17	     8.062
  50.920         49.17	     7.681
  50.940         57.50	     8.307
  50.960         42.50	     7.141
  50.980         53.33	     8.000
  51.000         57.50	     8.307
  51.020         64.17	     8.775
  51.040         68.33	     9.055
  51.060         74.17	     9.434
  51.080         71.67	     9.274
  51.100         55.00	     8.124
  51.120         62.50	     8.660
  51.140         57.50	     8.307
  51.160         68.33	     9.055
  51.180         65.83	     8.888
  51.200         64.17	     8.775
  51.220         51.67	     7.874
  51.240         53.33	     8.000
  51.260         55.00	     8.124
  51.280         50.00	     7.746
  51.300         35.00	     6.481
  51.320         36.67	     6.633
  51.340         33.33	     6.325
  51.360         35.83	     6.557
  51.380         47.50	     7.550
  51.400         40.83	     7.000
  51.420         41.67	     7.071
  51.440         42.50	     7.141
  51.460         43.33	     7.211
  51.480         31.67	     6.164
  51.500         45.00	     7.348
  51.520         36.67	     6.633
  51.540         41.67	     7.071
  51.560         32.50	     6.245
  51.580         38.33	     6.782
  51.600         45.00	     7.348
  51.620         37.50	     6.708
  51.640         34.17	     6.403
  51.660         32.50	     6.245
  51.680         33.33	     6.325
  51.700         44.17	     7.280
  51.720         29.17	     5.916
  51.740         42.50	     7.141
  51.760         33.33	     6.325
  51.780         40.83	     7.000
  51.800         25.83	     5.568
  51.820         36.67	     6.633
  51.840         36.67	     6.633
  51.860         40.83	     7.000
  51.880         44.17	     7.280
  51.900         38.33	     6.782
  51.920         42.50	     7.141
  51.940         39.17	     6.856
  51.960         42.50	     7.141
  51.980         59.17	     8.426
  52.000         53.33	     8.000
  52.020         46.67	     7.483
  52.040         51.67	     7.874
  52.060         50.00	     7.746
  52.080         60.00	     8.485
  52.100         53.33	     8.000
  52.120         44.17	     7.280
  52.140         44.17	     7.280
  52.160         50.00	     7.746
  52.180         53.33	     8.000
  52.200         71.67	     9.274
  52.220         54.17	     8.062
  52.240         50.83	     7.810
  52.260         51.67	     7.874
  52.280         41.67	     7.071
  52.300         54.17	     8.062
  52.320         50.83	     7.810
  52.340         50.00	     7.746
  52.360         53.33	     8.000
  52.380         50.00	     7.746
  52.400         65.00	     8.832
  52.420         46.67	     7.483
  52.440         42.50	     7.141
  52.460         42.50	     7.141
  52.480         57.50	     8.307
  52.500         45.00	     7.348
  52.520         47.50	     7.550
  52.540         47.50	     7.550
  52.560         40.00	     6.928
  52.580         40.00	     6.928
  52.600         45.83	     7.416
  52.620         49.17	     7.681
  52.640         50.83	     7.810
  52.660         48.33	     7.616
  52.680         40.83	     7.000
  52.700         29.17	     5.916
  52.720         44.17	     7.280
  52.740         40.83	     7.000
  52.760         60.83	     8.544
  52.780         49.17	     7.681
  52.800         58.33	     8.367
  52.820         46.67	     7.483
  52.840         45.00	     7.348
  52.860         51.67	     7.874
  52.880         45.83	     7.416
  52.900         35.83	     6.557
  52.920         50.00	     7.746
  52.940         50.00	     7.746
  52.960         50.83	     7.810
  52.980         45.00	     7.348
  53.000         28.33	     5.831
  53.020         61.67	     8.602
  53.040         58.33	     8.367
  53.060         66.67	     8.944
  53.080         85.83	    10.149
  53.100         69.17	     9.110
  53.120         80.00	     9.798
  53.140         76.67	     9.592
  53.160         73.33	     9.381
  53.180         72.50	     9.327
  53.200         68.33	     9.055
  53.220         58.33	     8.367
  53.240         67.50	     9.000
  53.260         61.67	     8.602
  53.280         69.17	     9.110
  53.300         54.17	     8.062
  53.320         43.33	     7.211
  53.340         57.50	     8.307
  53.360         49.17	     7.681
  53.380         53.33	     8.000
  53.400         38.33	     6.782
  53.420         35.00	     6.481
  53.440         44.17	     7.280
  53.460         40.83	     7.000
  53.480         36.67	     6.633
  53.500         39.17	     6.856
  53.520         37.50	     6.708
  53.540         46.67	     7.483
  53.560         36.67	     6.633
  53.580         38.33	     6.782
  53.600         47.50	     7.550
  53.620         25.83	     5.568
  53.640         40.00	     6.928
  53.660         42.50	     7.141
  53.680         30.00	     6.000
  53.700         36.67	     6.633
  53.720         37.50	     6.708
  53.740         36.67	     6.633
  53.760         30.83	     6.083
  53.780         47.50	     7.550
  53.800         41.67	     7.071
  53.820         45.00	     7.348
  53.840         37.50	     6.708
  53.860         42.50	     7.141
  53.880         43.33	     7.211
  53.900         36.67	     6.633
  53.920         41.67	     7.071
  53.940         40.83	     7.000
  53.960         32.50	     6.245
  53.980         32.50	     6.245
  54.000         45.83	     7.416
  54.020         43.33	     7.211
  54.040         41.67	     7.071
  54.060         39.17	     6.856
  54.080         38.33	     6.782
  54.100         33.33	     6.325
  54.120         45.00	     7.348
  54.140         55.83	     8.185
  54.160         40.83	     7.000
  54.180         46.67	     7.483
  54.200         59.17	     8.426
  54.220         48.33	     7.616
  54.240         50.83	     7.810
  54.260         35.83	     6.557
  54.280         55.83	     8.185
  54.300         50.00	     7.746
  54.320         49.17	     7.681
  54.340         54.17	     8.062
  54.360         63.33	     8.718
  54.380         70.83	     9.220
  54.400         52.50	     7.937
  54.420         60.83	     8.544
  54.440         50.00	     7.746
  54.460         63.33	     8.718
  54.480         46.67	     7.483
  54.500         42.50	     7.141
  54.520         56.67	     8.246
  54.540         40.83	     7.000
  54.560         54.17	     8.062
  54.580         46.67	     7.483
  54.600         58.33	     8.367
  54.620         49.17	     7.681
  54.640         62.50	     8.660
  54.660         53.33	     8.000
  54.680         70.83	     9.220
  54.700         82.50	     9.950
  54.720        115.83	    11.790
  54.740        115.83	    11.790
  54.760        141.67	    13.038
  54.780        181.67	    14.765
  54.800        196.67	    15.362
  54.820        124.17	    12.207
  54.840         95.00	    10.677
  54.860         94.17	    10.630
  54.880         94.17	    10.630
  54.900         94.17	    10.630
  54.920        103.33	    11.136
  54.940        102.50	    11.091
  54.960         85.83	    10.149
  54.980         79.17	     9.747
  55.000         51.67	     7.874
  55.020         63.33	     8.718
  55.040         47.50	     7.550
  55.060         51.67	     7.874
  55.080         48.33	     7.616
  55.100         71.67	     9.274
  55.120         67.50	     9.000
  55.140         60.83	     8.544
  55.160         65.00	     8.832
  55.180         80.00	     9.798
  55.200         98.33	    10.863
  55.220         90.00	    10.392
  55.240         89.17	    10.344
  55.260         95.00	    10.677
  55.280         82.50	     9.950
  55.300         63.33	     8.718
  55.320         59.17	     8.426
  55.340         60.83	     8.544
  55.360         86.67	    10.198
  55.380         87.50	    10.247
  55.400         75.83	     9.539
  55.420         60.00	     8.485
  55.440         53.33	     8.000
  55.460         60.00	     8.485
  55.480         52.50	     7.937
  55.500         52.50	     7.937
  55.520         49.17	     7.681
  55.540         58.33	     8.367
  55.560         68.33	     9.055
  55.580         59.17	     8.426
  55.600         63.33	     8.718
  55.620         65.00	     8.832
  55.640         71.67	     9.274
  55.660         64.17	     8.775
  55.680         68.33	     9.055
  55.700         70.00	     9.165
  55.720         83.33	    10.000
  55.740         86.67	    10.198
  55.760         89.17	    10.344
  55.780        105.83	    11.269
  55.800         81.67	     9.899
  55.820         62.50	     8.660
  55.840         65.83	     8.888
  55.860         68.33	     9.055
  55.880         60.83	     8.544
  55.900         75.00	     9.487
  55.920         65.00	     8.832
  55.940         65.00	     8.832
  55.960         49.17	     7.681
  55.980         48.33	     7.616
  56.000         70.00	     9.165
  56.020         54.17	     8.062
  56.040         55.00	     8.124
  56.060         55.00	     8.124
  56.080         51.67	     7.874
  56.100         54.17	     8.062
  56.120         50.83	     7.810
  56.140         46.67	     7.483
  56.160         45.00	     7.348
  56.180         57.50	     8.307
  56.200         39.17	     6.856
  56.220         48.33	     7.616
  56.240         42.50	     7.141
  56.260         35.00	     6.481
  56.280         31.67	     6.164
  56.300         38.33	     6.782
  56.320         40.00	     6.928
  56.340         50.00	     7.746
  56.360         43.33	     7.211
  56.380         39.17	     6.856
  56.400         35.83	     6.557
  56.420         55.00	     8.124
  56.440         42.50	     7.141
  56.460         41.67	     7.071
  56.480         37.50	     6.708
  56.500         46.67	     7.483
  56.520         50.83	     7.810
  56.540         43.33	     7.211
  56.560         41.67	     7.071
  56.580         45.00	     7.348
  56.600         45.83	     7.416
  56.620         55.00	     8.124
  56.640         36.67	     6.633
  56.660         49.17	     7.681
  56.680         39.17	     6.856
  56.700         52.50	     7.937
  56.720         40.00	     6.928
  56.740         57.50	     8.307
  56.760         41.67	     7.071
  56.780         56.67	     8.246
  56.800         55.83	     8.185
  56.820         38.33	     6.782
  56.840         44.17	     7.280
  56.860         42.50	     7.141
  56.880         53.33	     8.000
  56.900         59.17	     8.426
  56.920         50.83	     7.810
  56.940         50.00	     7.746
  56.960         47.50	     7.550
  56.980         41.67	     7.071
  57.000         40.00	     6.928
  57.020         45.00	     7.348
  57.040         52.50	     7.937
  57.060         47.50	     7.550
  57.080         35.83	     6.557
  57.100         58.33	     8.367
  57.120         39.17	     6.856
  57.140         50.00	     7.746
  57.160         45.83	     7.416
  57.180         40.00	     6.928
  57.200         39.17	     6.856
  57.220         44.17	     7.280
  57.240         36.67	     6.633
  57.260         45.83	     7.416
  57.280         42.50	     7.141
  57.300         29.17	     5.916
  57.320         41.67	     7.071
  57.340         40.83	     7.000
  57.360         33.33	     6.325
  57.380         44.17	     7.280
  57.400         45.00	     7.348
  57.420         53.33	     8.000
  57.440         35.00	     6.481
  57.460         44.17	     7.280
  57.480         37.50	     6.708
  57.500         37.50	     6.708
  57.520         46.67	     7.483
  57.540         41.67	     7.071
  57.560         50.83	     7.810
  57.580         50.83	     7.810
  57.600         45.00	     7.348
  57.620         35.83	     6.557
  57.640         24.17	     5.385
  57.660         45.00	     7.348
  57.680         37.50	     6.708
  57.700         52.50	     7.937
  57.720         34.17	     6.403
  57.740         35.83	     6.557
  57.760         30.83	     6.083
  57.780         30.83	     6.083
  57.800         35.00	     6.481
  57.820         41.67	     7.071
  57.840         44.17	     7.280
  57.860         46.67	     7.483
  57.880         40.00	     6.928
  57.900         32.50	     6.245
  57.920         33.33	     6.325
  57.940         42.50	     7.141
  57.960         42.50	     7.141
  57.980         40.00	     6.928
  58.000         47.50	     7.550
  58.020         37.50	     6.708
  58.040         46.67	     7.483
  58.060         44.17	     7.280
  58.080         39.17	     6.856
  58.100         25.83	     5.568
  58.120         43.33	     7.211
  58.140         50.00	     7.746
  58.160         40.00	     6.928
  58.180         50.00	     7.746
  58.200         37.50	     6.708
  58.220         48.33	     7.616
  58.240         49.17	     7.681
  58.260         45.00	     7.348
  58.280         40.00	     6.928
  58.300         40.00	     6.928
  58.320         50.83	     7.810
  58.340         59.17	     8.426
  58.360         41.67	     7.071
  58.380         42.50	     7.141
  58.400         42.50	     7.141
  58.420         50.83	     7.810
  58.440         65.00	     8.832
  58.460         51.67	     7.874
  58.480         51.67	     7.874
  58.500         65.83	     8.888
  58.520         68.33	     9.055
  58.540         69.17	     9.110
  58.560         62.50	     8.660
  58.580         70.83	     9.220
  58.600         60.83	     8.544
  58.620         67.50	     9.000
  58.640         55.00	     8.124
  58.660         66.67	     8.944
  58.680         57.50	     8.307
  58.700         60.00	     8.485
  58.720         61.67	     8.602
  58.740         45.00	     7.348
  58.760         55.00	     8.124
  58.780         56.67	     8.246
  58.800         57.50	     8.307
  58.820         58.33	     8.367
  58.840         46.67	     7.483
  58.860         56.67	     8.246
  58.880         45.00	     7.348
  58.900         55.83	     8.185
  58.920         55.00	     8.124
  58.940         62.50	     8.660
  58.960         54.17	     8.062
  58.980         50.00	     7.746
  59.000         53.33	     8.000
  59.020         59.17	     8.426
  59.040         50.00	     7.746
  59.060         58.33	     8.367
  59.080         76.67	     9.592
  59.100         69.17	     9.110
  59.120         78.33	     9.695
  59.140         64.17	     8.775
  59.160         63.33	     8.718
  59.180         70.00	     9.165
  59.200         55.00	     8.124
  59.220         60.83	     8.544
  59.240         60.83	     8.544
  59.260         64.17	     8.775
  59.280         64.17	     8.775
  59.300         50.00	     7.746
  59.320         44.17	     7.280
  59.340         60.00	     8.485
  59.360         45.00	     7.348
  59.380         41.67	     7.071
  59.400         50.83	     7.810
  59.420         54.17	     8.062
  59.440         46.67	     7.483
  59.460         50.00	     7.746
  59.480         50.00	     7.746
  59.500         48.33	     7.616
  59.520         43.33	     7.211
  59.540         56.67	     8.246
  59.560         47.50	     7.550
  59.580         55.00	     8.124
  59.600         52.50	     7.937
  59.620         51.67	     7.874
  59.640         46.67	     7.483
  59.660         62.50	     8.660
  59.680         51.67	     7.874
  59.700         53.33	     8.000
  59.720         90.83	    10.440
  59.740         80.00	     9.798
  59.760         90.83	    10.440
  59.780        125.00	    12.247
  59.800        149.17	    13.379
  59.820        237.50	    16.882
  59.840        311.67	    19.339
  59.860        440.83	    23.000
  59.880        402.50	    21.977
  59.900        291.67	    18.708
  59.920        201.67	    15.556
  59.940        174.17	    14.457
  59.960        138.33	    12.884
  59.980        164.17	    14.036
  60.000        193.33	    15.232
  60.020        232.50	    16.703
  60.040        236.67	    16.852
  60.060        220.83	    16.279
  60.080        150.00	    13.416
  60.100        100.00	    10.954
  60.120        110.83	    11.533
  60.140         85.00	    10.100
  60.160         92.50	    10.536
  60.180         65.00	     8.832
  60.200         69.17	     9.110
  60.220         85.00	    10.100
  60.240         60.83	     8.544
  60.260         60.00	     8.485
  60.280         55.83	     8.185
  60.300         65.00	     8.832
  60.320         72.50	     9.327
  60.340         68.33	     9.055
  60.360         52.50	     7.937
  60.380         69.17	     9.110
  60.400         55.00	     8.124
  60.420         65.00	     8.832
  60.440         45.00	     7.348
  60.460         51.67	     7.874
  60.480         56.67	     8.246
  60.500         44.17	     7.280
  60.520         58.33	     8.367
  60.540         61.67	     8.602
  60.560         50.83	     7.810
  60.580         36.67	     6.633
  60.600         54.17	     8.062
  60.620         63.33	     8.718
  60.640         66.67	     8.944
  60.660         65.83	     8.888
  60.680         50.83	     7.810
  60.700         61.67	     8.602
  60.720         61.67	     8.602
  60.740         62.50	     8.660
  60.760         65.00	     8.832
  60.780         65.00	     8.832
  60.800         59.17	     8.426
  60.820         49.17	     7.681
  60.840         54.17	     8.062
  60.860         56.67	     8.246
  60.880         54.17	     8.062
  60.900         40.83	     7.000
  60.920         50.83	     7.810
  60.940         62.50	     8.660
  60.960         41.67	     7.071
  60.980         50.83	     7.810
  61.000         53.33	     8.000
  61.020         51.67	     7.874
  61.040         47.50	     7.550
  61.060         57.50	     8.307
  61.080         57.50	     8.307
  61.100         56.67	     8.246
  61.120         40.83	     7.000
  61.140         43.33	     7.211
  61.160         55.83	     8.185
  61.180         48.33	     7.616
  61.200         62.50	     8.660
  61.220         48.33	     7.616
  61.240         59.17	     8.426
  61.260         57.50	     8.307
  61.280         66.67	     8.944
  61.300         65.83	     8.888
  61.320         60.00	     8.485
  61.340         65.83	     8.888
  61.360         76.67	     9.592
  61.380        108.33	    11.402
  61.400         98.33	    10.863
  61.420         80.83	     9.849
  61.440         72.50	     9.327
  61.460         63.33	     8.718
  61.480         55.83	     8.185
  61.500         75.83	     9.539
  61.520         74.17	     9.434
  61.540         87.50	    10.247
  61.560         80.00	     9.798
  61.580         61.67	     8.602
  61.600         68.33	     9.055
  61.620         63.33	     8.718
  61.640         63.33	     8.718
  61.660         73.33	     9.381
  61.680         70.00	     9.165
  61.700         55.00	     8.124
  61.720         68.33	     9.055
  61.740         55.00	     8.124
  61.760         60.00	     8.485
  61.780         50.83	     7.810
  61.800         67.50	     9.000
  61.820         67.50	     9.000
  61.840         67.50	     9.000
  61.860         65.83	     8.888
  61.880         57.50	     8.307
  61.900         70.00	     9.165
  61.920         65.83	     8.888
  61.940         83.33	    10.000
  61.960         80.83	     9.849
  61.980         83.33	    10.000
  62.000         85.83	    10.149
  62.020         64.17	     8.775
  62.040         65.00	     8.832
  62.060         64.17	     8.775
  62.080         59.17	     8.426
  62.100         51.67	     7.874
  62.120         61.67	     8.602
  62.140         61.67	     8.602
  62.160         62.50	     8.660
  62.180         40.00	     6.928
  62.200         57.50	     8.307
  62.220         55.00	     8.124
  62.240         40.00	     6.928
  62.260         59.17	     8.426
  62.280         36.67	     6.633
  62.300         39.17	     6.856
  62.320         34.17	     6.403
  62.340         40.00	     6.928
  62.360         48.33	     7.616
  62.380         25.83	     5.568
  62.400         43.33	     7.211
  62.420         38.33	     6.782
  62.440         49.17	     7.681
  62.460         42.50	     7.141
  62.480         50.00	     7.746
  62.500         45.83	     7.416
  62.520         50.00	     7.746
  62.540         39.17	     6.856
  62.560         46.67	     7.483
  62.580         45.83	     7.416
  62.600         41.67	     7.071
  62.620         57.50	     8.307
  62.640         44.17	     7.280
  62.660         43.33	     7.211
  62.680         46.67	     7.483
  62.700         50.00	     7.746
  62.720         40.00	     6.928
  62.740         52.50	     7.937
  62.760         33.33	     6.325
  62.780         40.00	     6.928
  62.800         55.83	     8.185
  62.820         46.67	     7.483
  62.840         53.33	     8.000
  62.860         45.00	     7.348
  62.880         36.67	     6.633
  62.900         45.00	     7.348
  62.920         40.00	     6.928
  62.940         41.67	     7.071
  62.960         43.33	     7.211
  62.980         41.67	     7.071
  63.000         39.17	     6.856
  63.020         37.50	     6.708
  63.040         46.67	     7.483
  63.060         43.33	     7.211
  63.080         39.17	     6.856
  63.100         44.17	     7.280
  63.120         43.33	     7.211
  63.140         43.33	     7.211
  63.160         44.17	     7.280
  63.180         39.17	     6.856
  63.200         44.17	     7.280
  63.220         37.50	     6.708
  63.240         53.33	     8.000
  63.260         46.67	     7.483
  63.280         37.50	     6.708
  63.300         52.50	     7.937
  63.320         46.67	     7.483
  63.340         52.50	     7.937
  63.360         60.00	     8.485
  63.380         66.67	     8.944
  63.400         64.17	     8.775
  63.420         49.17	     7.681
  63.440         42.50	     7.141
  63.460         49.17	     7.681
  63.480         46.67	     7.483
  63.500         35.83	     6.557
  63.520         41.67	     7.071
  63.540         48.33	     7.616
  63.560         49.17	     7.681
  63.580         49.17	     7.681
  63.600         62.50	     8.660
  63.620         57.50	     8.307
  63.640         60.00	     8.485
  63.660         50.83	     7.810
  63.680         56.67	     8.246
  63.700         43.33	     7.211
  63.720         59.17	     8.426
  63.740         52.50	     7.937
  63.760         55.83	     8.185
  63.780         63.33	     8.718
  63.800         45.00	     7.348
  63.820         52.50	     7.937
  63.840         57.50	     8.307
  63.860         67.50	     9.000
  63.880         76.67	     9.592
  63.900         77.50	     9.644
  63.920         98.33	    10.863
  63.940        116.67	    11.832
  63.960        102.50	    11.091
  63.980         92.50	    10.536
  64.000         64.17	     8.775
  64.020         70.83	     9.220
  64.040         61.67	     8.602
  64.060         65.00	     8.832
  64.080         75.83	     9.539
  64.100         86.67	    10.198
  64.120         91.67	    10.488
  64.140         74.17	     9.434
  64.160         79.17	     9.747
  64.180         65.00	     8.832
  64.200         51.67	     7.874
  64.220         48.33	     7.616
  64.240         52.50	     7.937
  64.260         47.50	     7.550
  64.280         59.17	     8.426
  64.300         42.50	     7.141
  64.320         55.83	     8.185
  64.340         43.33	     7.211
  64.360         45.00	     7.348
  64.380         30.83	     6.083
  64.400         44.17	     7.280
  64.420         41.67	     7.071
  64.440         45.83	     7.416
  64.460         44.17	     7.280
  64.480         37.50	     6.708
  64.500         37.50	     6.708
  64.520         35.83	     6.557
  64.540         50.00	     7.746
  64.560         43.33	     7.211
  64.580         45.83	     7.416
  64.600         47.50	     7.550
  64.620         49.17	     7.681
  64.640         50.83	     7.810
  64.660         45.00	     7.348
  64.680         38.33	     6.782
  64.700         55.00	     8.124
  64.720         51.67	     7.874
  64.740         46.67	     7.483
  64.760         46.67	     7.483
  64.780         50.00	     7.746
  64.800         61.67	     8.602
  64.820         56.67	     8.246
  64.840         57.50	     8.307
  64.860         53.33	     8.000
  64.880         47.50	     7.550
  64.900         55.00	     8.124
  64.920         41.67	     7.071
  64.940         61.67	     8.602
  64.960         55.83	     8.185
  64.980         60.83	     8.544
  65.000         60.00	     8.485
