
Filename:
	C:\Program Files\Thermo Electron\WinXRD\Datafiles\F_HERMAN\GEO\G54_RT.raw

File Created:
	February 20, 2020 - 06:59 PM

Specimen Id:
	G54_RT

Specimen Name:
	

Specimen Description:
	

Comment:
Scan Type: 2Theta Scan
Start Angle: 3 deg.
Stop Angle: 65 deg.
Num Points: 3101
Step Size: 0.02 deg.
Scan Rate: 1.000000
Scan Mode: Continuous
Wavelength: 1.540562
\Kalpha1: 1.540562	\Kalpha2: 1.544390	\Kbeta: 1.392218

Optics:
		Detector:
			 Type: Fixed Slits
		Tube: 
			 Type: Fixed Slits


Datas:
 Pos [deg]       Rate [CPS]      ESD [-]

Range 1 ---> Iteration 1
   3.000        442.50	    23.043
   3.020        436.67	    22.891
   3.040        395.00	    21.772
   3.060        381.67	    21.401
   3.080        379.17	    21.331
   3.100        408.33	    22.136
   3.120        420.00	    22.450
   3.140        423.33	    22.539
   3.160        408.33	    22.136
   3.180        424.17	    22.561
   3.200        436.67	    22.891
   3.220        392.50	    21.703
   3.240        407.50	    22.113
   3.260        390.83	    21.656
   3.280        394.17	    21.749
   3.300        390.00	    21.633
   3.320        408.33	    22.136
   3.340        368.33	    21.024
   3.360        382.50	    21.424
   3.380        356.67	    20.688
   3.400        370.83	    21.095
   3.420        366.67	    20.976
   3.440        378.33	    21.307
   3.460        367.50	    21.000
   3.480        340.83	    20.224
   3.500        352.50	    20.567
   3.520        379.17	    21.331
   3.540        335.83	    20.075
   3.560        359.17	    20.761
   3.580        365.83	    20.952
   3.600        326.67	    19.799
   3.620        340.00	    20.199
   3.640        340.83	    20.224
   3.660        340.00	    20.199
   3.680        335.00	    20.050
   3.700        346.67	    20.396
   3.720        318.33	    19.545
   3.740        326.67	    19.799
   3.760        313.33	    19.391
   3.780        341.67	    20.248
   3.800        318.33	    19.545
   3.820        322.50	    19.672
   3.840        307.50	    19.209
   3.860        329.17	    19.875
   3.880        313.33	    19.391
   3.900        320.83	    19.621
   3.920        290.00	    18.655
   3.940        295.83	    18.841
   3.960        335.83	    20.075
   3.980        328.33	    19.849
   4.000        300.00	    18.974
   4.020        284.17	    18.466
   4.040        305.00	    19.131
   4.060        319.17	    19.570
   4.080        296.67	    18.868
   4.100        275.83	    18.193
   4.120        291.67	    18.708
   4.140        268.33	    17.944
   4.160        279.17	    18.303
   4.180        274.17	    18.138
   4.200        297.50	    18.894
   4.220        275.83	    18.193
   4.240        265.83	    17.861
   4.260        255.00	    17.493
   4.280        287.50	    18.574
   4.300        291.67	    18.708
   4.320        240.00	    16.971
   4.340        260.83	    17.692
   4.360        290.83	    18.682
   4.380        291.67	    18.708
   4.400        269.17	    17.972
   4.420        279.17	    18.303
   4.440        289.17	    18.628
   4.460        240.83	    17.000
   4.480        247.50	    17.234
   4.500        261.67	    17.720
   4.520        269.17	    17.972
   4.540        257.50	    17.578
   4.560        242.50	    17.059
   4.580        294.17	    18.788
   4.600        245.00	    17.146
   4.620        249.17	    17.292
   4.640        242.50	    17.059
   4.660        256.67	    17.550
   4.680        247.50	    17.234
   4.700        256.67	    17.550
   4.720        248.33	    17.263
   4.740        260.00	    17.664
   4.760        243.33	    17.088
   4.780        252.50	    17.407
   4.800        240.83	    17.000
   4.820        246.67	    17.205
   4.840        246.67	    17.205
   4.860        221.67	    16.310
   4.880        221.67	    16.310
   4.900        226.67	    16.492
   4.920        233.33	    16.733
   4.940        236.67	    16.852
   4.960        226.67	    16.492
   4.980        254.17	    17.464
   5.000        258.33	    17.607
   5.020        235.83	    16.823
   5.040        229.17	    16.583
   5.060        245.83	    17.176
   5.080        242.50	    17.059
   5.100        212.50	    15.969
   5.120        213.33	    16.000
   5.140        192.50	    15.199
   5.160        195.00	    15.297
   5.180        225.00	    16.432
   5.200        203.33	    15.620
   5.220        215.83	    16.093
   5.240        219.17	    16.217
   5.260        196.67	    15.362
   5.280        200.00	    15.492
   5.300        209.17	    15.843
   5.320        210.83	    15.906
   5.340        225.83	    16.462
   5.360        203.33	    15.620
   5.380        245.00	    17.146
   5.400        206.67	    15.748
   5.420        215.00	    16.062
   5.440        215.00	    16.062
   5.460        215.83	    16.093
   5.480        191.67	    15.166
   5.500        192.50	    15.199
   5.520        229.17	    16.583
   5.540        209.17	    15.843
   5.560        236.67	    16.852
   5.580        213.33	    16.000
   5.600        240.83	    17.000
   5.620        203.33	    15.620
   5.640        203.33	    15.620
   5.660        199.17	    15.460
   5.680        201.67	    15.556
   5.700        210.00	    15.875
   5.720        211.67	    15.937
   5.740        199.17	    15.460
   5.760        215.83	    16.093
   5.780        213.33	    16.000
   5.800        243.33	    17.088
   5.820        215.00	    16.062
   5.840        220.00	    16.248
   5.860        221.67	    16.310
   5.880        215.00	    16.062
   5.900        212.50	    15.969
   5.920        240.00	    16.971
   5.940        253.33	    17.436
   5.960        264.17	    17.804
   5.980        280.83	    18.358
   6.000        244.17	    17.117
   6.020        281.67	    18.385
   6.040        280.00	    18.330
   6.060        282.50	    18.412
   6.080        301.67	    19.026
   6.100        285.83	    18.520
   6.120        276.67	    18.221
   6.140        259.17	    17.635
   6.160        258.33	    17.607
   6.180        221.67	    16.310
   6.200        205.00	    15.684
   6.220        202.50	    15.588
   6.240        183.33	    14.832
   6.260        156.67	    13.711
   6.280        186.67	    14.967
   6.300        186.67	    14.967
   6.320        187.50	    15.000
   6.340        171.67	    14.353
   6.360        184.17	    14.866
   6.380        165.83	    14.107
   6.400        185.83	    14.933
   6.420        187.50	    15.000
   6.440        170.00	    14.283
   6.460        183.33	    14.832
   6.480        192.50	    15.199
   6.500        179.17	    14.663
   6.520        194.17	    15.264
   6.540        180.83	    14.731
   6.560        189.17	    15.067
   6.580        185.00	    14.900
   6.600        172.50	    14.387
   6.620        182.50	    14.799
   6.640        160.83	    13.892
   6.660        163.33	    14.000
   6.680        191.67	    15.166
   6.700        169.17	    14.248
   6.720        174.17	    14.457
   6.740        186.67	    14.967
   6.760        145.00	    13.191
   6.780        172.50	    14.387
   6.800        180.00	    14.697
   6.820        181.67	    14.765
   6.840        184.17	    14.866
   6.860        175.83	    14.526
   6.880        174.17	    14.457
   6.900        175.83	    14.526
   6.920        187.50	    15.000
   6.940        178.33	    14.629
   6.960        143.33	    13.115
   6.980        180.83	    14.731
   7.000        170.83	    14.318
   7.020        157.50	    13.748
   7.040        166.67	    14.142
   7.060        157.50	    13.748
   7.080        169.17	    14.248
   7.100        147.50	    13.304
   7.120        165.83	    14.107
   7.140        171.67	    14.353
   7.160        185.83	    14.933
   7.180        166.67	    14.142
   7.200        169.17	    14.248
   7.220        175.00	    14.491
   7.240        181.67	    14.765
   7.260        156.67	    13.711
   7.280        172.50	    14.387
   7.300        170.00	    14.283
   7.320        141.67	    13.038
   7.340        152.50	    13.528
   7.360        155.83	    13.675
   7.380        155.83	    13.675
   7.400        156.67	    13.711
   7.420        147.50	    13.304
   7.440        158.33	    13.784
   7.460        169.17	    14.248
   7.480        150.00	    13.416
   7.500        139.17	    12.923
   7.520        133.33	    12.649
   7.540        169.17	    14.248
   7.560        168.33	    14.213
   7.580        171.67	    14.353
   7.600        148.33	    13.342
   7.620        147.50	    13.304
   7.640        136.67	    12.806
   7.660        148.33	    13.342
   7.680        132.50	    12.610
   7.700        139.17	    12.923
   7.720        157.50	    13.748
   7.740        138.33	    12.884
   7.760        155.00	    13.638
   7.780        143.33	    13.115
   7.800        165.00	    14.071
   7.820        140.83	    13.000
   7.840        165.00	    14.071
   7.860        146.67	    13.266
   7.880        149.17	    13.379
   7.900        145.83	    13.229
   7.920        146.67	    13.266
   7.940        153.33	    13.565
   7.960        139.17	    12.923
   7.980        140.00	    12.961
   8.000        131.67	    12.570
   8.020        135.83	    12.767
   8.040        135.00	    12.728
   8.060        147.50	    13.304
   8.080        135.00	    12.728
   8.100        164.17	    14.036
   8.120        150.83	    13.454
   8.140        152.50	    13.528
   8.160        146.67	    13.266
   8.180        156.67	    13.711
   8.200        140.00	    12.961
   8.220        142.50	    13.077
   8.240        168.33	    14.213
   8.260        157.50	    13.748
   8.280        167.50	    14.177
   8.300        156.67	    13.711
   8.320        150.83	    13.454
   8.340        165.83	    14.107
   8.360        176.67	    14.560
   8.380        165.00	    14.071
   8.400        181.67	    14.765
   8.420        175.00	    14.491
   8.440        188.33	    15.033
   8.460        172.50	    14.387
   8.480        202.50	    15.588
   8.500        210.00	    15.875
   8.520        201.67	    15.556
   8.540        246.67	    17.205
   8.560        230.83	    16.643
   8.580        270.00	    18.000
   8.600        299.17	    18.947
   8.620        316.67	    19.494
   8.640        375.00	    21.213
   8.660        377.50	    21.284
   8.680        425.83	    22.605
   8.700        456.67	    23.409
   8.720        531.67	    25.259
   8.740        717.50	    29.343
   8.760        934.17	    33.481
   8.780        952.50	    33.808
   8.800        663.33	    28.213
   8.820        394.17	    21.749
   8.840        266.67	    17.889
   8.860        185.83	    14.933
   8.880        170.83	    14.318
   8.900        165.83	    14.107
   8.920        148.33	    13.342
   8.940        152.50	    13.528
   8.960        161.67	    13.928
   8.980        166.67	    14.142
   9.000        161.67	    13.928
   9.020        142.50	    13.077
   9.040        141.67	    13.038
   9.060        160.83	    13.892
   9.080        140.83	    13.000
   9.100        137.50	    12.845
   9.120        135.00	    12.728
   9.140        115.00	    11.747
   9.160        139.17	    12.923
   9.180        140.83	    13.000
   9.200        126.67	    12.329
   9.220        128.33	    12.410
   9.240        124.17	    12.207
   9.260        134.17	    12.689
   9.280        140.00	    12.961
   9.300        134.17	    12.689
   9.320        161.67	    13.928
   9.340        156.67	    13.711
   9.360        134.17	    12.689
   9.380        129.17	    12.450
   9.400        138.33	    12.884
   9.420        130.00	    12.490
   9.440        132.50	    12.610
   9.460        119.17	    11.958
   9.480        105.83	    11.269
   9.500        126.67	    12.329
   9.520        123.33	    12.166
   9.540        114.17	    11.705
   9.560        125.00	    12.247
   9.580         99.17	    10.909
   9.600        119.17	    11.958
   9.620        110.00	    11.489
   9.640        125.83	    12.288
   9.660        122.50	    12.124
   9.680        119.17	    11.958
   9.700        105.83	    11.269
   9.720        109.17	    11.446
   9.740        102.50	    11.091
   9.760        115.00	    11.747
   9.780        107.50	    11.358
   9.800         95.83	    10.724
   9.820         88.33	    10.296
   9.840         97.50	    10.817
   9.860        110.83	    11.533
   9.880        101.67	    11.045
   9.900        114.17	    11.705
   9.920        100.83	    11.000
   9.940        118.33	    11.916
   9.960        108.33	    11.402
   9.980        120.00	    12.000
  10.000        105.00	    11.225
  10.020        106.67	    11.314
  10.040         95.83	    10.724
  10.060        106.67	    11.314
  10.080        107.50	    11.358
  10.100        110.83	    11.533
  10.120        111.67	    11.576
  10.140         99.17	    10.909
  10.160         96.67	    10.770
  10.180        113.33	    11.662
  10.200        101.67	    11.045
  10.220         90.00	    10.392
  10.240         98.33	    10.863
  10.260        103.33	    11.136
  10.280        102.50	    11.091
  10.300        133.33	    12.649
  10.320        133.33	    12.649
  10.340        131.67	    12.570
  10.360        144.17	    13.153
  10.380        117.50	    11.874
  10.400        130.00	    12.490
  10.420        121.67	    12.083
  10.440        141.67	    13.038
  10.460        144.17	    13.153
  10.480        125.83	    12.288
  10.500        100.83	    11.000
  10.520        109.17	    11.446
  10.540         95.83	    10.724
  10.560         99.17	    10.909
  10.580        103.33	    11.136
  10.600         83.33	    10.000
  10.620        107.50	    11.358
  10.640        101.67	    11.045
  10.660        105.83	    11.269
  10.680        110.83	    11.533
  10.700        100.00	    10.954
  10.720        110.00	    11.489
  10.740         90.00	    10.392
  10.760         99.17	    10.909
  10.780         76.67	     9.592
  10.800        112.50	    11.619
  10.820         94.17	    10.630
  10.840         84.17	    10.050
  10.860         92.50	    10.536
  10.880        103.33	    11.136
  10.900         92.50	    10.536
  10.920         94.17	    10.630
  10.940         93.33	    10.583
  10.960         98.33	    10.863
  10.980         96.67	    10.770
  11.000         85.00	    10.100
  11.020        101.67	    11.045
  11.040         91.67	    10.488
  11.060        101.67	    11.045
  11.080         92.50	    10.536
  11.100         80.00	     9.798
  11.120         91.67	    10.488
  11.140        104.17	    11.180
  11.160         91.67	    10.488
  11.180         98.33	    10.863
  11.200        102.50	    11.091
  11.220        100.83	    11.000
  11.240         86.67	    10.198
  11.260         90.00	    10.392
  11.280         98.33	    10.863
  11.300         90.00	    10.392
  11.320         83.33	    10.000
  11.340         86.67	    10.198
  11.360         93.33	    10.583
  11.380         90.83	    10.440
  11.400         84.17	    10.050
  11.420        111.67	    11.576
  11.440         87.50	    10.247
  11.460         90.00	    10.392
  11.480         87.50	    10.247
  11.500         84.17	    10.050
  11.520        100.83	    11.000
  11.540         88.33	    10.296
  11.560        102.50	    11.091
  11.580         89.17	    10.344
  11.600         90.00	    10.392
  11.620         87.50	    10.247
  11.640        114.17	    11.705
  11.660        100.83	    11.000
  11.680         95.00	    10.677
  11.700        109.17	    11.446
  11.720         96.67	    10.770
  11.740        104.17	    11.180
  11.760        110.00	    11.489
  11.780        110.00	    11.489
  11.800        108.33	    11.402
  11.820         88.33	    10.296
  11.840        111.67	    11.576
  11.860         92.50	    10.536
  11.880        120.00	    12.000
  11.900        100.83	    11.000
  11.920        120.83	    12.042
  11.940        112.50	    11.619
  11.960        117.50	    11.874
  11.980        135.83	    12.767
  12.000        138.33	    12.884
  12.020        180.83	    14.731
  12.040        255.00	    17.493
  12.060        331.67	    19.950
  12.080        416.67	    22.361
  12.100        364.17	    20.905
  12.120        351.67	    20.543
  12.140        253.33	    17.436
  12.160        176.67	    14.560
  12.180        179.17	    14.663
  12.200        166.67	    14.142
  12.220        205.00	    15.684
  12.240        200.83	    15.524
  12.260        195.00	    15.297
  12.280        193.33	    15.232
  12.300        193.33	    15.232
  12.320        210.00	    15.875
  12.340        250.00	    17.321
  12.360        240.83	    17.000
  12.380        296.67	    18.868
  12.400        310.00	    19.287
  12.420        271.67	    18.055
  12.440        213.33	    16.000
  12.460        142.50	    13.077
  12.480        121.67	    12.083
  12.500        115.00	    11.747
  12.520         87.50	    10.247
  12.540         97.50	    10.817
  12.560         92.50	    10.536
  12.580         93.33	    10.583
  12.600         86.67	    10.198
  12.620         99.17	    10.909
  12.640         95.83	    10.724
  12.660        100.00	    10.954
  12.680         82.50	     9.950
  12.700         93.33	    10.583
  12.720         69.17	     9.110
  12.740         80.83	     9.849
  12.760         79.17	     9.747
  12.780         86.67	    10.198
  12.800         76.67	     9.592
  12.820         80.00	     9.798
  12.840         85.00	    10.100
  12.860         75.00	     9.487
  12.880         78.33	     9.695
  12.900         97.50	    10.817
  12.920         81.67	     9.899
  12.940         94.17	    10.630
  12.960         76.67	     9.592
  12.980         99.17	    10.909
  13.000         84.17	    10.050
  13.020         81.67	     9.899
  13.040         88.33	    10.296
  13.060         81.67	     9.899
  13.080         66.67	     8.944
  13.100         92.50	    10.536
  13.120         80.83	     9.849
  13.140         89.17	    10.344
  13.160         95.83	    10.724
  13.180         86.67	    10.198
  13.200         85.83	    10.149
  13.220         93.33	    10.583
  13.240         86.67	    10.198
  13.260         70.00	     9.165
  13.280         74.17	     9.434
  13.300         91.67	    10.488
  13.320         84.17	    10.050
  13.340         74.17	     9.434
  13.360         70.00	     9.165
  13.380         77.50	     9.644
  13.400         82.50	     9.950
  13.420         75.83	     9.539
  13.440         82.50	     9.950
  13.460         70.83	     9.220
  13.480         86.67	    10.198
  13.500         76.67	     9.592
  13.520         90.00	    10.392
  13.540         93.33	    10.583
  13.560         99.17	    10.909
  13.580         77.50	     9.644
  13.600         74.17	     9.434
  13.620         76.67	     9.592
  13.640         74.17	     9.434
  13.660         88.33	    10.296
  13.680         92.50	    10.536
  13.700         95.83	    10.724
  13.720        122.50	    12.124
  13.740        118.33	    11.916
  13.760        146.67	    13.266
  13.780        109.17	    11.446
  13.800         96.67	    10.770
  13.820         86.67	    10.198
  13.840        115.00	    11.747
  13.860         96.67	    10.770
  13.880         85.83	    10.149
  13.900         78.33	     9.695
  13.920         75.83	     9.539
  13.940         82.50	     9.950
  13.960         68.33	     9.055
  13.980         69.17	     9.110
  14.000         81.67	     9.899
  14.020         68.33	     9.055
  14.040         70.83	     9.220
  14.060         69.17	     9.110
  14.080         78.33	     9.695
  14.100         66.67	     8.944
  14.120         81.67	     9.899
  14.140         70.83	     9.220
  14.160         72.50	     9.327
  14.180         56.67	     8.246
  14.200         75.83	     9.539
  14.220         78.33	     9.695
  14.240         73.33	     9.381
  14.260         57.50	     8.307
  14.280         72.50	     9.327
  14.300         61.67	     8.602
  14.320         70.83	     9.220
  14.340         63.33	     8.718
  14.360         69.17	     9.110
  14.380         68.33	     9.055
  14.400         75.00	     9.487
  14.420         82.50	     9.950
  14.440         68.33	     9.055
  14.460         62.50	     8.660
  14.480         77.50	     9.644
  14.500         64.17	     8.775
  14.520         79.17	     9.747
  14.540         73.33	     9.381
  14.560         76.67	     9.592
  14.580         66.67	     8.944
  14.600         58.33	     8.367
  14.620         68.33	     9.055
  14.640         59.17	     8.426
  14.660         67.50	     9.000
  14.680         80.00	     9.798
  14.700         70.83	     9.220
  14.720         69.17	     9.110
  14.740         65.83	     8.888
  14.760         65.83	     8.888
  14.780         65.83	     8.888
  14.800         64.17	     8.775
  14.820         68.33	     9.055
  14.840         83.33	    10.000
  14.860         78.33	     9.695
  14.880         70.00	     9.165
  14.900         99.17	    10.909
  14.920         80.00	     9.798
  14.940         74.17	     9.434
  14.960         65.83	     8.888
  14.980         79.17	     9.747
  15.000         70.00	     9.165
  15.020         85.83	    10.149
  15.040         67.50	     9.000
  15.060         69.17	     9.110
  15.080         85.83	    10.149
  15.100         67.50	     9.000
  15.120         75.83	     9.539
  15.140         64.17	     8.775
  15.160         76.67	     9.592
  15.180         65.00	     8.832
  15.200         65.00	     8.832
  15.220         70.83	     9.220
  15.240         70.83	     9.220
  15.260         56.67	     8.246
  15.280         67.50	     9.000
  15.300         72.50	     9.327
  15.320         64.17	     8.775
  15.340         81.67	     9.899
  15.360         75.83	     9.539
  15.380         64.17	     8.775
  15.400         76.67	     9.592
  15.420         77.50	     9.644
  15.440         58.33	     8.367
  15.460         66.67	     8.944
  15.480         69.17	     9.110
  15.500         64.17	     8.775
  15.520         69.17	     9.110
  15.540         75.00	     9.487
  15.560         68.33	     9.055
  15.580         68.33	     9.055
  15.600         52.50	     7.937
  15.620         75.00	     9.487
  15.640         65.83	     8.888
  15.660         55.00	     8.124
  15.680         70.83	     9.220
  15.700         80.00	     9.798
  15.720         76.67	     9.592
  15.740         81.67	     9.899
  15.760         73.33	     9.381
  15.780         76.67	     9.592
  15.800         75.00	     9.487
  15.820         66.67	     8.944
  15.840         67.50	     9.000
  15.860         67.50	     9.000
  15.880         59.17	     8.426
  15.900         66.67	     8.944
  15.920         55.83	     8.185
  15.940         70.00	     9.165
  15.960         59.17	     8.426
  15.980         67.50	     9.000
  16.000         73.33	     9.381
  16.020         60.00	     8.485
  16.040         79.17	     9.747
  16.060         51.67	     7.874
  16.080         60.83	     8.544
  16.100         56.67	     8.246
  16.120         65.83	     8.888
  16.140         69.17	     9.110
  16.160         72.50	     9.327
  16.180         64.17	     8.775
  16.200         65.83	     8.888
  16.220         60.83	     8.544
  16.240         55.00	     8.124
  16.260         66.67	     8.944
  16.280         62.50	     8.660
  16.300         60.00	     8.485
  16.320         60.00	     8.485
  16.340         60.00	     8.485
  16.360         67.50	     9.000
  16.380         74.17	     9.434
  16.400         65.00	     8.832
  16.420         64.17	     8.775
  16.440         59.17	     8.426
  16.460         62.50	     8.660
  16.480         64.17	     8.775
  16.500         65.00	     8.832
  16.520         62.50	     8.660
  16.540         69.17	     9.110
  16.560         47.50	     7.550
  16.580         70.83	     9.220
  16.600         64.17	     8.775
  16.620         66.67	     8.944
  16.640         67.50	     9.000
  16.660         61.67	     8.602
  16.680         57.50	     8.307
  16.700         62.50	     8.660
  16.720         50.83	     7.810
  16.740         49.17	     7.681
  16.760         52.50	     7.937
  16.780         56.67	     8.246
  16.800         52.50	     7.937
  16.820         72.50	     9.327
  16.840         71.67	     9.274
  16.860         62.50	     8.660
  16.880         70.00	     9.165
  16.900         46.67	     7.483
  16.920         70.00	     9.165
  16.940         64.17	     8.775
  16.960         61.67	     8.602
  16.980         70.00	     9.165
  17.000         59.17	     8.426
  17.020         75.83	     9.539
  17.040         60.00	     8.485
  17.060         62.50	     8.660
  17.080         74.17	     9.434
  17.100         60.83	     8.544
  17.120         65.00	     8.832
  17.140         53.33	     8.000
  17.160         62.50	     8.660
  17.180         57.50	     8.307
  17.200         75.00	     9.487
  17.220         68.33	     9.055
  17.240         62.50	     8.660
  17.260         55.00	     8.124
  17.280         62.50	     8.660
  17.300         65.83	     8.888
  17.320         61.67	     8.602
  17.340         63.33	     8.718
  17.360         59.17	     8.426
  17.380         57.50	     8.307
  17.400         72.50	     9.327
  17.420         76.67	     9.592
  17.440         56.67	     8.246
  17.460         66.67	     8.944
  17.480         64.17	     8.775
  17.500         75.83	     9.539
  17.520         60.83	     8.544
  17.540         69.17	     9.110
  17.560         55.00	     8.124
  17.580         80.83	     9.849
  17.600        104.17	    11.180
  17.620        115.00	    11.747
  17.640        146.67	    13.266
  17.660        166.67	    14.142
  17.680        244.17	    17.117
  17.700        320.83	    19.621
  17.720        324.17	    19.723
  17.740        314.17	    19.416
  17.760        217.50	    16.155
  17.780        157.50	    13.748
  17.800        111.67	    11.576
  17.820         90.83	    10.440
  17.840         76.67	     9.592
  17.860         74.17	     9.434
  17.880         63.33	     8.718
  17.900         78.33	     9.695
  17.920         68.33	     9.055
  17.940         65.00	     8.832
  17.960         73.33	     9.381
  17.980         60.00	     8.485
  18.000         46.67	     7.483
  18.020         72.50	     9.327
  18.040         70.00	     9.165
  18.060         61.67	     8.602
  18.080         55.83	     8.185
  18.100         55.83	     8.185
  18.120         74.17	     9.434
  18.140         52.50	     7.937
  18.160         49.17	     7.681
  18.180         55.83	     8.185
  18.200         58.33	     8.367
  18.220         68.33	     9.055
  18.240         75.83	     9.539
  18.260         60.00	     8.485
  18.280         81.67	     9.899
  18.300         82.50	     9.950
  18.320         74.17	     9.434
  18.340         80.00	     9.798
  18.360         82.50	     9.950
  18.380         84.17	    10.050
  18.400         76.67	     9.592
  18.420         87.50	    10.247
  18.440        107.50	    11.358
  18.460         95.83	    10.724
  18.480        100.83	    11.000
  18.500        105.00	    11.225
  18.520         98.33	    10.863
  18.540        110.00	    11.489
  18.560         94.17	    10.630
  18.580         97.50	    10.817
  18.600         93.33	    10.583
  18.620         96.67	    10.770
  18.640        115.00	    11.747
  18.660        142.50	    13.077
  18.680        144.17	    13.153
  18.700        154.17	    13.601
  18.720        127.50	    12.369
  18.740        113.33	    11.662
  18.760         92.50	    10.536
  18.780         75.83	     9.539
  18.800         74.17	     9.434
  18.820         73.33	     9.381
  18.840         59.17	     8.426
  18.860         65.83	     8.888
  18.880         65.00	     8.832
  18.900         80.83	     9.849
  18.920         58.33	     8.367
  18.940         53.33	     8.000
  18.960         57.50	     8.307
  18.980         52.50	     7.937
  19.000         50.83	     7.810
  19.020         67.50	     9.000
  19.040         65.83	     8.888
  19.060         63.33	     8.718
  19.080         68.33	     9.055
  19.100         72.50	     9.327
  19.120         61.67	     8.602
  19.140         59.17	     8.426
  19.160         76.67	     9.592
  19.180         68.33	     9.055
  19.200         66.67	     8.944
  19.220         66.67	     8.944
  19.240         70.83	     9.220
  19.260         66.67	     8.944
  19.280         70.00	     9.165
  19.300         70.00	     9.165
  19.320         60.00	     8.485
  19.340         72.50	     9.327
  19.360         67.50	     9.000
  19.380         53.33	     8.000
  19.400         61.67	     8.602
  19.420         72.50	     9.327
  19.440         58.33	     8.367
  19.460         64.17	     8.775
  19.480         74.17	     9.434
  19.500         71.67	     9.274
  19.520         85.00	    10.100
  19.540         61.67	     8.602
  19.560         55.83	     8.185
  19.580         74.17	     9.434
  19.600         74.17	     9.434
  19.620         82.50	     9.950
  19.640         78.33	     9.695
  19.660         85.83	    10.149
  19.680         75.83	     9.539
  19.700         75.00	     9.487
  19.720         80.83	     9.849
  19.740         93.33	    10.583
  19.760         95.83	    10.724
  19.780         79.17	     9.747
  19.800         81.67	     9.899
  19.820         75.00	     9.487
  19.840         80.83	     9.849
  19.860         70.00	     9.165
  19.880         69.17	     9.110
  19.900         62.50	     8.660
  19.920         65.83	     8.888
  19.940         55.00	     8.124
  19.960         62.50	     8.660
  19.980         67.50	     9.000
  20.000         70.00	     9.165
  20.020         56.67	     8.246
  20.040         65.83	     8.888
  20.060         70.83	     9.220
  20.080         67.50	     9.000
  20.100         60.83	     8.544
  20.120         54.17	     8.062
  20.140         58.33	     8.367
  20.160         53.33	     8.000
  20.180         59.17	     8.426
  20.200         55.83	     8.185
  20.220         60.83	     8.544
  20.240         56.67	     8.246
  20.260         63.33	     8.718
  20.280         62.50	     8.660
  20.300         62.50	     8.660
  20.320         71.67	     9.274
  20.340         65.83	     8.888
  20.360         68.33	     9.055
  20.380         65.00	     8.832
  20.400         64.17	     8.775
  20.420         60.00	     8.485
  20.440         46.67	     7.483
  20.460         60.83	     8.544
  20.480         64.17	     8.775
  20.500         62.50	     8.660
  20.520         65.83	     8.888
  20.540         80.83	     9.849
  20.560         75.00	     9.487
  20.580         61.67	     8.602
  20.600         82.50	     9.950
  20.620         78.33	     9.695
  20.640         73.33	     9.381
  20.660         79.17	     9.747
  20.680        108.33	    11.402
  20.700        171.67	    14.353
  20.720        324.17	    19.723
  20.740        565.00	    26.038
  20.760        621.67	    27.313
  20.780        505.00	    24.617
  20.800        412.50	    22.249
  20.820        300.00	    18.974
  20.840        178.33	    14.629
  20.860        122.50	    12.124
  20.880         98.33	    10.863
  20.900        105.83	    11.269
  20.920         93.33	    10.583
  20.940         94.17	    10.630
  20.960         89.17	    10.344
  20.980         65.83	     8.888
  21.000         78.33	     9.695
  21.020         65.83	     8.888
  21.040         68.33	     9.055
  21.060         71.67	     9.274
  21.080         66.67	     8.944
  21.100         55.83	     8.185
  21.120         55.00	     8.124
  21.140         62.50	     8.660
  21.160         53.33	     8.000
  21.180         63.33	     8.718
  21.200         54.17	     8.062
  21.220         51.67	     7.874
  21.240         69.17	     9.110
  21.260         56.67	     8.246
  21.280         48.33	     7.616
  21.300         55.00	     8.124
  21.320         56.67	     8.246
  21.340         68.33	     9.055
  21.360         57.50	     8.307
  21.380         62.50	     8.660
  21.400         62.50	     8.660
  21.420         67.50	     9.000
  21.440         57.50	     8.307
  21.460         60.83	     8.544
  21.480         60.00	     8.485
  21.500         45.00	     7.348
  21.520         61.67	     8.602
  21.540         51.67	     7.874
  21.560         55.00	     8.124
  21.580         54.17	     8.062
  21.600         46.67	     7.483
  21.620         36.67	     6.633
  21.640         58.33	     8.367
  21.660         66.67	     8.944
  21.680         62.50	     8.660
  21.700         56.67	     8.246
  21.720         55.00	     8.124
  21.740         53.33	     8.000
  21.760         55.83	     8.185
  21.780         62.50	     8.660
  21.800         69.17	     9.110
  21.820         55.83	     8.185
  21.840         73.33	     9.381
  21.860         75.00	     9.487
  21.880        106.67	    11.314
  21.900        140.83	    13.000
  21.920        245.00	    17.146
  21.940        360.00	    20.785
  21.960        249.17	    17.292
  21.980        208.33	    15.811
  22.000        200.00	    15.492
  22.020        137.50	    12.845
  22.040        100.83	    11.000
  22.060         81.67	     9.899
  22.080         75.00	     9.487
  22.100         78.33	     9.695
  22.120         62.50	     8.660
  22.140         62.50	     8.660
  22.160         75.83	     9.539
  22.180         53.33	     8.000
  22.200         69.17	     9.110
  22.220         74.17	     9.434
  22.240         62.50	     8.660
  22.260         51.67	     7.874
  22.280         59.17	     8.426
  22.300         63.33	     8.718
  22.320         58.33	     8.367
  22.340         62.50	     8.660
  22.360         70.83	     9.220
  22.380         78.33	     9.695
  22.400         71.67	     9.274
  22.420         75.83	     9.539
  22.440         85.83	    10.149
  22.460         56.67	     8.246
  22.480         60.00	     8.485
  22.500         55.83	     8.185
  22.520         55.00	     8.124
  22.540         58.33	     8.367
  22.560         49.17	     7.681
  22.580         61.67	     8.602
  22.600         67.50	     9.000
  22.620         64.17	     8.775
  22.640         62.50	     8.660
  22.660         65.83	     8.888
  22.680         75.83	     9.539
  22.700         62.50	     8.660
  22.720         59.17	     8.426
  22.740         65.83	     8.888
  22.760         81.67	     9.899
  22.780         78.33	     9.695
  22.800         75.83	     9.539
  22.820         89.17	    10.344
  22.840         95.00	    10.677
  22.860         73.33	     9.381
  22.880         81.67	     9.899
  22.900         86.67	    10.198
  22.920         75.00	     9.487
  22.940         90.83	    10.440
  22.960         81.67	     9.899
  22.980         79.17	     9.747
  23.000         75.83	     9.539
  23.020         50.83	     7.810
  23.040         51.67	     7.874
  23.060         41.67	     7.071
  23.080         59.17	     8.426
  23.100         36.67	     6.633
  23.120         52.50	     7.937
  23.140         58.33	     8.367
  23.160         58.33	     8.367
  23.180         63.33	     8.718
  23.200         72.50	     9.327
  23.220         51.67	     7.874
  23.240         66.67	     8.944
  23.260         61.67	     8.602
  23.280         58.33	     8.367
  23.300         65.00	     8.832
  23.320         75.83	     9.539
  23.340         68.33	     9.055
  23.360         85.00	    10.100
  23.380        123.33	    12.166
  23.400        157.50	    13.748
  23.420        185.83	    14.933
  23.440        229.17	    16.583
  23.460        185.00	    14.900
  23.480        175.00	    14.491
  23.500        149.17	    13.379
  23.520        138.33	    12.884
  23.540         93.33	    10.583
  23.560         77.50	     9.644
  23.580         80.83	     9.849
  23.600         65.83	     8.888
  23.620         66.67	     8.944
  23.640         79.17	     9.747
  23.660         80.83	     9.849
  23.680         66.67	     8.944
  23.700         80.83	     9.849
  23.720         75.00	     9.487
  23.740         91.67	    10.488
  23.760         76.67	     9.592
  23.780         85.83	    10.149
  23.800         70.83	     9.220
  23.820         57.50	     8.307
  23.840         71.67	     9.274
  23.860         74.17	     9.434
  23.880         73.33	     9.381
  23.900         90.00	    10.392
  23.920         74.17	     9.434
  23.940         95.00	    10.677
  23.960         75.00	     9.487
  23.980         65.83	     8.888
  24.000         78.33	     9.695
  24.020         90.00	    10.392
  24.040        111.67	    11.576
  24.060         99.17	    10.909
  24.080         83.33	    10.000
  24.100        106.67	    11.314
  24.120        113.33	    11.662
  24.140        147.50	    13.304
  24.160        147.50	    13.304
  24.180        141.67	    13.038
  24.200        121.67	    12.083
  24.220        134.17	    12.689
  24.240        129.17	    12.450
  24.260        110.00	    11.489
  24.280        101.67	    11.045
  24.300         87.50	    10.247
  24.320         80.83	     9.849
  24.340         90.83	    10.440
  24.360         78.33	     9.695
  24.380        100.00	    10.954
  24.400        105.00	    11.225
  24.420        139.17	    12.923
  24.440        177.50	    14.595
  24.460        164.17	    14.036
  24.480        180.00	    14.697
  24.500        205.83	    15.716
  24.520        209.17	    15.843
  24.540        207.50	    15.780
  24.560        185.83	    14.933
  24.580        149.17	    13.379
  24.600        175.83	    14.526
  24.620        125.83	    12.288
  24.640        111.67	    11.576
  24.660        101.67	    11.045
  24.680        118.33	    11.916
  24.700        114.17	    11.705
  24.720        110.83	    11.533
  24.740        116.67	    11.832
  24.760        110.00	    11.489
  24.780        114.17	    11.705
  24.800         88.33	    10.296
  24.820        100.83	    11.000
  24.840        105.83	    11.269
  24.860        113.33	    11.662
  24.880         90.83	    10.440
  24.900        115.00	    11.747
  24.920        118.33	    11.916
  24.940        125.00	    12.247
  24.960        121.67	    12.083
  24.980        160.00	    13.856
  25.000        182.50	    14.799
  25.020        217.50	    16.155
  25.040        190.00	    15.100
  25.060        219.17	    16.217
  25.080        220.83	    16.279
  25.100        198.33	    15.427
  25.120        151.67	    13.491
  25.140        128.33	    12.410
  25.160        118.33	    11.916
  25.180         91.67	    10.488
  25.200        108.33	    11.402
  25.220         84.17	    10.050
  25.240        113.33	    11.662
  25.260        192.50	    15.199
  25.280        315.83	    19.468
  25.300        319.17	    19.570
  25.320        212.50	    15.969
  25.340        240.83	    17.000
  25.360        243.33	    17.088
  25.380        211.67	    15.937
  25.400        150.83	    13.454
  25.420        168.33	    14.213
  25.440        151.67	    13.491
  25.460        199.17	    15.460
  25.480        180.00	    14.697
  25.500        146.67	    13.266
  25.520        162.50	    13.964
  25.540        187.50	    15.000
  25.560        170.00	    14.283
  25.580        118.33	    11.916
  25.600        125.83	    12.288
  25.620        126.67	    12.329
  25.640         70.00	     9.165
  25.660         89.17	    10.344
  25.680         81.67	     9.899
  25.700         80.00	     9.798
  25.720         68.33	     9.055
  25.740         77.50	     9.644
  25.760         80.00	     9.798
  25.780         68.33	     9.055
  25.800         70.83	     9.220
  25.820         67.50	     9.000
  25.840         73.33	     9.381
  25.860         58.33	     8.367
  25.880         76.67	     9.592
  25.900         61.67	     8.602
  25.920         75.00	     9.487
  25.940         68.33	     9.055
  25.960         70.83	     9.220
  25.980         66.67	     8.944
  26.000         76.67	     9.592
  26.020         85.83	    10.149
  26.040         78.33	     9.695
  26.060         65.83	     8.888
  26.080         78.33	     9.695
  26.100         86.67	    10.198
  26.120         83.33	    10.000
  26.140         81.67	     9.899
  26.160         91.67	    10.488
  26.180         94.17	    10.630
  26.200        105.00	    11.225
  26.220        125.00	    12.247
  26.240        148.33	    13.342
  26.260        166.67	    14.142
  26.280        224.17	    16.401
  26.300        260.83	    17.692
  26.320        200.00	    15.492
  26.340        252.50	    17.407
  26.360        274.17	    18.138
  26.380        257.50	    17.578
  26.400        262.50	    17.748
  26.420        274.17	    18.138
  26.440        375.83	    21.237
  26.460        546.67	    25.612
  26.480        980.00	    34.293
  26.500       1915.00	    47.937
  26.520       2949.17	    59.489
  26.540       3019.17	    60.191
  26.560       2228.33	    51.711
  26.580       1880.83	    47.508
  26.600       1783.33	    46.260
  26.620       1350.00	    40.249
  26.640        770.00	    30.397
  26.660        545.00	    25.573
  26.680        486.67	    24.166
  26.700        551.67	    25.729
  26.720        608.33	    27.019
  26.740        739.17	    29.783
  26.760        722.50	    29.445
  26.780        709.17	    29.172
  26.800        650.83	    27.946
  26.820        505.83	    24.637
  26.840        407.50	    22.113
  26.860        275.00	    18.166
  26.880        255.00	    17.493
  26.900        185.00	    14.900
  26.920        164.17	    14.036
  26.940        165.00	    14.071
  26.960        171.67	    14.353
  26.980        127.50	    12.369
  27.000        134.17	    12.689
  27.020        127.50	    12.369
  27.040        119.17	    11.958
  27.060         95.83	    10.724
  27.080         98.33	    10.863
  27.100         90.00	    10.392
  27.120        100.83	    11.000
  27.140         92.50	    10.536
  27.160        105.00	    11.225
  27.180         85.83	    10.149
  27.200         87.50	    10.247
  27.220        110.00	    11.489
  27.240        130.00	    12.490
  27.260        120.00	    12.000
  27.280        110.83	    11.533
  27.300        125.00	    12.247
  27.320        164.17	    14.036
  27.340        297.50	    18.894
  27.360        360.83	    20.809
  27.380        323.33	    19.698
  27.400        298.33	    18.921
  27.420        345.83	    20.372
  27.440        250.00	    17.321
  27.460        189.17	    15.067
  27.480        166.67	    14.142
  27.500        151.67	    13.491
  27.520        115.83	    11.790
  27.540        126.67	    12.329
  27.560        135.83	    12.767
  27.580        175.00	    14.491
  27.600        240.83	    17.000
  27.620        249.17	    17.292
  27.640        319.17	    19.570
  27.660        265.83	    17.861
  27.680        270.83	    18.028
  27.700        295.00	    18.815
  27.720        276.67	    18.221
  27.740        315.83	    19.468
  27.760        542.50	    25.515
  27.780        809.17	    31.161
  27.800        861.67	    32.156
  27.820        828.33	    31.528
  27.840        884.17	    32.573
  27.860        646.67	    27.857
  27.880        525.83	    25.120
  27.900        400.00	    21.909
  27.920        275.00	    18.166
  27.940        176.67	    14.560
  27.960        182.50	    14.799
  27.980        167.50	    14.177
  28.000        152.50	    13.528
  28.020        149.17	    13.379
  28.040        150.83	    13.454
  28.060        140.83	    13.000
  28.080        126.67	    12.329
  28.100        104.17	    11.180
  28.120        106.67	    11.314
  28.140        105.83	    11.269
  28.160        109.17	    11.446
  28.180        117.50	    11.874
  28.200        120.00	    12.000
  28.220        105.00	    11.225
  28.240        107.50	    11.358
  28.260         76.67	     9.592
  28.280         88.33	    10.296
  28.300         68.33	     9.055
  28.320         74.17	     9.434
  28.340         85.00	    10.100
  28.360         80.83	     9.849
  28.380         85.83	    10.149
  28.400         71.67	     9.274
  28.420         80.83	     9.849
  28.440         80.83	     9.849
  28.460         91.67	    10.488
  28.480         88.33	    10.296
  28.500        122.50	    12.124
  28.520        107.50	    11.358
  28.540        103.33	    11.136
  28.560         82.50	     9.950
  28.580         89.17	    10.344
  28.600         75.83	     9.539
  28.620         79.17	     9.747
  28.640         80.83	     9.849
  28.660         70.83	     9.220
  28.680         87.50	    10.247
  28.700         53.33	     8.000
  28.720         70.00	     9.165
  28.740         65.83	     8.888
  28.760         60.00	     8.485
  28.780         53.33	     8.000
  28.800         60.00	     8.485
  28.820         65.83	     8.888
  28.840         58.33	     8.367
  28.860         51.67	     7.874
  28.880         53.33	     8.000
  28.900         58.33	     8.367
  28.920         48.33	     7.616
  28.940         53.33	     8.000
  28.960         57.50	     8.307
  28.980         52.50	     7.937
  29.000         57.50	     8.307
  29.020         49.17	     7.681
  29.040         54.17	     8.062
  29.060         52.50	     7.937
  29.080         57.50	     8.307
  29.100         71.67	     9.274
  29.120         52.50	     7.937
  29.140         51.67	     7.874
  29.160         54.17	     8.062
  29.180         55.83	     8.185
  29.200         57.50	     8.307
  29.220         45.83	     7.416
  29.240         50.00	     7.746
  29.260         47.50	     7.550
  29.280         43.33	     7.211
  29.300         63.33	     8.718
  29.320         51.67	     7.874
  29.340         52.50	     7.937
  29.360         44.17	     7.280
  29.380         45.00	     7.348
  29.400         77.50	     9.644
  29.420         60.00	     8.485
  29.440         45.83	     7.416
  29.460         50.83	     7.810
  29.480         55.83	     8.185
  29.500         54.17	     8.062
  29.520         46.67	     7.483
  29.540         66.67	     8.944
  29.560         46.67	     7.483
  29.580         57.50	     8.307
  29.600         68.33	     9.055
  29.620         53.33	     8.000
  29.640         84.17	    10.050
  29.660         79.17	     9.747
  29.680        111.67	    11.576
  29.700        136.67	    12.806
  29.720        165.83	    14.107
  29.740        177.50	    14.595
  29.760        178.33	    14.629
  29.780        163.33	    14.000
  29.800        161.67	    13.928
  29.820        145.83	    13.229
  29.840        120.83	    12.042
  29.860        118.33	    11.916
  29.880        111.67	    11.576
  29.900         94.17	    10.630
  29.920         81.67	     9.899
  29.940         81.67	     9.899
  29.960         85.00	    10.100
  29.980         89.17	    10.344
  30.000        115.00	    11.747
  30.020        100.83	    11.000
  30.040         95.00	    10.677
  30.060         78.33	     9.695
  30.080         77.50	     9.644
  30.100        101.67	    11.045
  30.120         90.83	    10.440
  30.140         75.83	     9.539
  30.160         93.33	    10.583
  30.180         90.00	    10.392
  30.200         83.33	    10.000
  30.220        105.83	    11.269
  30.240         94.17	    10.630
  30.260         92.50	    10.536
  30.280         70.00	     9.165
  30.300         90.83	    10.440
  30.320         84.17	    10.050
  30.340        125.83	    12.288
  30.360        123.33	    12.166
  30.380        138.33	    12.884
  30.400        110.00	    11.489
  30.420        117.50	    11.874
  30.440        109.17	    11.446
  30.460         86.67	    10.198
  30.480         76.67	     9.592
  30.500         77.50	     9.644
  30.520         61.67	     8.602
  30.540         51.67	     7.874
  30.560         60.83	     8.544
  30.580         56.67	     8.246
  30.600         59.17	     8.426
  30.620         65.83	     8.888
  30.640         65.00	     8.832
  30.660         85.00	    10.100
  30.680         68.33	     9.055
  30.700         72.50	     9.327
  30.720         82.50	     9.950
  30.740         88.33	    10.296
  30.760         80.00	     9.798
  30.780         66.67	     8.944
  30.800         80.83	     9.849
  30.820         93.33	    10.583
  30.840        113.33	    11.662
  30.860         85.00	    10.100
  30.880         83.33	    10.000
  30.900         87.50	    10.247
  30.920         91.67	    10.488
  30.940         75.83	     9.539
  30.960         68.33	     9.055
  30.980         80.00	     9.798
  31.000         73.33	     9.381
  31.020         73.33	     9.381
  31.040         85.00	    10.100
  31.060         84.17	    10.050
  31.080         91.67	    10.488
  31.100        125.00	    12.247
  31.120        135.00	    12.728
  31.140        137.50	    12.845
  31.160        141.67	    13.038
  31.180        120.00	    12.000
  31.200        115.00	    11.747
  31.220         98.33	    10.863
  31.240        115.83	    11.790
  31.260        107.50	    11.358
  31.280        106.67	    11.314
  31.300        104.17	    11.180
  31.320         77.50	     9.644
  31.340         87.50	    10.247
  31.360         78.33	     9.695
  31.380         68.33	     9.055
  31.400         80.00	     9.798
  31.420         82.50	     9.950
  31.440         81.67	     9.899
  31.460         74.17	     9.434
  31.480         75.00	     9.487
  31.500         75.00	     9.487
  31.520         63.33	     8.718
  31.540         62.50	     8.660
  31.560         55.83	     8.185
  31.580         57.50	     8.307
  31.600         46.67	     7.483
  31.620         55.83	     8.185
  31.640         60.83	     8.544
  31.660         50.83	     7.810
  31.680         50.83	     7.810
  31.700         47.50	     7.550
  31.720         43.33	     7.211
  31.740         58.33	     8.367
  31.760         57.50	     8.307
  31.780         58.33	     8.367
  31.800         52.50	     7.937
  31.820         50.00	     7.746
  31.840         77.50	     9.644
  31.860         61.67	     8.602
  31.880         80.00	     9.798
  31.900         74.17	     9.434
  31.920         60.83	     8.544
  31.940         75.00	     9.487
  31.960         71.67	     9.274
  31.980         79.17	     9.747
  32.000         95.00	    10.677
  32.020         70.00	     9.165
  32.040         70.00	     9.165
  32.060         88.33	    10.296
  32.080         86.67	    10.198
  32.100        121.67	    12.083
  32.120        100.83	    11.000
  32.140        110.83	    11.533
  32.160        103.33	    11.136
  32.180         91.67	    10.488
  32.200        101.67	    11.045
  32.220         75.00	     9.487
  32.240         71.67	     9.274
  32.260         78.33	     9.695
  32.280         65.83	     8.888
  32.300         55.00	     8.124
  32.320         45.83	     7.416
  32.340         50.00	     7.746
  32.360         36.67	     6.633
  32.380         51.67	     7.874
  32.400         50.00	     7.746
  32.420         44.17	     7.280
  32.440         51.67	     7.874
  32.460         36.67	     6.633
  32.480         36.67	     6.633
  32.500         38.33	     6.782
  32.520         43.33	     7.211
  32.540         40.00	     6.928
  32.560         37.50	     6.708
  32.580         39.17	     6.856
  32.600         43.33	     7.211
  32.620         48.33	     7.616
  32.640         50.00	     7.746
  32.660         49.17	     7.681
  32.680         37.50	     6.708
  32.700         40.00	     6.928
  32.720         40.00	     6.928
  32.740         35.83	     6.557
  32.760         40.00	     6.928
  32.780         45.00	     7.348
  32.800         42.50	     7.141
  32.820         43.33	     7.211
  32.840         50.83	     7.810
  32.860         49.17	     7.681
  32.880         49.17	     7.681
  32.900         60.83	     8.544
  32.920         70.00	     9.165
  32.940         72.50	     9.327
  32.960         60.00	     8.485
  32.980         65.83	     8.888
  33.000         69.17	     9.110
  33.020         59.17	     8.426
  33.040         55.83	     8.185
  33.060         79.17	     9.747
  33.080        115.83	    11.790
  33.100         97.50	    10.817
  33.120         77.50	     9.644
  33.140         62.50	     8.660
  33.160         79.17	     9.747
  33.180         82.50	     9.950
  33.200         60.83	     8.544
  33.220         56.67	     8.246
  33.240         45.00	     7.348
  33.260         61.67	     8.602
  33.280         50.00	     7.746
  33.300         52.50	     7.937
  33.320         36.67	     6.633
  33.340         55.00	     8.124
  33.360         52.50	     7.937
  33.380         50.00	     7.746
  33.400         50.00	     7.746
  33.420         41.67	     7.071
  33.440         42.50	     7.141
  33.460         42.50	     7.141
  33.480         45.00	     7.348
  33.500         40.00	     6.928
  33.520         47.50	     7.550
  33.540         46.67	     7.483
  33.560         53.33	     8.000
  33.580         32.50	     6.245
  33.600         42.50	     7.141
  33.620         40.00	     6.928
  33.640         35.00	     6.481
  33.660         48.33	     7.616
  33.680         45.00	     7.348
  33.700         40.00	     6.928
  33.720         40.83	     7.000
  33.740         40.83	     7.000
  33.760         47.50	     7.550
  33.780         55.83	     8.185
  33.800         42.50	     7.141
  33.820         56.67	     8.246
  33.840         62.50	     8.660
  33.860         67.50	     9.000
  33.880         58.33	     8.367
  33.900         58.33	     8.367
  33.920         59.17	     8.426
  33.940         51.67	     7.874
  33.960         66.67	     8.944
  33.980         69.17	     9.110
  34.000         57.50	     8.307
  34.020         55.00	     8.124
  34.040         49.17	     7.681
  34.060         66.67	     8.944
  34.080         59.17	     8.426
  34.100         56.67	     8.246
  34.120         51.67	     7.874
  34.140         53.33	     8.000
  34.160         63.33	     8.718
  34.180         66.67	     8.944
  34.200         75.00	     9.487
  34.220         64.17	     8.775
  34.240         56.67	     8.246
  34.260         50.83	     7.810
  34.280         67.50	     9.000
  34.300         67.50	     9.000
  34.320         71.67	     9.274
  34.340         74.17	     9.434
  34.360        105.83	    11.269
  34.380        105.83	    11.269
  34.400        104.17	    11.180
  34.420        112.50	    11.619
  34.440        122.50	    12.124
  34.460         85.00	    10.100
  34.480         95.83	    10.724
  34.500         92.50	    10.536
  34.520         88.33	    10.296
  34.540        113.33	    11.662
  34.560         79.17	     9.747
  34.580         91.67	    10.488
  34.600         66.67	     8.944
  34.620         89.17	    10.344
  34.640         75.83	     9.539
  34.660         80.00	     9.798
  34.680         72.50	     9.327
  34.700         85.83	    10.149
  34.720         77.50	     9.644
  34.740         94.17	    10.630
  34.760         97.50	    10.817
  34.780         93.33	    10.583
  34.800        102.50	    11.091
  34.820        118.33	    11.916
  34.840        107.50	    11.358
  34.860        137.50	    12.845
  34.880        142.50	    13.077
  34.900        132.50	    12.610
  34.920        179.17	    14.663
  34.940        123.33	    12.166
  34.960        155.00	    13.638
  34.980        118.33	    11.916
  35.000        113.33	    11.662
  35.020        100.83	    11.000
  35.040        110.83	    11.533
  35.060         90.83	    10.440
  35.080         90.83	    10.440
  35.100         75.83	     9.539
  35.120         77.50	     9.644
  35.140         70.00	     9.165
  35.160         64.17	     8.775
  35.180         70.00	     9.165
  35.200         72.50	     9.327
  35.220         79.17	     9.747
  35.240         83.33	    10.000
  35.260         73.33	     9.381
  35.280         72.50	     9.327
  35.300         85.83	    10.149
  35.320        100.00	    10.954
  35.340         97.50	    10.817
  35.360         72.50	     9.327
  35.380         96.67	    10.770
  35.400         87.50	    10.247
  35.420         93.33	    10.583
  35.440        102.50	    11.091
  35.460        119.17	    11.958
  35.480        144.17	    13.153
  35.500        274.17	    18.138
  35.520        335.83	    20.075
  35.540        244.17	    17.117
  35.560        135.00	    12.728
  35.580        116.67	    11.832
  35.600        168.33	    14.213
  35.620        172.50	    14.387
  35.640        120.00	    12.000
  35.660         72.50	     9.327
  35.680         80.00	     9.798
  35.700         65.00	     8.832
  35.720         72.50	     9.327
  35.740         59.17	     8.426
  35.760         51.67	     7.874
  35.780         51.67	     7.874
  35.800         66.67	     8.944
  35.820         59.17	     8.426
  35.840         63.33	     8.718
  35.860         64.17	     8.775
  35.880         68.33	     9.055
  35.900         62.50	     8.660
  35.920         85.00	    10.100
  35.940         81.67	     9.899
  35.960         88.33	    10.296
  35.980        104.17	    11.180
  36.000         82.50	     9.950
  36.020         84.17	    10.050
  36.040         89.17	    10.344
  36.060         78.33	     9.695
  36.080         64.17	     8.775
  36.100         60.83	     8.544
  36.120         54.17	     8.062
  36.140         63.33	     8.718
  36.160         50.00	     7.746
  36.180         50.00	     7.746
  36.200         60.83	     8.544
  36.220         73.33	     9.381
  36.240         52.50	     7.937
  36.260         62.50	     8.660
  36.280         67.50	     9.000
  36.300         66.67	     8.944
  36.320         59.17	     8.426
  36.340         62.50	     8.660
  36.360         82.50	     9.950
  36.380        113.33	    11.662
  36.400        156.67	    13.711
  36.420        236.67	    16.852
  36.440        280.00	    18.330
  36.460        191.67	    15.166
  36.480        158.33	    13.784
  36.500        131.67	    12.570
  36.520        175.83	    14.526
  36.540        175.00	    14.491
  36.560        129.17	    12.450
  36.580        105.83	    11.269
  36.600         94.17	    10.630
  36.620         86.67	    10.198
  36.640         88.33	    10.296
  36.660         86.67	    10.198
  36.680         82.50	     9.950
  36.700         72.50	     9.327
  36.720         71.67	     9.274
  36.740         61.67	     8.602
  36.760         66.67	     8.944
  36.780         55.83	     8.185
  36.800         60.83	     8.544
  36.820         57.50	     8.307
  36.840         56.67	     8.246
  36.860         60.83	     8.544
  36.880         45.83	     7.416
  36.900         47.50	     7.550
  36.920         41.67	     7.071
  36.940         51.67	     7.874
  36.960         60.00	     8.485
  36.980         73.33	     9.381
  37.000         75.00	     9.487
  37.020         57.50	     8.307
  37.040         55.83	     8.185
  37.060         58.33	     8.367
  37.080         70.83	     9.220
  37.100         65.83	     8.888
  37.120         61.67	     8.602
  37.140         53.33	     8.000
  37.160         51.67	     7.874
  37.180         50.00	     7.746
  37.200         57.50	     8.307
  37.220         67.50	     9.000
  37.240         70.83	     9.220
  37.260         55.00	     8.124
  37.280         74.17	     9.434
  37.300         70.00	     9.165
  37.320         61.67	     8.602
  37.340         70.83	     9.220
  37.360         69.17	     9.110
  37.380         65.83	     8.888
  37.400         73.33	     9.381
  37.420         72.50	     9.327
  37.440         64.17	     8.775
  37.460         66.67	     8.944
  37.480         70.00	     9.165
  37.500         74.17	     9.434
  37.520         74.17	     9.434
  37.540        110.00	    11.489
  37.560        122.50	    12.124
  37.580        157.50	    13.748
  37.600        125.83	    12.288
  37.620        136.67	    12.806
  37.640        101.67	    11.045
  37.660        114.17	    11.705
  37.680        106.67	    11.314
  37.700         90.83	    10.440
  37.720         70.83	     9.220
  37.740         71.67	     9.274
  37.760         59.17	     8.426
  37.780         50.00	     7.746
  37.800         63.33	     8.718
  37.820         50.83	     7.810
  37.840         41.67	     7.071
  37.860         50.00	     7.746
  37.880         48.33	     7.616
  37.900         43.33	     7.211
  37.920         45.83	     7.416
  37.940         30.83	     6.083
  37.960         36.67	     6.633
  37.980         39.17	     6.856
  38.000         43.33	     7.211
  38.020         30.83	     6.083
  38.040         32.50	     6.245
  38.060         35.83	     6.557
  38.080         31.67	     6.164
  38.100         33.33	     6.325
  38.120         42.50	     7.141
  38.140         32.50	     6.245
  38.160         26.67	     5.657
  38.180         42.50	     7.141
  38.200         26.67	     5.657
  38.220         53.33	     8.000
  38.240         32.50	     6.245
  38.260         38.33	     6.782
  38.280         30.83	     6.083
  38.300         45.00	     7.348
  38.320         34.17	     6.403
  38.340         25.00	     5.477
  38.360         33.33	     6.325
  38.380         47.50	     7.550
  38.400         37.50	     6.708
  38.420         47.50	     7.550
  38.440         48.33	     7.616
  38.460         45.83	     7.416
  38.480         45.83	     7.416
  38.500         34.17	     6.403
  38.520         54.17	     8.062
  38.540         57.50	     8.307
  38.560         36.67	     6.633
  38.580         43.33	     7.211
  38.600         45.83	     7.416
  38.620         40.00	     6.928
  38.640         48.33	     7.616
  38.660         39.17	     6.856
  38.680         42.50	     7.141
  38.700         51.67	     7.874
  38.720         51.67	     7.874
  38.740         46.67	     7.483
  38.760         55.00	     8.124
  38.780         45.83	     7.416
  38.800         43.33	     7.211
  38.820         50.83	     7.810
  38.840         38.33	     6.782
  38.860         57.50	     8.307
  38.880         40.00	     6.928
  38.900         45.83	     7.416
  38.920         44.17	     7.280
  38.940         42.50	     7.141
  38.960         52.50	     7.937
  38.980         51.67	     7.874
  39.000         42.50	     7.141
  39.020         40.83	     7.000
  39.040         37.50	     6.708
  39.060         45.83	     7.416
  39.080         40.00	     6.928
  39.100         35.83	     6.557
  39.120         55.83	     8.185
  39.140         55.83	     8.185
  39.160         45.00	     7.348
  39.180         43.33	     7.211
  39.200         46.67	     7.483
  39.220         49.17	     7.681
  39.240         53.33	     8.000
  39.260         57.50	     8.307
  39.280         65.83	     8.888
  39.300        100.00	    10.954
  39.320        146.67	    13.266
  39.340        278.33	    18.276
  39.360        372.50	    21.142
  39.380        285.00	    18.493
  39.400        160.83	    13.892
  39.420        131.67	    12.570
  39.440        155.83	    13.675
  39.460        208.33	    15.811
  39.480        203.33	    15.620
  39.500        126.67	    12.329
  39.520         77.50	     9.644
  39.540         70.83	     9.220
  39.560         66.67	     8.944
  39.580         56.67	     8.246
  39.600         73.33	     9.381
  39.620         65.00	     8.832
  39.640         47.50	     7.550
  39.660         58.33	     8.367
  39.680         68.33	     9.055
  39.700         51.67	     7.874
  39.720         46.67	     7.483
  39.740         39.17	     6.856
  39.760         54.17	     8.062
  39.780         40.83	     7.000
  39.800         53.33	     8.000
  39.820         55.00	     8.124
  39.840         52.50	     7.937
  39.860         45.00	     7.348
  39.880         33.33	     6.325
  39.900         58.33	     8.367
  39.920         47.50	     7.550
  39.940         50.00	     7.746
  39.960         52.50	     7.937
  39.980         58.33	     8.367
  40.000         35.83	     6.557
  40.020         46.67	     7.483
  40.040         53.33	     8.000
  40.060         50.83	     7.810
  40.080         65.83	     8.888
  40.100         47.50	     7.550
  40.120         63.33	     8.718
  40.140         95.83	    10.724
  40.160        133.33	    12.649
  40.180        137.50	    12.845
  40.200        139.17	    12.923
  40.220         89.17	    10.344
  40.240         85.00	    10.100
  40.260        106.67	    11.314
  40.280        110.00	    11.489
  40.300         92.50	    10.536
  40.320         74.17	     9.434
  40.340         65.00	     8.832
  40.360         50.83	     7.810
  40.380         49.17	     7.681
  40.400         50.83	     7.810
  40.420         40.83	     7.000
  40.440         49.17	     7.681
  40.460         39.17	     6.856
  40.480         46.67	     7.483
  40.500         47.50	     7.550
  40.520         41.67	     7.071
  40.540         45.00	     7.348
  40.560         39.17	     6.856
  40.580         54.17	     8.062
  40.600         50.00	     7.746
  40.620         47.50	     7.550
  40.640         43.33	     7.211
  40.660         33.33	     6.325
  40.680         63.33	     8.718
  40.700         50.00	     7.746
  40.720         51.67	     7.874
  40.740         61.67	     8.602
  40.760         50.00	     7.746
  40.780         40.00	     6.928
  40.800         54.17	     8.062
  40.820         48.33	     7.616
  40.840         71.67	     9.274
  40.860         55.00	     8.124
  40.880         53.33	     8.000
  40.900         50.83	     7.810
  40.920         40.00	     6.928
  40.940         46.67	     7.483
  40.960         45.83	     7.416
  40.980         49.17	     7.681
  41.000         49.17	     7.681
  41.020         52.50	     7.937
  41.040         45.00	     7.348
  41.060         51.67	     7.874
  41.080         60.83	     8.544
  41.100         50.00	     7.746
  41.120         53.33	     8.000
  41.140         60.00	     8.485
  41.160         55.00	     8.124
  41.180         60.83	     8.544
  41.200         72.50	     9.327
  41.220         50.83	     7.810
  41.240         45.00	     7.348
  41.260         68.33	     9.055
  41.280         51.67	     7.874
  41.300         39.17	     6.856
  41.320         60.00	     8.485
  41.340         50.83	     7.810
  41.360         45.00	     7.348
  41.380         56.67	     8.246
  41.400         52.50	     7.937
  41.420         53.33	     8.000
  41.440         62.50	     8.660
  41.460         55.00	     8.124
  41.480         65.00	     8.832
  41.500         55.00	     8.124
  41.520         66.67	     8.944
  41.540         89.17	    10.344
  41.560         94.17	    10.630
  41.580        143.33	    13.115
  41.600        192.50	    15.199
  41.620        130.83	    12.530
  41.640         97.50	    10.817
  41.660         95.83	    10.724
  41.680         92.50	    10.536
  41.700        107.50	    11.358
  41.720         95.83	    10.724
  41.740         71.67	     9.274
  41.760         73.33	     9.381
  41.780         70.00	     9.165
  41.800         63.33	     8.718
  41.820         65.83	     8.888
  41.840         64.17	     8.775
  41.860         65.83	     8.888
  41.880         55.83	     8.185
  41.900         51.67	     7.874
  41.920         65.00	     8.832
  41.940         63.33	     8.718
  41.960         56.67	     8.246
  41.980         59.17	     8.426
  42.000         65.83	     8.888
  42.020         51.67	     7.874
  42.040         38.33	     6.782
  42.060         68.33	     9.055
  42.080         65.83	     8.888
  42.100         59.17	     8.426
  42.120         56.67	     8.246
  42.140         58.33	     8.367
  42.160         75.83	     9.539
  42.180         62.50	     8.660
  42.200         65.83	     8.888
  42.220         55.00	     8.124
  42.240         75.83	     9.539
  42.260         85.83	    10.149
  42.280        114.17	    11.705
  42.300        151.67	    13.491
  42.320        204.17	    15.652
  42.340        317.50	    19.519
  42.360        339.17	    20.174
  42.380        238.33	    16.912
  42.400        182.50	    14.799
  42.420        145.00	    13.191
  42.440        174.17	    14.457
  42.460        188.33	    15.033
  42.480        195.00	    15.297
  42.500        141.67	    13.038
  42.520        107.50	    11.358
  42.540         74.17	     9.434
  42.560         65.00	     8.832
  42.580         80.83	     9.849
  42.600         75.00	     9.487
  42.620         63.33	     8.718
  42.640         74.17	     9.434
  42.660         70.83	     9.220
  42.680         70.00	     9.165
  42.700         71.67	     9.274
  42.720         65.00	     8.832
  42.740         60.83	     8.544
  42.760         60.00	     8.485
  42.780         45.83	     7.416
  42.800         51.67	     7.874
  42.820         60.83	     8.544
  42.840         64.17	     8.775
  42.860         55.00	     8.124
  42.880         45.00	     7.348
  42.900         56.67	     8.246
  42.920         53.33	     8.000
  42.940         57.50	     8.307
  42.960         44.17	     7.280
  42.980         49.17	     7.681
  43.000         53.33	     8.000
  43.020         47.50	     7.550
  43.040         54.17	     8.062
  43.060         48.33	     7.616
  43.080         65.00	     8.832
  43.100         49.17	     7.681
  43.120         58.33	     8.367
  43.140         55.00	     8.124
  43.160         51.67	     7.874
  43.180         59.17	     8.426
  43.200         53.33	     8.000
  43.220         61.67	     8.602
  43.240         63.33	     8.718
  43.260         72.50	     9.327
  43.280         66.67	     8.944
  43.300         78.33	     9.695
  43.320         80.00	     9.798
  43.340         76.67	     9.592
  43.360         74.17	     9.434
  43.380         95.00	    10.677
  43.400         80.83	     9.849
  43.420         94.17	    10.630
  43.440        112.50	    11.619
  43.460        118.33	    11.916
  43.480        109.17	    11.446
  43.500        114.17	    11.705
  43.520        118.33	    11.916
  43.540        119.17	    11.958
  43.560        120.00	    12.000
  43.580        101.67	    11.045
  43.600        106.67	    11.314
  43.620        119.17	    11.958
  43.640        112.50	    11.619
  43.660        107.50	    11.358
  43.680         96.67	    10.770
  43.700        110.83	    11.533
  43.720        122.50	    12.124
  43.740         99.17	    10.909
  43.760        100.83	    11.000
  43.780        105.83	    11.269
  43.800         94.17	    10.630
  43.820        115.83	    11.790
  43.840         98.33	    10.863
  43.860         98.33	    10.863
  43.880         97.50	    10.817
  43.900        103.33	    11.136
  43.920         83.33	    10.000
  43.940        100.00	    10.954
  43.960        113.33	    11.662
  43.980        110.00	    11.489
  44.000        123.33	    12.166
  44.020        123.33	    12.166
  44.040        134.17	    12.689
  44.060        120.00	    12.000
  44.080        153.33	    13.565
  44.100        145.00	    13.191
  44.120        164.17	    14.036
  44.140        182.50	    14.799
  44.160        170.83	    14.318
  44.180        212.50	    15.969
  44.200        200.83	    15.524
  44.220        226.67	    16.492
  44.240        210.00	    15.875
  44.260        250.83	    17.349
  44.280        256.67	    17.550
  44.300        277.50	    18.248
  44.320        265.83	    17.861
  44.340        317.50	    19.519
  44.360        290.00	    18.655
  44.380        288.33	    18.601
  44.400        297.50	    18.894
  44.420        286.67	    18.547
  44.440        316.67	    19.494
  44.460        301.67	    19.026
  44.480        286.67	    18.547
  44.500        268.33	    17.944
  44.520        264.17	    17.804
  44.540        237.50	    16.882
  44.560        247.50	    17.234
  44.580        234.17	    16.763
  44.600        223.33	    16.371
  44.620        222.50	    16.340
  44.640        181.67	    14.765
  44.660        165.83	    14.107
  44.680        165.00	    14.071
  44.700        169.17	    14.248
  44.720        161.67	    13.928
  44.740        155.00	    13.638
  44.760        147.50	    13.304
  44.780        134.17	    12.689
  44.800        147.50	    13.304
  44.820        125.00	    12.247
  44.840        142.50	    13.077
  44.860        116.67	    11.832
  44.880        121.67	    12.083
  44.900        110.83	    11.533
  44.920         95.00	    10.677
  44.940        101.67	    11.045
  44.960        106.67	    11.314
  44.980        102.50	    11.091
  45.000         87.50	    10.247
  45.020         98.33	    10.863
  45.040         96.67	    10.770
  45.060         89.17	    10.344
  45.080         82.50	     9.950
  45.100         75.83	     9.539
  45.120         80.83	     9.849
  45.140         79.17	     9.747
  45.160         69.17	     9.110
  45.180         90.83	    10.440
  45.200         85.83	    10.149
  45.220         90.83	    10.440
  45.240        100.00	    10.954
  45.260         83.33	    10.000
  45.280        105.00	    11.225
  45.300        126.67	    12.329
  45.320        137.50	    12.845
  45.340        182.50	    14.799
  45.360        182.50	    14.799
  45.380        191.67	    15.166
  45.400        246.67	    17.205
  45.420        245.00	    17.146
  45.440        273.33	    18.111
  45.460        317.50	    19.519
  45.480        254.17	    17.464
  45.500        244.17	    17.117
  45.520        250.00	    17.321
  45.540        200.83	    15.524
  45.560        195.00	    15.297
  45.580        183.33	    14.832
  45.600        162.50	    13.964
  45.620        145.00	    13.191
  45.640        145.00	    13.191
  45.660        152.50	    13.528
  45.680        173.33	    14.422
  45.700        164.17	    14.036
  45.720        133.33	    12.649
  45.740        104.17	    11.180
  45.760        109.17	    11.446
  45.780        126.67	    12.329
  45.800         94.17	    10.630
  45.820        113.33	    11.662
  45.840        110.00	    11.489
  45.860         79.17	     9.747
  45.880         78.33	     9.695
  45.900         76.67	     9.592
  45.920         64.17	     8.775
  45.940         70.00	     9.165
  45.960         56.67	     8.246
  45.980         72.50	     9.327
  46.000         53.33	     8.000
  46.020         46.67	     7.483
  46.040         55.00	     8.124
  46.060         54.17	     8.062
  46.080         43.33	     7.211
  46.100         52.50	     7.937
  46.120         50.83	     7.810
  46.140         44.17	     7.280
  46.160         56.67	     8.246
  46.180         35.83	     6.557
  46.200         44.17	     7.280
  46.220         54.17	     8.062
  46.240         52.50	     7.937
  46.260         60.83	     8.544
  46.280         35.00	     6.481
  46.300         42.50	     7.141
  46.320         33.33	     6.325
  46.340         36.67	     6.633
  46.360         39.17	     6.856
  46.380         49.17	     7.681
  46.400         44.17	     7.280
  46.420         35.00	     6.481
  46.440         55.00	     8.124
  46.460         41.67	     7.071
  46.480         49.17	     7.681
  46.500         43.33	     7.211
  46.520         52.50	     7.937
  46.540         40.83	     7.000
  46.560         55.00	     8.124
  46.580         49.17	     7.681
  46.600         46.67	     7.483
  46.620         40.00	     6.928
  46.640         45.83	     7.416
  46.660         40.00	     6.928
  46.680         40.83	     7.000
  46.700         34.17	     6.403
  46.720         45.00	     7.348
  46.740         41.67	     7.071
  46.760         38.33	     6.782
  46.780         33.33	     6.325
  46.800         47.50	     7.550
  46.820         41.67	     7.071
  46.840         34.17	     6.403
  46.860         39.17	     6.856
  46.880         48.33	     7.616
  46.900         54.17	     8.062
  46.920         38.33	     6.782
  46.940         59.17	     8.426
  46.960         46.67	     7.483
  46.980         58.33	     8.367
  47.000         50.00	     7.746
  47.020         60.00	     8.485
  47.040         70.00	     9.165
  47.060         78.33	     9.695
  47.080         59.17	     8.426
  47.100         52.50	     7.937
  47.120         49.17	     7.681
  47.140         72.50	     9.327
  47.160         53.33	     8.000
  47.180         50.00	     7.746
  47.200         45.83	     7.416
  47.220         47.50	     7.550
  47.240         54.17	     8.062
  47.260         39.17	     6.856
  47.280         44.17	     7.280
  47.300         40.00	     6.928
  47.320         39.17	     6.856
  47.340         53.33	     8.000
  47.360         35.83	     6.557
  47.380         34.17	     6.403
  47.400         35.00	     6.481
  47.420         34.17	     6.403
  47.440         39.17	     6.856
  47.460         35.00	     6.481
  47.480         33.33	     6.325
  47.500         39.17	     6.856
  47.520         37.50	     6.708
  47.540         45.00	     7.348
  47.560         37.50	     6.708
  47.580         37.50	     6.708
  47.600         45.00	     7.348
  47.620         44.17	     7.280
  47.640         42.50	     7.141
  47.660         43.33	     7.211
  47.680         30.83	     6.083
  47.700         37.50	     6.708
  47.720         26.67	     5.657
  47.740         30.83	     6.083
  47.760         50.83	     7.810
  47.780         40.83	     7.000
  47.800         57.50	     8.307
  47.820         50.83	     7.810
  47.840         60.83	     8.544
  47.860         53.33	     8.000
  47.880         54.17	     8.062
  47.900         59.17	     8.426
  47.920         40.83	     7.000
  47.940         44.17	     7.280
  47.960         55.83	     8.185
  47.980         69.17	     9.110
  48.000         58.33	     8.367
  48.020         65.00	     8.832
  48.040         65.83	     8.888
  48.060         74.17	     9.434
  48.080         79.17	     9.747
  48.100         59.17	     8.426
  48.120         61.67	     8.602
  48.140         55.00	     8.124
  48.160         60.00	     8.485
  48.180         74.17	     9.434
  48.200         51.67	     7.874
  48.220         64.17	     8.775
  48.240         41.67	     7.071
  48.260         57.50	     8.307
  48.280         49.17	     7.681
  48.300         41.67	     7.071
  48.320         36.67	     6.633
  48.340         49.17	     7.681
  48.360         44.17	     7.280
  48.380         47.50	     7.550
  48.400         43.33	     7.211
  48.420         40.00	     6.928
  48.440         50.00	     7.746
  48.460         36.67	     6.633
  48.480         44.17	     7.280
  48.500         41.67	     7.071
  48.520         44.17	     7.280
  48.540         38.33	     6.782
  48.560         43.33	     7.211
  48.580         31.67	     6.164
  48.600         35.83	     6.557
  48.620         41.67	     7.071
  48.640         39.17	     6.856
  48.660         35.83	     6.557
  48.680         47.50	     7.550
  48.700         43.33	     7.211
  48.720         44.17	     7.280
  48.740         43.33	     7.211
  48.760         33.33	     6.325
  48.780         44.17	     7.280
  48.800         34.17	     6.403
  48.820         39.17	     6.856
  48.840         36.67	     6.633
  48.860         38.33	     6.782
  48.880         39.17	     6.856
  48.900         49.17	     7.681
  48.920         46.67	     7.483
  48.940         31.67	     6.164
  48.960         33.33	     6.325
  48.980         42.50	     7.141
  49.000         34.17	     6.403
  49.020         43.33	     7.211
  49.040         42.50	     7.141
  49.060         43.33	     7.211
  49.080         52.50	     7.937
  49.100         45.83	     7.416
  49.120         45.00	     7.348
  49.140         41.67	     7.071
  49.160         39.17	     6.856
  49.180         57.50	     8.307
  49.200         44.17	     7.280
  49.220         42.50	     7.141
  49.240         50.83	     7.810
  49.260         50.83	     7.810
  49.280         43.33	     7.211
  49.300         36.67	     6.633
  49.320         49.17	     7.681
  49.340         45.00	     7.348
  49.360         44.17	     7.280
  49.380         40.00	     6.928
  49.400         42.50	     7.141
  49.420         48.33	     7.616
  49.440         37.50	     6.708
  49.460         55.83	     8.185
  49.480         45.83	     7.416
  49.500         35.83	     6.557
  49.520         49.17	     7.681
  49.540         39.17	     6.856
  49.560         44.17	     7.280
  49.580         43.33	     7.211
  49.600         61.67	     8.602
  49.620         60.83	     8.544
  49.640         50.00	     7.746
  49.660         51.67	     7.874
  49.680         53.33	     8.000
  49.700         60.00	     8.485
  49.720         58.33	     8.367
  49.740         64.17	     8.775
  49.760         54.17	     8.062
  49.780         65.00	     8.832
  49.800         75.83	     9.539
  49.820         85.83	    10.149
  49.840         87.50	    10.247
  49.860         98.33	    10.863
  49.880         95.00	    10.677
  49.900         82.50	     9.950
  49.920        101.67	    11.045
  49.940        110.00	    11.489
  49.960        161.67	    13.928
  49.980        250.00	    17.321
  50.000        380.83	    21.378
  50.020        573.33	    26.230
  50.040        523.33	    25.060
  50.060        383.33	    21.448
  50.080        224.17	    16.401
  50.100        170.00	    14.283
  50.120        185.00	    14.900
  50.140        250.83	    17.349
  50.160        297.50	    18.894
  50.180        275.00	    18.166
  50.200        192.50	    15.199
  50.220        129.17	    12.450
  50.240         96.67	    10.770
  50.260         69.17	     9.110
  50.280         60.83	     8.544
  50.300         55.83	     8.185
  50.320         66.67	     8.944
  50.340         48.33	     7.616
  50.360         74.17	     9.434
  50.380         59.17	     8.426
  50.400         61.67	     8.602
  50.420         62.50	     8.660
  50.440         84.17	    10.050
  50.460         91.67	    10.488
  50.480         89.17	    10.344
  50.500        104.17	    11.180
  50.520         85.00	    10.100
  50.540         75.83	     9.539
  50.560         84.17	    10.050
  50.580         77.50	     9.644
  50.600         78.33	     9.695
  50.620         76.67	     9.592
  50.640         69.17	     9.110
  50.660         72.50	     9.327
  50.680         71.67	     9.274
  50.700         52.50	     7.937
  50.720         50.00	     7.746
  50.740         49.17	     7.681
  50.760         58.33	     8.367
  50.780         50.83	     7.810
  50.800         40.83	     7.000
  50.820         48.33	     7.616
  50.840         47.50	     7.550
  50.860         54.17	     8.062
  50.880         55.00	     8.124
  50.900         45.83	     7.416
  50.920         40.00	     6.928
  50.940         55.83	     8.185
  50.960         55.00	     8.124
  50.980         74.17	     9.434
  51.000        118.33	    11.916
  51.020        200.00	    15.492
  51.040        319.17	    19.570
  51.060        325.00	    19.748
  51.080        211.67	    15.937
  51.100        126.67	    12.329
  51.120         92.50	    10.536
  51.140         90.83	    10.440
  51.160        139.17	    12.923
  51.180        174.17	    14.457
  51.200        189.17	    15.067
  51.220        125.00	    12.247
  51.240         78.33	     9.695
  51.260         62.50	     8.660
  51.280         63.33	     8.718
  51.300         44.17	     7.280
  51.320         50.00	     7.746
  51.340         51.67	     7.874
  51.360         48.33	     7.616
  51.380         47.50	     7.550
  51.400         50.83	     7.810
  51.420         32.50	     6.245
  51.440         43.33	     7.211
  51.460         40.83	     7.000
  51.480         36.67	     6.633
  51.500         34.17	     6.403
  51.520         32.50	     6.245
  51.540         44.17	     7.280
  51.560         46.67	     7.483
  51.580         38.33	     6.782
  51.600         33.33	     6.325
  51.620         25.00	     5.477
  51.640         40.00	     6.928
  51.660         35.00	     6.481
  51.680         29.17	     5.916
  51.700         33.33	     6.325
  51.720         31.67	     6.164
  51.740         41.67	     7.071
  51.760         35.83	     6.557
  51.780         31.67	     6.164
  51.800         28.33	     5.831
  51.820         31.67	     6.164
  51.840         31.67	     6.164
  51.860         33.33	     6.325
  51.880         40.00	     6.928
  51.900         35.00	     6.481
  51.920         34.17	     6.403
  51.940         46.67	     7.483
  51.960         37.50	     6.708
  51.980         53.33	     8.000
  52.000         45.83	     7.416
  52.020         50.83	     7.810
  52.040         48.33	     7.616
  52.060         58.33	     8.367
  52.080         44.17	     7.280
  52.100         53.33	     8.000
  52.120         37.50	     6.708
  52.140         45.00	     7.348
  52.160         55.83	     8.185
  52.180         50.00	     7.746
  52.200         48.33	     7.616
  52.220         55.00	     8.124
  52.240         56.67	     8.246
  52.260         51.67	     7.874
  52.280         35.00	     6.481
  52.300         42.50	     7.141
  52.320         47.50	     7.550
  52.340         39.17	     6.856
  52.360         60.00	     8.485
  52.380         75.00	     9.487
  52.400        123.33	    12.166
  52.420        154.17	    13.601
  52.440        152.50	    13.528
  52.460        105.00	    11.225
  52.480         75.00	     9.487
  52.500         64.17	     8.775
  52.520         76.67	     9.592
  52.540         83.33	    10.000
  52.560        107.50	    11.358
  52.580         96.67	    10.770
  52.600         77.50	     9.644
  52.620         54.17	     8.062
  52.640         57.50	     8.307
  52.660         49.17	     7.681
  52.680         41.67	     7.071
  52.700         43.33	     7.211
  52.720         42.50	     7.141
  52.740         64.17	     8.775
  52.760         57.50	     8.307
  52.780         48.33	     7.616
  52.800         55.83	     8.185
  52.820         40.00	     6.928
  52.840         47.50	     7.550
  52.860         41.67	     7.071
  52.880         60.83	     8.544
  52.900         51.67	     7.874
  52.920         58.33	     8.367
  52.940         44.17	     7.280
  52.960         41.67	     7.071
  52.980         48.33	     7.616
  53.000         46.67	     7.483
  53.020         47.50	     7.550
  53.040         51.67	     7.874
  53.060         51.67	     7.874
  53.080         57.50	     8.307
  53.100         55.00	     8.124
  53.120         61.67	     8.602
  53.140         53.33	     8.000
  53.160         52.50	     7.937
  53.180         69.17	     9.110
  53.200         50.00	     7.746
  53.220         42.50	     7.141
  53.240         38.33	     6.782
  53.260         47.50	     7.550
  53.280         34.17	     6.403
  53.300         51.67	     7.874
  53.320         50.00	     7.746
  53.340         52.50	     7.937
  53.360         37.50	     6.708
  53.380         35.83	     6.557
  53.400         42.50	     7.141
  53.420         42.50	     7.141
  53.440         37.50	     6.708
  53.460         36.67	     6.633
  53.480         35.83	     6.557
  53.500         38.33	     6.782
  53.520         30.00	     6.000
  53.540         40.83	     7.000
  53.560         34.17	     6.403
  53.580         37.50	     6.708
  53.600         39.17	     6.856
  53.620         40.83	     7.000
  53.640         37.50	     6.708
  53.660         34.17	     6.403
  53.680         33.33	     6.325
  53.700         30.83	     6.083
  53.720         43.33	     7.211
  53.740         36.67	     6.633
  53.760         28.33	     5.831
  53.780         30.00	     6.000
  53.800         36.67	     6.633
  53.820         35.00	     6.481
  53.840         45.00	     7.348
  53.860         40.83	     7.000
  53.880         36.67	     6.633
  53.900         35.83	     6.557
  53.920         35.83	     6.557
  53.940         28.33	     5.831
  53.960         34.17	     6.403
  53.980         38.33	     6.782
  54.000         36.67	     6.633
  54.020         31.67	     6.164
  54.040         27.50	     5.745
  54.060         46.67	     7.483
  54.080         27.50	     5.745
  54.100         42.50	     7.141
  54.120         45.83	     7.416
  54.140         37.50	     6.708
  54.160         41.67	     7.071
  54.180         40.00	     6.928
  54.200         47.50	     7.550
  54.220         46.67	     7.483
  54.240         36.67	     6.633
  54.260         35.83	     6.557
  54.280         39.17	     6.856
  54.300         42.50	     7.141
  54.320         50.00	     7.746
  54.340         40.83	     7.000
  54.360         42.50	     7.141
  54.380         46.67	     7.483
  54.400         40.83	     7.000
  54.420         55.00	     8.124
  54.440         42.50	     7.141
  54.460         40.00	     6.928
  54.480         44.17	     7.280
  54.500         51.67	     7.874
  54.520         49.17	     7.681
  54.540         45.83	     7.416
  54.560         50.83	     7.810
  54.580         56.67	     8.246
  54.600         45.83	     7.416
  54.620         49.17	     7.681
  54.640         49.17	     7.681
  54.660         54.17	     8.062
  54.680         60.83	     8.544
  54.700         69.17	     9.110
  54.720         95.00	    10.677
  54.740        106.67	    11.314
  54.760        133.33	    12.649
  54.780        103.33	    11.136
  54.800         78.33	     9.695
  54.820         59.17	     8.426
  54.840         63.33	     8.718
  54.860         65.83	     8.888
  54.880         75.00	     9.487
  54.900         94.17	    10.630
  54.920         90.00	    10.392
  54.940         72.50	     9.327
  54.960         62.50	     8.660
  54.980         47.50	     7.550
  55.000         48.33	     7.616
  55.020         47.50	     7.550
  55.040         40.83	     7.000
  55.060         48.33	     7.616
  55.080         47.50	     7.550
  55.100         45.83	     7.416
  55.120         50.00	     7.746
  55.140         52.50	     7.937
  55.160         60.83	     8.544
  55.180         66.67	     8.944
  55.200         70.00	     9.165
  55.220         85.83	    10.149
  55.240         82.50	     9.950
  55.260         60.83	     8.544
  55.280         55.83	     8.185
  55.300         57.50	     8.307
  55.320         56.67	     8.246
  55.340         46.67	     7.483
  55.360         69.17	     9.110
  55.380         70.83	     9.220
  55.400         48.33	     7.616
  55.420         50.83	     7.810
  55.440         47.50	     7.550
  55.460         45.00	     7.348
  55.480         46.67	     7.483
  55.500         48.33	     7.616
  55.520         37.50	     6.708
  55.540         60.00	     8.485
  55.560         47.50	     7.550
  55.580         50.00	     7.746
  55.600         55.83	     8.185
  55.620         53.33	     8.000
  55.640         50.83	     7.810
  55.660         60.83	     8.544
  55.680         72.50	     9.327
  55.700         69.17	     9.110
  55.720         69.17	     9.110
  55.740         67.50	     9.000
  55.760         64.17	     8.775
  55.780         63.33	     8.718
  55.800         66.67	     8.944
  55.820         65.00	     8.832
  55.840         55.83	     8.185
  55.860         64.17	     8.775
  55.880         58.33	     8.367
  55.900         52.50	     7.937
  55.920         49.17	     7.681
  55.940         48.33	     7.616
  55.960         39.17	     6.856
  55.980         47.50	     7.550
  56.000         42.50	     7.141
  56.020         50.00	     7.746
  56.040         45.00	     7.348
  56.060         56.67	     8.246
  56.080         48.33	     7.616
  56.100         44.17	     7.280
  56.120         35.83	     6.557
  56.140         45.83	     7.416
  56.160         32.50	     6.245
  56.180         49.17	     7.681
  56.200         39.17	     6.856
  56.220         37.50	     6.708
  56.240         45.83	     7.416
  56.260         45.83	     7.416
  56.280         33.33	     6.325
  56.300         28.33	     5.831
  56.320         35.00	     6.481
  56.340         44.17	     7.280
  56.360         35.83	     6.557
  56.380         47.50	     7.550
  56.400         45.83	     7.416
  56.420         56.67	     8.246
  56.440         45.00	     7.348
  56.460         34.17	     6.403
  56.480         27.50	     5.745
  56.500         37.50	     6.708
  56.520         45.83	     7.416
  56.540         38.33	     6.782
  56.560         46.67	     7.483
  56.580         46.67	     7.483
  56.600         50.83	     7.810
  56.620         36.67	     6.633
  56.640         43.33	     7.211
  56.660         33.33	     6.325
  56.680         61.67	     8.602
  56.700         35.00	     6.481
  56.720         41.67	     7.071
  56.740         48.33	     7.616
  56.760         43.33	     7.211
  56.780         40.00	     6.928
  56.800         33.33	     6.325
  56.820         40.00	     6.928
  56.840         58.33	     8.367
  56.860         41.67	     7.071
  56.880         39.17	     6.856
  56.900         50.00	     7.746
  56.920         57.50	     8.307
  56.940         44.17	     7.280
  56.960         33.33	     6.325
  56.980         48.33	     7.616
  57.000         45.83	     7.416
  57.020         46.67	     7.483
  57.040         37.50	     6.708
  57.060         55.83	     8.185
  57.080         40.00	     6.928
  57.100         51.67	     7.874
  57.120         49.17	     7.681
  57.140         67.50	     9.000
  57.160         48.33	     7.616
  57.180         49.17	     7.681
  57.200         45.83	     7.416
  57.220         46.67	     7.483
  57.240         32.50	     6.245
  57.260         52.50	     7.937
  57.280         40.83	     7.000
  57.300         40.83	     7.000
  57.320         46.67	     7.483
  57.340         40.83	     7.000
  57.360         31.67	     6.164
  57.380         22.50	     5.196
  57.400         40.00	     6.928
  57.420         39.17	     6.856
  57.440         42.50	     7.141
  57.460         31.67	     6.164
  57.480         45.83	     7.416
  57.500         30.83	     6.083
  57.520         48.33	     7.616
  57.540         48.33	     7.616
  57.560         30.83	     6.083
  57.580         34.17	     6.403
  57.600         41.67	     7.071
  57.620         46.67	     7.483
  57.640         54.17	     8.062
  57.660         41.67	     7.071
  57.680         44.17	     7.280
  57.700         38.33	     6.782
  57.720         42.50	     7.141
  57.740         41.67	     7.071
  57.760         29.17	     5.916
  57.780         40.83	     7.000
  57.800         48.33	     7.616
  57.820         35.83	     6.557
  57.840         35.00	     6.481
  57.860         34.17	     6.403
  57.880         35.83	     6.557
  57.900         41.67	     7.071
  57.920         32.50	     6.245
  57.940         37.50	     6.708
  57.960         42.50	     7.141
  57.980         30.83	     6.083
  58.000         40.00	     6.928
  58.020         45.83	     7.416
  58.040         50.83	     7.810
  58.060         38.33	     6.782
  58.080         50.00	     7.746
  58.100         50.00	     7.746
  58.120         36.67	     6.633
  58.140         39.17	     6.856
  58.160         50.00	     7.746
  58.180         46.67	     7.483
  58.200         52.50	     7.937
  58.220         70.00	     9.165
  58.240         60.00	     8.485
  58.260         89.17	    10.344
  58.280         95.83	    10.724
  58.300         77.50	     9.644
  58.320         67.50	     9.000
  58.340         75.83	     9.539
  58.360         75.83	     9.539
  58.380         80.83	     9.849
  58.400         55.83	     8.185
  58.420         70.83	     9.220
  58.440         70.83	     9.220
  58.460         65.00	     8.832
  58.480         72.50	     9.327
  58.500         64.17	     8.775
  58.520         76.67	     9.592
  58.540         80.00	     9.798
  58.560         60.00	     8.485
  58.580         48.33	     7.616
  58.600         50.83	     7.810
  58.620         52.50	     7.937
  58.640         66.67	     8.944
  58.660         59.17	     8.426
  58.680         62.50	     8.660
  58.700         78.33	     9.695
  58.720         45.00	     7.348
  58.740         41.67	     7.071
  58.760         35.83	     6.557
  58.780         44.17	     7.280
  58.800         52.50	     7.937
  58.820         54.17	     8.062
  58.840         55.00	     8.124
  58.860         62.50	     8.660
  58.880         50.00	     7.746
  58.900         47.50	     7.550
  58.920         45.83	     7.416
  58.940         56.67	     8.246
  58.960         51.67	     7.874
  58.980         57.50	     8.307
  59.000         55.83	     8.185
  59.020         63.33	     8.718
  59.040         65.83	     8.888
  59.060         72.50	     9.327
  59.080         67.50	     9.000
  59.100         69.17	     9.110
  59.120         81.67	     9.899
  59.140         72.50	     9.327
  59.160         50.00	     7.746
  59.180         50.00	     7.746
  59.200         64.17	     8.775
  59.220         55.00	     8.124
  59.240         62.50	     8.660
  59.260         73.33	     9.381
  59.280         52.50	     7.937
  59.300         62.50	     8.660
  59.320         65.00	     8.832
  59.340         66.67	     8.944
  59.360         47.50	     7.550
  59.380         41.67	     7.071
  59.400         50.00	     7.746
  59.420         47.50	     7.550
  59.440         56.67	     8.246
  59.460         51.67	     7.874
  59.480         46.67	     7.483
  59.500         70.83	     9.220
  59.520         55.00	     8.124
  59.540         50.00	     7.746
  59.560         41.67	     7.071
  59.580         50.00	     7.746
  59.600         53.33	     8.000
  59.620         48.33	     7.616
  59.640         64.17	     8.775
  59.660         53.33	     8.000
  59.680         74.17	     9.434
  59.700         66.67	     8.944
  59.720         76.67	     9.592
  59.740         96.67	    10.770
  59.760        100.00	    10.954
  59.780        143.33	    13.115
  59.800        185.00	    14.900
  59.820        234.17	    16.763
  59.840        283.33	    18.439
  59.860        266.67	    17.889
  59.880        205.00	    15.684
  59.900        160.83	    13.892
  59.920        125.00	    12.247
  59.940        125.00	    12.247
  59.960        120.83	    12.042
  59.980        117.50	    11.874
  60.000        194.17	    15.264
  60.020        172.50	    14.387
  60.040        147.50	    13.304
  60.060        101.67	    11.045
  60.080         80.00	     9.798
  60.100         63.33	     8.718
  60.120         69.17	     9.110
  60.140         52.50	     7.937
  60.160         55.83	     8.185
  60.180         58.33	     8.367
  60.200         45.00	     7.348
  60.220         47.50	     7.550
  60.240         50.83	     7.810
  60.260         45.00	     7.348
  60.280         45.83	     7.416
  60.300         51.67	     7.874
  60.320         48.33	     7.616
  60.340         59.17	     8.426
  60.360         67.50	     9.000
  60.380         60.00	     8.485
  60.400         40.83	     7.000
  60.420         51.67	     7.874
  60.440         45.00	     7.348
  60.460         56.67	     8.246
  60.480         55.00	     8.124
  60.500         54.17	     8.062
  60.520         52.50	     7.937
  60.540         56.67	     8.246
  60.560         60.00	     8.485
  60.580         55.83	     8.185
  60.600         52.50	     7.937
  60.620         66.67	     8.944
  60.640         53.33	     8.000
  60.660         60.00	     8.485
  60.680         56.67	     8.246
  60.700         49.17	     7.681
  60.720         55.83	     8.185
  60.740         59.17	     8.426
  60.760         62.50	     8.660
  60.780         55.00	     8.124
  60.800         57.50	     8.307
  60.820         56.67	     8.246
  60.840         61.67	     8.602
  60.860         58.33	     8.367
  60.880         55.83	     8.185
  60.900         59.17	     8.426
  60.920         61.67	     8.602
  60.940         58.33	     8.367
  60.960         43.33	     7.211
  60.980         37.50	     6.708
  61.000         60.83	     8.544
  61.020         60.00	     8.485
  61.040         51.67	     7.874
  61.060         40.83	     7.000
  61.080         43.33	     7.211
  61.100         52.50	     7.937
  61.120         36.67	     6.633
  61.140         38.33	     6.782
  61.160         58.33	     8.367
  61.180         46.67	     7.483
  61.200         50.00	     7.746
  61.220         51.67	     7.874
  61.240         43.33	     7.211
  61.260         64.17	     8.775
  61.280         55.00	     8.124
  61.300         50.83	     7.810
  61.320         62.50	     8.660
  61.340         68.33	     9.055
  61.360         63.33	     8.718
  61.380         77.50	     9.644
  61.400         77.50	     9.644
  61.420         68.33	     9.055
  61.440         74.17	     9.434
  61.460         64.17	     8.775
  61.480         55.83	     8.185
  61.500         65.00	     8.832
  61.520         55.00	     8.124
  61.540         70.83	     9.220
  61.560         61.67	     8.602
  61.580         66.67	     8.944
  61.600         58.33	     8.367
  61.620         75.83	     9.539
  61.640         74.17	     9.434
  61.660         82.50	     9.950
  61.680         96.67	    10.770
  61.700         63.33	     8.718
  61.720         63.33	     8.718
  61.740         66.67	     8.944
  61.760         79.17	     9.747
  61.780         58.33	     8.367
  61.800         72.50	     9.327
  61.820         52.50	     7.937
  61.840         67.50	     9.000
  61.860         66.67	     8.944
  61.880         74.17	     9.434
  61.900         57.50	     8.307
  61.920         47.50	     7.550
  61.940         63.33	     8.718
  61.960         49.17	     7.681
  61.980         44.17	     7.280
  62.000         50.83	     7.810
  62.020         49.17	     7.681
  62.040         47.50	     7.550
  62.060         50.00	     7.746
  62.080         46.67	     7.483
  62.100         47.50	     7.550
  62.120         50.00	     7.746
  62.140         42.50	     7.141
  62.160         38.33	     6.782
  62.180         42.50	     7.141
  62.200         40.00	     6.928
  62.220         36.67	     6.633
  62.240         35.00	     6.481
  62.260         43.33	     7.211
  62.280         33.33	     6.325
  62.300         38.33	     6.782
  62.320         45.00	     7.348
  62.340         41.67	     7.071
  62.360         42.50	     7.141
  62.380         43.33	     7.211
  62.400         30.00	     6.000
  62.420         37.50	     6.708
  62.440         38.33	     6.782
  62.460         40.83	     7.000
  62.480         47.50	     7.550
  62.500         50.00	     7.746
  62.520         50.00	     7.746
  62.540         42.50	     7.141
  62.560         30.83	     6.083
  62.580         47.50	     7.550
  62.600         41.67	     7.071
  62.620         42.50	     7.141
  62.640         36.67	     6.633
  62.660         42.50	     7.141
  62.680         37.50	     6.708
  62.700         40.83	     7.000
  62.720         42.50	     7.141
  62.740         26.67	     5.657
  62.760         43.33	     7.211
  62.780         48.33	     7.616
  62.800         40.00	     6.928
  62.820         34.17	     6.403
  62.840         44.17	     7.280
  62.860         35.83	     6.557
  62.880         33.33	     6.325
  62.900         40.00	     6.928
  62.920         39.17	     6.856
  62.940         51.67	     7.874
  62.960         33.33	     6.325
  62.980         43.33	     7.211
  63.000         44.17	     7.280
  63.020         53.33	     8.000
  63.040         44.17	     7.280
  63.060         34.17	     6.403
  63.080         45.00	     7.348
  63.100         43.33	     7.211
  63.120         40.83	     7.000
  63.140         36.67	     6.633
  63.160         58.33	     8.367
  63.180         49.17	     7.681
  63.200         50.83	     7.810
  63.220         44.17	     7.280
  63.240         50.00	     7.746
  63.260         46.67	     7.483
  63.280         49.17	     7.681
  63.300         48.33	     7.616
  63.320         55.00	     8.124
  63.340         48.33	     7.616
  63.360         60.83	     8.544
  63.380         34.17	     6.403
  63.400         45.00	     7.348
  63.420         35.83	     6.557
  63.440         54.17	     8.062
  63.460         39.17	     6.856
  63.480         49.17	     7.681
  63.500         47.50	     7.550
  63.520         37.50	     6.708
  63.540         44.17	     7.280
  63.560         37.50	     6.708
  63.580         48.33	     7.616
  63.600         50.83	     7.810
  63.620         40.83	     7.000
  63.640         53.33	     8.000
  63.660         50.00	     7.746
  63.680         52.50	     7.937
  63.700         52.50	     7.937
  63.720         55.00	     8.124
  63.740         57.50	     8.307
  63.760         60.83	     8.544
  63.780         44.17	     7.280
  63.800         51.67	     7.874
  63.820         42.50	     7.141
  63.840         56.67	     8.246
  63.860         64.17	     8.775
  63.880         73.33	     9.381
  63.900         99.17	    10.909
  63.920        116.67	    11.832
  63.940        120.83	    12.042
  63.960        115.83	    11.790
  63.980         90.00	    10.392
  64.000         64.17	     8.775
  64.020         70.00	     9.165
  64.040         55.83	     8.185
  64.060         65.83	     8.888
  64.080         83.33	    10.000
  64.100         74.17	     9.434
  64.120        102.50	    11.091
  64.140         70.83	     9.220
  64.160         66.67	     8.944
  64.180         52.50	     7.937
  64.200         42.50	     7.141
  64.220         47.50	     7.550
  64.240         45.83	     7.416
  64.260         42.50	     7.141
  64.280         50.83	     7.810
  64.300         43.33	     7.211
  64.320         37.50	     6.708
  64.340         48.33	     7.616
  64.360         55.83	     8.185
  64.380         47.50	     7.550
  64.400         50.00	     7.746
  64.420         40.83	     7.000
  64.440         54.17	     8.062
  64.460         38.33	     6.782
  64.480         50.00	     7.746
  64.500         54.17	     8.062
  64.520         44.17	     7.280
  64.540         56.67	     8.246
  64.560         56.67	     8.246
  64.580         50.83	     7.810
  64.600         62.50	     8.660
  64.620         56.67	     8.246
  64.640         45.83	     7.416
  64.660         53.33	     8.000
  64.680         52.50	     7.937
  64.700         49.17	     7.681
  64.720         53.33	     8.000
  64.740         55.83	     8.185
  64.760         53.33	     8.000
  64.780         52.50	     7.937
  64.800         59.17	     8.426
  64.820         65.00	     8.832
  64.840         53.33	     8.000
  64.860         49.17	     7.681
  64.880         56.67	     8.246
  64.900         50.00	     7.746
  64.920         61.67	     8.602
  64.940         66.67	     8.944
  64.960         70.83	     9.220
  64.980         56.67	     8.246
  65.000         72.50	     9.327
