
Filename:
	C:\Program Files\Thermo Electron\WinXRD\Datafiles\F_HERMAN\GEO\G56_RT.raw

File Created:
	February 20, 2020 - 08:02 PM

Specimen Id:
	G56_RT

Specimen Name:
	

Specimen Description:
	

Comment:
Scan Type: 2Theta Scan
Start Angle: 3 deg.
Stop Angle: 65 deg.
Num Points: 3101
Step Size: 0.02 deg.
Scan Rate: 1.000000
Scan Mode: Continuous
Wavelength: 1.540562
\Kalpha1: 1.540562	\Kalpha2: 1.544390	\Kbeta: 1.392218

Optics:
		Detector:
			 Type: Fixed Slits
		Tube: 
			 Type: Fixed Slits


Datas:
 Pos [deg]       Rate [CPS]      ESD [-]

Range 1 ---> Iteration 1
   3.000        442.50	    23.043
   3.020        435.00	    22.847
   3.040        415.83	    22.338
   3.060        428.33	    22.672
   3.080        420.00	    22.450
   3.100        424.17	    22.561
   3.120        400.00	    21.909
   3.140        377.50	    21.284
   3.160        420.83	    22.472
   3.180        393.33	    21.726
   3.200        425.83	    22.605
   3.220        434.17	    22.825
   3.240        425.83	    22.605
   3.260        411.67	    22.226
   3.280        418.33	    22.405
   3.300        398.33	    21.863
   3.320        435.83	    22.869
   3.340        399.17	    21.886
   3.360        360.00	    20.785
   3.380        374.17	    21.190
   3.400        402.50	    21.977
   3.420        362.50	    20.857
   3.440        345.83	    20.372
   3.460        344.17	    20.322
   3.480        365.00	    20.928
   3.500        345.83	    20.372
   3.520        347.50	    20.421
   3.540        357.50	    20.712
   3.560        345.00	    20.347
   3.580        388.33	    21.587
   3.600        359.17	    20.761
   3.620        368.33	    21.024
   3.640        357.50	    20.712
   3.660        355.00	    20.640
   3.680        335.83	    20.075
   3.700        327.50	    19.824
   3.720        347.50	    20.421
   3.740        333.33	    20.000
   3.760        357.50	    20.712
   3.780        337.50	    20.125
   3.800        336.67	    20.100
   3.820        349.17	    20.469
   3.840        330.83	    19.925
   3.860        300.83	    19.000
   3.880        324.17	    19.723
   3.900        328.33	    19.849
   3.920        290.00	    18.655
   3.940        324.17	    19.723
   3.960        337.50	    20.125
   3.980        338.33	    20.149
   4.000        306.67	    19.183
   4.020        307.50	    19.209
   4.040        303.33	    19.079
   4.060        296.67	    18.868
   4.080        318.33	    19.545
   4.100        282.50	    18.412
   4.120        309.17	    19.261
   4.140        298.33	    18.921
   4.160        270.83	    18.028
   4.180        297.50	    18.894
   4.200        309.17	    19.261
   4.220        322.50	    19.672
   4.240        283.33	    18.439
   4.260        299.17	    18.947
   4.280        310.83	    19.313
   4.300        276.67	    18.221
   4.320        275.00	    18.166
   4.340        275.83	    18.193
   4.360        271.67	    18.055
   4.380        256.67	    17.550
   4.400        268.33	    17.944
   4.420        275.00	    18.166
   4.440        257.50	    17.578
   4.460        280.00	    18.330
   4.480        251.67	    17.378
   4.500        261.67	    17.720
   4.520        301.67	    19.026
   4.540        268.33	    17.944
   4.560        255.00	    17.493
   4.580        265.00	    17.833
   4.600        267.50	    17.916
   4.620        254.17	    17.464
   4.640        243.33	    17.088
   4.660        260.83	    17.692
   4.680        275.00	    18.166
   4.700        235.00	    16.793
   4.720        256.67	    17.550
   4.740        295.83	    18.841
   4.760        243.33	    17.088
   4.780        248.33	    17.263
   4.800        223.33	    16.371
   4.820        240.83	    17.000
   4.840        245.83	    17.176
   4.860        244.17	    17.117
   4.880        236.67	    16.852
   4.900        234.17	    16.763
   4.920        232.50	    16.703
   4.940        246.67	    17.205
   4.960        240.00	    16.971
   4.980        237.50	    16.882
   5.000        230.00	    16.613
   5.020        215.83	    16.093
   5.040        225.00	    16.432
   5.060        210.83	    15.906
   5.080        231.67	    16.673
   5.100        236.67	    16.852
   5.120        231.67	    16.673
   5.140        226.67	    16.492
   5.160        203.33	    15.620
   5.180        217.50	    16.155
   5.200        239.17	    16.941
   5.220        254.17	    17.464
   5.240        243.33	    17.088
   5.260        222.50	    16.340
   5.280        218.33	    16.186
   5.300        228.33	    16.553
   5.320        233.33	    16.733
   5.340        221.67	    16.310
   5.360        205.83	    15.716
   5.380        211.67	    15.937
   5.400        244.17	    17.117
   5.420        229.17	    16.583
   5.440        206.67	    15.748
   5.460        205.00	    15.684
   5.480        235.83	    16.823
   5.500        205.83	    15.716
   5.520        209.17	    15.843
   5.540        205.00	    15.684
   5.560        202.50	    15.588
   5.580        218.33	    16.186
   5.600        215.00	    16.062
   5.620        228.33	    16.553
   5.640        205.00	    15.684
   5.660        193.33	    15.232
   5.680        189.17	    15.067
   5.700        207.50	    15.780
   5.720        196.67	    15.362
   5.740        200.83	    15.524
   5.760        215.83	    16.093
   5.780        211.67	    15.937
   5.800        194.17	    15.264
   5.820        204.17	    15.652
   5.840        199.17	    15.460
   5.860        189.17	    15.067
   5.880        185.83	    14.933
   5.900        212.50	    15.969
   5.920        198.33	    15.427
   5.940        209.17	    15.843
   5.960        210.00	    15.875
   5.980        179.17	    14.663
   6.000        189.17	    15.067
   6.020        223.33	    16.371
   6.040        221.67	    16.310
   6.060        226.67	    16.492
   6.080        221.67	    16.310
   6.100        221.67	    16.310
   6.120        238.33	    16.912
   6.140        270.00	    18.000
   6.160        275.83	    18.193
   6.180        270.83	    18.028
   6.200        267.50	    17.916
   6.220        264.17	    17.804
   6.240        258.33	    17.607
   6.260        229.17	    16.583
   6.280        222.50	    16.340
   6.300        211.67	    15.937
   6.320        200.00	    15.492
   6.340        170.00	    14.283
   6.360        212.50	    15.969
   6.380        180.83	    14.731
   6.400        198.33	    15.427
   6.420        194.17	    15.264
   6.440        195.00	    15.297
   6.460        180.00	    14.697
   6.480        173.33	    14.422
   6.500        185.83	    14.933
   6.520        167.50	    14.177
   6.540        188.33	    15.033
   6.560        178.33	    14.629
   6.580        188.33	    15.033
   6.600        200.83	    15.524
   6.620        160.83	    13.892
   6.640        161.67	    13.928
   6.660        168.33	    14.213
   6.680        180.83	    14.731
   6.700        179.17	    14.663
   6.720        170.83	    14.318
   6.740        208.33	    15.811
   6.760        196.67	    15.362
   6.780        181.67	    14.765
   6.800        153.33	    13.565
   6.820        156.67	    13.711
   6.840        169.17	    14.248
   6.860        170.83	    14.318
   6.880        148.33	    13.342
   6.900        162.50	    13.964
   6.920        173.33	    14.422
   6.940        180.00	    14.697
   6.960        180.83	    14.731
   6.980        141.67	    13.038
   7.000        164.17	    14.036
   7.020        161.67	    13.928
   7.040        158.33	    13.784
   7.060        161.67	    13.928
   7.080        145.83	    13.229
   7.100        156.67	    13.711
   7.120        164.17	    14.036
   7.140        143.33	    13.115
   7.160        140.00	    12.961
   7.180        178.33	    14.629
   7.200        177.50	    14.595
   7.220        154.17	    13.601
   7.240        160.83	    13.892
   7.260        174.17	    14.457
   7.280        158.33	    13.784
   7.300        158.33	    13.784
   7.320        151.67	    13.491
   7.340        157.50	    13.748
   7.360        149.17	    13.379
   7.380        162.50	    13.964
   7.400        148.33	    13.342
   7.420        166.67	    14.142
   7.440        158.33	    13.784
   7.460        149.17	    13.379
   7.480        135.83	    12.767
   7.500        148.33	    13.342
   7.520        143.33	    13.115
   7.540        160.83	    13.892
   7.560        139.17	    12.923
   7.580        150.83	    13.454
   7.600        145.00	    13.191
   7.620        137.50	    12.845
   7.640        149.17	    13.379
   7.660        150.00	    13.416
   7.680        149.17	    13.379
   7.700        159.17	    13.820
   7.720        160.00	    13.856
   7.740        150.83	    13.454
   7.760        139.17	    12.923
   7.780        143.33	    13.115
   7.800        136.67	    12.806
   7.820        138.33	    12.884
   7.840        145.83	    13.229
   7.860        145.00	    13.191
   7.880        132.50	    12.610
   7.900        156.67	    13.711
   7.920        147.50	    13.304
   7.940        137.50	    12.845
   7.960        159.17	    13.820
   7.980        156.67	    13.711
   8.000        147.50	    13.304
   8.020        130.83	    12.530
   8.040        157.50	    13.748
   8.060        151.67	    13.491
   8.080        136.67	    12.806
   8.100        139.17	    12.923
   8.120        148.33	    13.342
   8.140        132.50	    12.610
   8.160        139.17	    12.923
   8.180        150.00	    13.416
   8.200        137.50	    12.845
   8.220        137.50	    12.845
   8.240        143.33	    13.115
   8.260        138.33	    12.884
   8.280        129.17	    12.450
   8.300        145.83	    13.229
   8.320        145.83	    13.229
   8.340        143.33	    13.115
   8.360        147.50	    13.304
   8.380        143.33	    13.115
   8.400        153.33	    13.565
   8.420        147.50	    13.304
   8.440        141.67	    13.038
   8.460        145.83	    13.229
   8.480        170.00	    14.283
   8.500        159.17	    13.820
   8.520        161.67	    13.928
   8.540        155.83	    13.675
   8.560        161.67	    13.928
   8.580        181.67	    14.765
   8.600        181.67	    14.765
   8.620        193.33	    15.232
   8.640        160.83	    13.892
   8.660        193.33	    15.232
   8.680        227.50	    16.523
   8.700        245.83	    17.176
   8.720        266.67	    17.889
   8.740        280.00	    18.330
   8.760        328.33	    19.849
   8.780        377.50	    21.284
   8.800        460.83	    23.516
   8.820        588.33	    26.571
   8.840        699.17	    28.965
   8.860        749.17	    29.983
   8.880        685.00	    28.671
   8.900        565.00	    26.038
   8.920        391.67	    21.679
   8.940        267.50	    17.916
   8.960        199.17	    15.460
   8.980        162.50	    13.964
   9.000        147.50	    13.304
   9.020        137.50	    12.845
   9.040        124.17	    12.207
   9.060        147.50	    13.304
   9.080        150.83	    13.454
   9.100        137.50	    12.845
   9.120        149.17	    13.379
   9.140        162.50	    13.964
   9.160        153.33	    13.565
   9.180        131.67	    12.570
   9.200        115.83	    11.790
   9.220        129.17	    12.450
   9.240        122.50	    12.124
   9.260        144.17	    13.153
   9.280        120.83	    12.042
   9.300        110.00	    11.489
   9.320        133.33	    12.649
   9.340        127.50	    12.369
   9.360        124.17	    12.207
   9.380        116.67	    11.832
   9.400        161.67	    13.928
   9.420        169.17	    14.248
   9.440        166.67	    14.142
   9.460        154.17	    13.601
   9.480        150.83	    13.454
   9.500        117.50	    11.874
   9.520        134.17	    12.689
   9.540        119.17	    11.958
   9.560        127.50	    12.369
   9.580        106.67	    11.314
   9.600         97.50	    10.817
   9.620        119.17	    11.958
   9.640         95.00	    10.677
   9.660        119.17	    11.958
   9.680        116.67	    11.832
   9.700        106.67	    11.314
   9.720        110.00	    11.489
   9.740        110.83	    11.533
   9.760        128.33	    12.410
   9.780        109.17	    11.446
   9.800        114.17	    11.705
   9.820        110.83	    11.533
   9.840        110.83	    11.533
   9.860        129.17	    12.450
   9.880         96.67	    10.770
   9.900        115.83	    11.790
   9.920        107.50	    11.358
   9.940        120.83	    12.042
   9.960         99.17	    10.909
   9.980        106.67	    11.314
  10.000        116.67	    11.832
  10.020        105.83	    11.269
  10.040        116.67	    11.832
  10.060         88.33	    10.296
  10.080         91.67	    10.488
  10.100        110.00	    11.489
  10.120        105.83	    11.269
  10.140        103.33	    11.136
  10.160        117.50	    11.874
  10.180        105.00	    11.225
  10.200        108.33	    11.402
  10.220        100.00	    10.954
  10.240        103.33	    11.136
  10.260         90.00	    10.392
  10.280        113.33	    11.662
  10.300         97.50	    10.817
  10.320        131.67	    12.570
  10.340        110.00	    11.489
  10.360        116.67	    11.832
  10.380        100.00	    10.954
  10.400        110.00	    11.489
  10.420        116.67	    11.832
  10.440        121.67	    12.083
  10.460        125.83	    12.288
  10.480        132.50	    12.610
  10.500        146.67	    13.266
  10.520        126.67	    12.329
  10.540        120.83	    12.042
  10.560        122.50	    12.124
  10.580        103.33	    11.136
  10.600        113.33	    11.662
  10.620         96.67	    10.770
  10.640        110.83	    11.533
  10.660         86.67	    10.198
  10.680        113.33	    11.662
  10.700         91.67	    10.488
  10.720        114.17	    11.705
  10.740         95.83	    10.724
  10.760         92.50	    10.536
  10.780        100.83	    11.000
  10.800        110.83	    11.533
  10.820        100.00	    10.954
  10.840        110.00	    11.489
  10.860         92.50	    10.536
  10.880        104.17	    11.180
  10.900         95.83	    10.724
  10.920         97.50	    10.817
  10.940        104.17	    11.180
  10.960        104.17	    11.180
  10.980        109.17	    11.446
  11.000        100.83	    11.000
  11.020        101.67	    11.045
  11.040        111.67	    11.576
  11.060         83.33	    10.000
  11.080         90.00	    10.392
  11.100         91.67	    10.488
  11.120         81.67	     9.899
  11.140         83.33	    10.000
  11.160         86.67	    10.198
  11.180         92.50	    10.536
  11.200         90.00	    10.392
  11.220         72.50	     9.327
  11.240         75.00	     9.487
  11.260        101.67	    11.045
  11.280         88.33	    10.296
  11.300        101.67	    11.045
  11.320        110.83	    11.533
  11.340         89.17	    10.344
  11.360         88.33	    10.296
  11.380         88.33	    10.296
  11.400         85.83	    10.149
  11.420         82.50	     9.950
  11.440        101.67	    11.045
  11.460         82.50	     9.950
  11.480         92.50	    10.536
  11.500         87.50	    10.247
  11.520         95.00	    10.677
  11.540         88.33	    10.296
  11.560         80.83	     9.849
  11.580         96.67	    10.770
  11.600         93.33	    10.583
  11.620         93.33	    10.583
  11.640        100.83	    11.000
  11.660         95.83	    10.724
  11.680         96.67	    10.770
  11.700         80.83	     9.849
  11.720        111.67	    11.576
  11.740         93.33	    10.583
  11.760         87.50	    10.247
  11.780        104.17	    11.180
  11.800         84.17	    10.050
  11.820         95.83	    10.724
  11.840         82.50	     9.950
  11.860        109.17	    11.446
  11.880         90.83	    10.440
  11.900         85.83	    10.149
  11.920         76.67	     9.592
  11.940        100.83	    11.000
  11.960         94.17	    10.630
  11.980         95.83	    10.724
  12.000        101.67	    11.045
  12.020        108.33	    11.402
  12.040        122.50	    12.124
  12.060        134.17	    12.689
  12.080        150.83	    13.454
  12.100        150.83	    13.454
  12.120        192.50	    15.199
  12.140        192.50	    15.199
  12.160        235.00	    16.793
  12.180        252.50	    17.407
  12.200        235.00	    16.793
  12.220        215.00	    16.062
  12.240        168.33	    14.213
  12.260        167.50	    14.177
  12.280        150.83	    13.454
  12.300        185.00	    14.900
  12.320        179.17	    14.663
  12.340        162.50	    13.964
  12.360        184.17	    14.866
  12.380        167.50	    14.177
  12.400        200.00	    15.492
  12.420        266.67	    17.889
  12.440        341.67	    20.248
  12.460        352.50	    20.567
  12.480        380.83	    21.378
  12.500        325.83	    19.774
  12.520        270.00	    18.000
  12.540        211.67	    15.937
  12.560        138.33	    12.884
  12.580        113.33	    11.662
  12.600         84.17	    10.050
  12.620        100.83	    11.000
  12.640        105.83	    11.269
  12.660         87.50	    10.247
  12.680        102.50	    11.091
  12.700         94.17	    10.630
  12.720        100.00	    10.954
  12.740         95.00	    10.677
  12.760         92.50	    10.536
  12.780         82.50	     9.950
  12.800         89.17	    10.344
  12.820         81.67	     9.899
  12.840         91.67	    10.488
  12.860         90.00	    10.392
  12.880         97.50	    10.817
  12.900         81.67	     9.899
  12.920         83.33	    10.000
  12.940         86.67	    10.198
  12.960         86.67	    10.198
  12.980         91.67	    10.488
  13.000         90.00	    10.392
  13.020         70.83	     9.220
  13.040         81.67	     9.899
  13.060         76.67	     9.592
  13.080         78.33	     9.695
  13.100         86.67	    10.198
  13.120         80.83	     9.849
  13.140         95.00	    10.677
  13.160         73.33	     9.381
  13.180         74.17	     9.434
  13.200         80.00	     9.798
  13.220         94.17	    10.630
  13.240         72.50	     9.327
  13.260         81.67	     9.899
  13.280         72.50	     9.327
  13.300        105.83	    11.269
  13.320         80.00	     9.798
  13.340         92.50	    10.536
  13.360         73.33	     9.381
  13.380         80.00	     9.798
  13.400         85.83	    10.149
  13.420         79.17	     9.747
  13.440         73.33	     9.381
  13.460         76.67	     9.592
  13.480         80.00	     9.798
  13.500         91.67	    10.488
  13.520         85.00	    10.100
  13.540         71.67	     9.274
  13.560         65.83	     8.888
  13.580         90.83	    10.440
  13.600         86.67	    10.198
  13.620         80.00	     9.798
  13.640        105.83	    11.269
  13.660         95.83	    10.724
  13.680         81.67	     9.899
  13.700         81.67	     9.899
  13.720         73.33	     9.381
  13.740         95.83	    10.724
  13.760        109.17	    11.446
  13.780         90.00	    10.392
  13.800        161.67	    13.928
  13.820        205.83	    15.716
  13.840        195.83	    15.330
  13.860        180.00	    14.697
  13.880        136.67	    12.806
  13.900        100.83	    11.000
  13.920         88.33	    10.296
  13.940         85.83	    10.149
  13.960         73.33	     9.381
  13.980         85.83	    10.149
  14.000         67.50	     9.000
  14.020         84.17	    10.050
  14.040         68.33	     9.055
  14.060         70.83	     9.220
  14.080         74.17	     9.434
  14.100         69.17	     9.110
  14.120         78.33	     9.695
  14.140         65.00	     8.832
  14.160         66.67	     8.944
  14.180         66.67	     8.944
  14.200         75.00	     9.487
  14.220         68.33	     9.055
  14.240         73.33	     9.381
  14.260         85.83	    10.149
  14.280         75.83	     9.539
  14.300         72.50	     9.327
  14.320         74.17	     9.434
  14.340         81.67	     9.899
  14.360         68.33	     9.055
  14.380         70.83	     9.220
  14.400         70.83	     9.220
  14.420         69.17	     9.110
  14.440         73.33	     9.381
  14.460         68.33	     9.055
  14.480         64.17	     8.775
  14.500         67.50	     9.000
  14.520         65.00	     8.832
  14.540         72.50	     9.327
  14.560         80.83	     9.849
  14.580         69.17	     9.110
  14.600         72.50	     9.327
  14.620         75.00	     9.487
  14.640         59.17	     8.426
  14.660         61.67	     8.602
  14.680         58.33	     8.367
  14.700         72.50	     9.327
  14.720         85.00	    10.100
  14.740         79.17	     9.747
  14.760         62.50	     8.660
  14.780         69.17	     9.110
  14.800         80.83	     9.849
  14.820         60.00	     8.485
  14.840         72.50	     9.327
  14.860         65.83	     8.888
  14.880         81.67	     9.899
  14.900         77.50	     9.644
  14.920         86.67	    10.198
  14.940         74.17	     9.434
  14.960         71.67	     9.274
  14.980         77.50	     9.644
  15.000         75.00	     9.487
  15.020         80.83	     9.849
  15.040         70.83	     9.220
  15.060         66.67	     8.944
  15.080         62.50	     8.660
  15.100         63.33	     8.718
  15.120         69.17	     9.110
  15.140         67.50	     9.000
  15.160         65.00	     8.832
  15.180         72.50	     9.327
  15.200         55.00	     8.124
  15.220         57.50	     8.307
  15.240         60.00	     8.485
  15.260         61.67	     8.602
  15.280         63.33	     8.718
  15.300         65.83	     8.888
  15.320         57.50	     8.307
  15.340         54.17	     8.062
  15.360         63.33	     8.718
  15.380         68.33	     9.055
  15.400         51.67	     7.874
  15.420         66.67	     8.944
  15.440         65.83	     8.888
  15.460         65.83	     8.888
  15.480         71.67	     9.274
  15.500         60.83	     8.544
  15.520         66.67	     8.944
  15.540         60.00	     8.485
  15.560         61.67	     8.602
  15.580         74.17	     9.434
  15.600         59.17	     8.426
  15.620         59.17	     8.426
  15.640         55.83	     8.185
  15.660         66.67	     8.944
  15.680         56.67	     8.246
  15.700         64.17	     8.775
  15.720         53.33	     8.000
  15.740         72.50	     9.327
  15.760         55.00	     8.124
  15.780         60.00	     8.485
  15.800         67.50	     9.000
  15.820         69.17	     9.110
  15.840         66.67	     8.944
  15.860         60.83	     8.544
  15.880         73.33	     9.381
  15.900         67.50	     9.000
  15.920         65.83	     8.888
  15.940         64.17	     8.775
  15.960         62.50	     8.660
  15.980         70.00	     9.165
  16.000         58.33	     8.367
  16.020         67.50	     9.000
  16.040         68.33	     9.055
  16.060         60.83	     8.544
  16.080         71.67	     9.274
  16.100         60.83	     8.544
  16.120         60.83	     8.544
  16.140         62.50	     8.660
  16.160         85.00	    10.100
  16.180         56.67	     8.246
  16.200         60.00	     8.485
  16.220         72.50	     9.327
  16.240         60.83	     8.544
  16.260         71.67	     9.274
  16.280         68.33	     9.055
  16.300         66.67	     8.944
  16.320         70.83	     9.220
  16.340         71.67	     9.274
  16.360         60.00	     8.485
  16.380         56.67	     8.246
  16.400         66.67	     8.944
  16.420         64.17	     8.775
  16.440         61.67	     8.602
  16.460         53.33	     8.000
  16.480         65.00	     8.832
  16.500         65.00	     8.832
  16.520         65.00	     8.832
  16.540         55.83	     8.185
  16.560         70.00	     9.165
  16.580         66.67	     8.944
  16.600         69.17	     9.110
  16.620         64.17	     8.775
  16.640         50.83	     7.810
  16.660         58.33	     8.367
  16.680         56.67	     8.246
  16.700         64.17	     8.775
  16.720         54.17	     8.062
  16.740         62.50	     8.660
  16.760         70.00	     9.165
  16.780         48.33	     7.616
  16.800         52.50	     7.937
  16.820         55.00	     8.124
  16.840         45.83	     7.416
  16.860         56.67	     8.246
  16.880         50.00	     7.746
  16.900         69.17	     9.110
  16.920         72.50	     9.327
  16.940         55.83	     8.185
  16.960         60.00	     8.485
  16.980         75.00	     9.487
  17.000         70.83	     9.220
  17.020         75.83	     9.539
  17.040         50.00	     7.746
  17.060         65.00	     8.832
  17.080         60.83	     8.544
  17.100         61.67	     8.602
  17.120         51.67	     7.874
  17.140         54.17	     8.062
  17.160         65.83	     8.888
  17.180         63.33	     8.718
  17.200         58.33	     8.367
  17.220         68.33	     9.055
  17.240         57.50	     8.307
  17.260         69.17	     9.110
  17.280         79.17	     9.747
  17.300         80.00	     9.798
  17.320         60.83	     8.544
  17.340         63.33	     8.718
  17.360         65.83	     8.888
  17.380         63.33	     8.718
  17.400         76.67	     9.592
  17.420         63.33	     8.718
  17.440         55.83	     8.185
  17.460         58.33	     8.367
  17.480         74.17	     9.434
  17.500         69.17	     9.110
  17.520         64.17	     8.775
  17.540         65.83	     8.888
  17.560         64.17	     8.775
  17.580         70.00	     9.165
  17.600         74.17	     9.434
  17.620         93.33	    10.583
  17.640         96.67	    10.770
  17.660         94.17	    10.630
  17.680         95.83	    10.724
  17.700        123.33	    12.166
  17.720        136.67	    12.806
  17.740        167.50	    14.177
  17.760        227.50	    16.523
  17.780        281.67	    18.385
  17.800        342.50	    20.273
  17.820        335.83	    20.075
  17.840        286.67	    18.547
  17.860        221.67	    16.310
  17.880        166.67	    14.142
  17.900        125.83	    12.288
  17.920         81.67	     9.899
  17.940         89.17	    10.344
  17.960         70.00	     9.165
  17.980         79.17	     9.747
  18.000         67.50	     9.000
  18.020         61.67	     8.602
  18.040         60.83	     8.544
  18.060         68.33	     9.055
  18.080         71.67	     9.274
  18.100         66.67	     8.944
  18.120         67.50	     9.000
  18.140         64.17	     8.775
  18.160         62.50	     8.660
  18.180         48.33	     7.616
  18.200         57.50	     8.307
  18.220         49.17	     7.681
  18.240         65.83	     8.888
  18.260         53.33	     8.000
  18.280         66.67	     8.944
  18.300         63.33	     8.718
  18.320         77.50	     9.644
  18.340         63.33	     8.718
  18.360         67.50	     9.000
  18.380         79.17	     9.747
  18.400         74.17	     9.434
  18.420         65.83	     8.888
  18.440         69.17	     9.110
  18.460         75.00	     9.487
  18.480         96.67	    10.770
  18.500         85.83	    10.149
  18.520         74.17	     9.434
  18.540        114.17	    11.705
  18.560         86.67	    10.198
  18.580         97.50	    10.817
  18.600         99.17	    10.909
  18.620         92.50	    10.536
  18.640        102.50	    11.091
  18.660         86.67	    10.198
  18.680        112.50	    11.619
  18.700        125.00	    12.247
  18.720        163.33	    14.000
  18.740        184.17	    14.866
  18.760        178.33	    14.629
  18.780        170.83	    14.318
  18.800        185.00	    14.900
  18.820        162.50	    13.964
  18.840        111.67	    11.576
  18.860        100.83	    11.000
  18.880         77.50	     9.644
  18.900         94.17	    10.630
  18.920         65.00	     8.832
  18.940         56.67	     8.246
  18.960         71.67	     9.274
  18.980         58.33	     8.367
  19.000         66.67	     8.944
  19.020         69.17	     9.110
  19.040         53.33	     8.000
  19.060         62.50	     8.660
  19.080         64.17	     8.775
  19.100         68.33	     9.055
  19.120         74.17	     9.434
  19.140         60.00	     8.485
  19.160         71.67	     9.274
  19.180         65.00	     8.832
  19.200         72.50	     9.327
  19.220         65.00	     8.832
  19.240         62.50	     8.660
  19.260         66.67	     8.944
  19.280         60.83	     8.544
  19.300         52.50	     7.937
  19.320         59.17	     8.426
  19.340         63.33	     8.718
  19.360         59.17	     8.426
  19.380         52.50	     7.937
  19.400         60.00	     8.485
  19.420         59.17	     8.426
  19.440         52.50	     7.937
  19.460         70.83	     9.220
  19.480         76.67	     9.592
  19.500         57.50	     8.307
  19.520         60.00	     8.485
  19.540         55.00	     8.124
  19.560         50.83	     7.810
  19.580         60.00	     8.485
  19.600         60.83	     8.544
  19.620         63.33	     8.718
  19.640         60.00	     8.485
  19.660         73.33	     9.381
  19.680         85.83	    10.149
  19.700         63.33	     8.718
  19.720         81.67	     9.899
  19.740         67.50	     9.000
  19.760         74.17	     9.434
  19.780         75.00	     9.487
  19.800         74.17	     9.434
  19.820         75.83	     9.539
  19.840         98.33	    10.863
  19.860         93.33	    10.583
  19.880         84.17	    10.050
  19.900         86.67	    10.198
  19.920         82.50	     9.950
  19.940         77.50	     9.644
  19.960         69.17	     9.110
  19.980         70.00	     9.165
  20.000         60.00	     8.485
  20.020         72.50	     9.327
  20.040         68.33	     9.055
  20.060         70.00	     9.165
  20.080         60.00	     8.485
  20.100         52.50	     7.937
  20.120         67.50	     9.000
  20.140         72.50	     9.327
  20.160         63.33	     8.718
  20.180         61.67	     8.602
  20.200         50.83	     7.810
  20.220         61.67	     8.602
  20.240         59.17	     8.426
  20.260         50.00	     7.746
  20.280         49.17	     7.681
  20.300         50.00	     7.746
  20.320         50.00	     7.746
  20.340         58.33	     8.367
  20.360         59.17	     8.426
  20.380         54.17	     8.062
  20.400         57.50	     8.307
  20.420         62.50	     8.660
  20.440         53.33	     8.000
  20.460         48.33	     7.616
  20.480         50.83	     7.810
  20.500         58.33	     8.367
  20.520         53.33	     8.000
  20.540         54.17	     8.062
  20.560         57.50	     8.307
  20.580         73.33	     9.381
  20.600         55.00	     8.124
  20.620         70.00	     9.165
  20.640         67.50	     9.000
  20.660         75.00	     9.487
  20.680         77.50	     9.644
  20.700         85.00	    10.100
  20.720         82.50	     9.950
  20.740        100.00	    10.954
  20.760        127.50	    12.369
  20.780        220.00	    16.248
  20.800        360.00	    20.785
  20.820        493.33	    24.331
  20.840        541.67	    25.495
  20.860        479.17	    23.979
  20.880        380.00	    21.354
  20.900        286.67	    18.547
  20.920        205.83	    15.716
  20.940        127.50	    12.369
  20.960        116.67	    11.832
  20.980        116.67	    11.832
  21.000        126.67	    12.329
  21.020        128.33	    12.410
  21.040        125.00	    12.247
  21.060        108.33	    11.402
  21.080         85.83	    10.149
  21.100         72.50	     9.327
  21.120         67.50	     9.000
  21.140         50.00	     7.746
  21.160         61.67	     8.602
  21.180         47.50	     7.550
  21.200         53.33	     8.000
  21.220         63.33	     8.718
  21.240         56.67	     8.246
  21.260         60.00	     8.485
  21.280         40.83	     7.000
  21.300         52.50	     7.937
  21.320         48.33	     7.616
  21.340         50.00	     7.746
  21.360         45.83	     7.416
  21.380         51.67	     7.874
  21.400         68.33	     9.055
  21.420         55.83	     8.185
  21.440         45.00	     7.348
  21.460         53.33	     8.000
  21.480         55.83	     8.185
  21.500         66.67	     8.944
  21.520         60.00	     8.485
  21.540         74.17	     9.434
  21.560         62.50	     8.660
  21.580         75.83	     9.539
  21.600         44.17	     7.280
  21.620         65.00	     8.832
  21.640         46.67	     7.483
  21.660         65.83	     8.888
  21.680         68.33	     9.055
  21.700         67.50	     9.000
  21.720         60.00	     8.485
  21.740         58.33	     8.367
  21.760         61.67	     8.602
  21.780         60.00	     8.485
  21.800         47.50	     7.550
  21.820         67.50	     9.000
  21.840         58.33	     8.367
  21.860         59.17	     8.426
  21.880         74.17	     9.434
  21.900         73.33	     9.381
  21.920         99.17	    10.909
  21.940        113.33	    11.662
  21.960        125.83	    12.288
  21.980        189.17	    15.067
  22.000        198.33	    15.427
  22.020        237.50	    16.882
  22.040        202.50	    15.588
  22.060        207.50	    15.780
  22.080        155.00	    13.638
  22.100        127.50	    12.369
  22.120         91.67	    10.488
  22.140         86.67	    10.198
  22.160         59.17	     8.426
  22.180         74.17	     9.434
  22.200         79.17	     9.747
  22.220         60.00	     8.485
  22.240         44.17	     7.280
  22.260         55.83	     8.185
  22.280         74.17	     9.434
  22.300         58.33	     8.367
  22.320         68.33	     9.055
  22.340         50.83	     7.810
  22.360         53.33	     8.000
  22.380         70.00	     9.165
  22.400         49.17	     7.681
  22.420         57.50	     8.307
  22.440         71.67	     9.274
  22.460         68.33	     9.055
  22.480         75.00	     9.487
  22.500         55.00	     8.124
  22.520         56.67	     8.246
  22.540         53.33	     8.000
  22.560         59.17	     8.426
  22.580         57.50	     8.307
  22.600         56.67	     8.246
  22.620         50.00	     7.746
  22.640         61.67	     8.602
  22.660         60.83	     8.544
  22.680         49.17	     7.681
  22.700         55.00	     8.124
  22.720         56.67	     8.246
  22.740         69.17	     9.110
  22.760         57.50	     8.307
  22.780         62.50	     8.660
  22.800         57.50	     8.307
  22.820         75.00	     9.487
  22.840         65.83	     8.888
  22.860         62.50	     8.660
  22.880         79.17	     9.747
  22.900         88.33	    10.296
  22.920         95.83	    10.724
  22.940         96.67	    10.770
  22.960         85.83	    10.149
  22.980         90.00	    10.392
  23.000         95.00	    10.677
  23.020        103.33	    11.136
  23.040        115.00	    11.747
  23.060        110.83	    11.533
  23.080         89.17	    10.344
  23.100         72.50	     9.327
  23.120         87.50	    10.247
  23.140         86.67	    10.198
  23.160         63.33	     8.718
  23.180         67.50	     9.000
  23.200         69.17	     9.110
  23.220         45.00	     7.348
  23.240         55.83	     8.185
  23.260         55.00	     8.124
  23.280         62.50	     8.660
  23.300         46.67	     7.483
  23.320         70.83	     9.220
  23.340         61.67	     8.602
  23.360         46.67	     7.483
  23.380         65.00	     8.832
  23.400         70.00	     9.165
  23.420         77.50	     9.644
  23.440         90.83	    10.440
  23.460        117.50	    11.874
  23.480        151.67	    13.491
  23.500        198.33	    15.427
  23.520        232.50	    16.703
  23.540        237.50	    16.882
  23.560        216.67	    16.125
  23.580        144.17	    13.153
  23.600        130.83	    12.530
  23.620        128.33	    12.410
  23.640         90.83	    10.440
  23.660         90.83	    10.440
  23.680         85.00	    10.100
  23.700         80.00	     9.798
  23.720         95.00	    10.677
  23.740         88.33	    10.296
  23.760         85.00	    10.100
  23.780         99.17	    10.909
  23.800         89.17	    10.344
  23.820         90.00	    10.392
  23.840        100.83	    11.000
  23.860         76.67	     9.592
  23.880         93.33	    10.583
  23.900         93.33	    10.583
  23.920         84.17	    10.050
  23.940         78.33	     9.695
  23.960         84.17	    10.050
  23.980         81.67	     9.899
  24.000        104.17	    11.180
  24.020        103.33	    11.136
  24.040         99.17	    10.909
  24.060         88.33	    10.296
  24.080        101.67	    11.045
  24.100        100.00	    10.954
  24.120        109.17	    11.446
  24.140         89.17	    10.344
  24.160         91.67	    10.488
  24.180        131.67	    12.570
  24.200        120.83	    12.042
  24.220        128.33	    12.410
  24.240        151.67	    13.491
  24.260        175.00	    14.491
  24.280        136.67	    12.806
  24.300        131.67	    12.570
  24.320        141.67	    13.038
  24.340        114.17	    11.705
  24.360        105.83	    11.269
  24.380         94.17	    10.630
  24.400         91.67	    10.488
  24.420         79.17	     9.747
  24.440         94.17	    10.630
  24.460        105.83	    11.269
  24.480        146.67	    13.266
  24.500        152.50	    13.528
  24.520        206.67	    15.748
  24.540        256.67	    17.550
  24.560        256.67	    17.550
  24.580        256.67	    17.550
  24.600        257.50	    17.578
  24.620        303.33	    19.079
  24.640        251.67	    17.378
  24.660        186.67	    14.967
  24.680        201.67	    15.556
  24.700        143.33	    13.115
  24.720        145.00	    13.191
  24.740        146.67	    13.266
  24.760        120.83	    12.042
  24.780        131.67	    12.570
  24.800        147.50	    13.304
  24.820        141.67	    13.038
  24.840        128.33	    12.410
  24.860        136.67	    12.806
  24.880        126.67	    12.329
  24.900        120.83	    12.042
  24.920        119.17	    11.958
  24.940        121.67	    12.083
  24.960        130.83	    12.530
  24.980        119.17	    11.958
  25.000        140.83	    13.000
  25.020        137.50	    12.845
  25.040        173.33	    14.422
  25.060        206.67	    15.748
  25.080        227.50	    16.523
  25.100        321.67	    19.647
  25.120        349.17	    20.469
  25.140        332.50	    19.975
  25.160        310.00	    19.287
  25.180        246.67	    17.205
  25.200        236.67	    16.852
  25.220        184.17	    14.866
  25.240        165.83	    14.107
  25.260        111.67	    11.576
  25.280        110.83	    11.533
  25.300         82.50	     9.950
  25.320        108.33	    11.402
  25.340        124.17	    12.207
  25.360        125.00	    12.247
  25.380        149.17	    13.379
  25.400        140.83	    13.000
  25.420        141.67	    13.038
  25.440        139.17	    12.923
  25.460        183.33	    14.832
  25.480        144.17	    13.153
  25.500        187.50	    15.000
  25.520        159.17	    13.820
  25.540        158.33	    13.784
  25.560        169.17	    14.248
  25.580        151.67	    13.491
  25.600        126.67	    12.329
  25.620        140.00	    12.961
  25.640        135.00	    12.728
  25.660        117.50	    11.874
  25.680        104.17	    11.180
  25.700        100.83	    11.000
  25.720         96.67	    10.770
  25.740         99.17	    10.909
  25.760        100.83	    11.000
  25.780         77.50	     9.644
  25.800         92.50	    10.536
  25.820         80.00	     9.798
  25.840         71.67	     9.274
  25.860         77.50	     9.644
  25.880         75.00	     9.487
  25.900         75.00	     9.487
  25.920         80.00	     9.798
  25.940         75.83	     9.539
  25.960         55.00	     8.124
  25.980         75.83	     9.539
  26.000         74.17	     9.434
  26.020         80.83	     9.849
  26.040         80.00	     9.798
  26.060         74.17	     9.434
  26.080         73.33	     9.381
  26.100         85.83	    10.149
  26.120         80.00	     9.798
  26.140         85.00	    10.100
  26.160         83.33	    10.000
  26.180         92.50	    10.536
  26.200         74.17	     9.434
  26.220         94.17	    10.630
  26.240         91.67	    10.488
  26.260        113.33	    11.662
  26.280        102.50	    11.091
  26.300        139.17	    12.923
  26.320        135.83	    12.767
  26.340        160.00	    13.856
  26.360        234.17	    16.763
  26.380        234.17	    16.763
  26.400        259.17	    17.635
  26.420        305.83	    19.157
  26.440        325.00	    19.748
  26.460        322.50	    19.672
  26.480        346.67	    20.396
  26.500        374.17	    21.190
  26.520        454.17	    23.345
  26.540        663.33	    28.213
  26.560        975.83	    34.220
  26.580       1768.33	    46.065
  26.600       2894.17	    58.932
  26.620       4312.50	    71.937
  26.640       5421.67	    80.660
  26.660       4612.50	    74.398
  26.680       3054.17	    60.539
  26.700       2769.17	    57.645
  26.720       2561.67	    55.444
  26.740       1516.67	    42.661
  26.760        763.33	    30.265
  26.780        699.17	    28.965
  26.800        774.17	    30.480
  26.820        910.00	    33.045
  26.840       1018.33	    34.957
  26.860       1034.17	    35.228
  26.880        983.33	    34.351
  26.900        819.17	    31.353
  26.920        659.17	    28.125
  26.940        557.50	    25.865
  26.960        384.17	    21.471
  26.980        277.50	    18.248
  27.000        189.17	    15.067
  27.020        165.00	    14.071
  27.040        154.17	    13.601
  27.060        161.67	    13.928
  27.080        135.83	    12.767
  27.100        130.00	    12.490
  27.120        127.50	    12.369
  27.140        120.00	    12.000
  27.160        105.00	    11.225
  27.180        104.17	    11.180
  27.200        120.83	    12.042
  27.220        130.83	    12.530
  27.240        123.33	    12.166
  27.260        127.50	    12.369
  27.280        122.50	    12.124
  27.300        105.83	    11.269
  27.320        114.17	    11.705
  27.340        112.50	    11.619
  27.360        113.33	    11.662
  27.380        120.83	    12.042
  27.400        170.00	    14.283
  27.420        207.50	    15.780
  27.440        245.83	    17.176
  27.460        278.33	    18.276
  27.480        320.83	    19.621
  27.500        381.67	    21.401
  27.520        310.83	    19.313
  27.540        269.17	    17.972
  27.560        228.33	    16.553
  27.580        199.17	    15.460
  27.600        169.17	    14.248
  27.620        138.33	    12.884
  27.640        157.50	    13.748
  27.660        199.17	    15.460
  27.680        269.17	    17.972
  27.700        283.33	    18.439
  27.720        286.67	    18.547
  27.740        306.67	    19.183
  27.760        296.67	    18.868
  27.780        298.33	    18.921
  27.800        310.83	    19.313
  27.820        528.33	    25.179
  27.840        636.67	    27.641
  27.860        586.67	    26.533
  27.880        660.83	    28.160
  27.900        627.50	    27.441
  27.920        605.83	    26.963
  27.940        515.00	    24.860
  27.960        466.67	    23.664
  27.980        363.33	    20.881
  28.000        269.17	    17.972
  28.020        219.17	    16.217
  28.040        189.17	    15.067
  28.060        155.83	    13.675
  28.080        129.17	    12.450
  28.100        142.50	    13.077
  28.120        140.00	    12.961
  28.140        148.33	    13.342
  28.160        116.67	    11.832
  28.180        131.67	    12.570
  28.200        125.00	    12.247
  28.220        143.33	    13.115
  28.240        141.67	    13.038
  28.260        140.83	    13.000
  28.280        145.00	    13.191
  28.300        126.67	    12.329
  28.320        124.17	    12.207
  28.340        114.17	    11.705
  28.360         93.33	    10.583
  28.380         70.83	     9.220
  28.400         79.17	     9.747
  28.420         65.00	     8.832
  28.440         79.17	     9.747
  28.460         73.33	     9.381
  28.480         71.67	     9.274
  28.500         68.33	     9.055
  28.520         81.67	     9.899
  28.540        112.50	    11.619
  28.560         94.17	    10.630
  28.580        133.33	    12.649
  28.600        140.00	    12.961
  28.620        131.67	    12.570
  28.640        111.67	    11.576
  28.660         93.33	    10.583
  28.680         98.33	    10.863
  28.700         97.50	    10.817
  28.720         90.83	    10.440
  28.740         71.67	     9.274
  28.760         70.83	     9.220
  28.780         61.67	     8.602
  28.800         59.17	     8.426
  28.820         61.67	     8.602
  28.840         72.50	     9.327
  28.860         65.83	     8.888
  28.880         53.33	     8.000
  28.900         80.00	     9.798
  28.920         45.83	     7.416
  28.940         60.00	     8.485
  28.960         70.00	     9.165
  28.980         40.83	     7.000
  29.000         55.83	     8.185
  29.020         53.33	     8.000
  29.040         50.00	     7.746
  29.060         51.67	     7.874
  29.080         59.17	     8.426
  29.100         59.17	     8.426
  29.120         68.33	     9.055
  29.140         56.67	     8.246
  29.160         56.67	     8.246
  29.180         56.67	     8.246
  29.200         49.17	     7.681
  29.220         58.33	     8.367
  29.240         47.50	     7.550
  29.260         45.83	     7.416
  29.280         45.83	     7.416
  29.300         41.67	     7.071
  29.320         57.50	     8.307
  29.340         51.67	     7.874
  29.360         51.67	     7.874
  29.380         53.33	     8.000
  29.400         53.33	     8.000
  29.420         74.17	     9.434
  29.440         55.83	     8.185
  29.460         58.33	     8.367
  29.480         55.00	     8.124
  29.500         51.67	     7.874
  29.520         57.50	     8.307
  29.540         48.33	     7.616
  29.560         50.83	     7.810
  29.580         54.17	     8.062
  29.600         55.83	     8.185
  29.620         60.00	     8.485
  29.640         53.33	     8.000
  29.660         70.83	     9.220
  29.680         70.00	     9.165
  29.700         72.50	     9.327
  29.720         84.17	    10.050
  29.740         64.17	     8.775
  29.760        113.33	    11.662
  29.780        105.00	    11.225
  29.800        125.83	    12.288
  29.820        118.33	    11.916
  29.840        131.67	    12.570
  29.860        129.17	    12.450
  29.880        139.17	    12.923
  29.900        116.67	    11.832
  29.920        127.50	    12.369
  29.940        118.33	    11.916
  29.960         90.00	    10.392
  29.980        100.83	    11.000
  30.000        112.50	    11.619
  30.020         78.33	     9.695
  30.040         95.00	    10.677
  30.060        102.50	    11.091
  30.080         96.67	    10.770
  30.100        100.00	    10.954
  30.120        122.50	    12.124
  30.140         90.83	    10.440
  30.160         94.17	    10.630
  30.180        114.17	    11.705
  30.200        100.00	    10.954
  30.220        102.50	    11.091
  30.240         85.83	    10.149
  30.260         87.50	    10.247
  30.280         90.00	    10.392
  30.300         85.83	    10.149
  30.320         91.67	    10.488
  30.340         95.00	    10.677
  30.360        108.33	    11.402
  30.380         86.67	    10.198
  30.400         89.17	    10.344
  30.420        114.17	    11.705
  30.440        152.50	    13.528
  30.460        175.83	    14.526
  30.480        165.83	    14.107
  30.500        121.67	    12.083
  30.520        112.50	    11.619
  30.540        114.17	    11.705
  30.560         95.83	    10.724
  30.580         76.67	     9.592
  30.600         70.00	     9.165
  30.620         55.83	     8.185
  30.640         74.17	     9.434
  30.660         53.33	     8.000
  30.680         64.17	     8.775
  30.700         69.17	     9.110
  30.720         72.50	     9.327
  30.740         95.83	    10.724
  30.760         94.17	    10.630
  30.780         84.17	    10.050
  30.800         92.50	    10.536
  30.820        132.50	    12.610
  30.840         95.83	    10.724
  30.860         99.17	    10.909
  30.880         91.67	    10.488
  30.900         83.33	    10.000
  30.920         72.50	     9.327
  30.940         60.83	     8.544
  30.960         78.33	     9.695
  30.980         66.67	     8.944
  31.000         64.17	     8.775
  31.020         54.17	     8.062
  31.040         65.83	     8.888
  31.060         60.83	     8.544
  31.080         71.67	     9.274
  31.100         72.50	     9.327
  31.120         80.83	     9.849
  31.140         95.83	    10.724
  31.160        115.83	    11.790
  31.180        119.17	    11.958
  31.200        131.67	    12.570
  31.220        150.83	    13.454
  31.240        158.33	    13.784
  31.260        140.00	    12.961
  31.280        140.83	    13.000
  31.300        122.50	    12.124
  31.320         97.50	    10.817
  31.340         86.67	    10.198
  31.360         80.00	     9.798
  31.380        101.67	    11.045
  31.400         83.33	    10.000
  31.420         77.50	     9.644
  31.440         84.17	    10.050
  31.460         75.83	     9.539
  31.480         85.83	    10.149
  31.500         96.67	    10.770
  31.520         90.83	    10.440
  31.540         96.67	    10.770
  31.560        105.83	    11.269
  31.580         76.67	     9.592
  31.600         82.50	     9.950
  31.620         77.50	     9.644
  31.640         84.17	    10.050
  31.660         78.33	     9.695
  31.680         67.50	     9.000
  31.700         66.67	     8.944
  31.720         61.67	     8.602
  31.740         73.33	     9.381
  31.760         59.17	     8.426
  31.780         63.33	     8.718
  31.800         55.00	     8.124
  31.820         57.50	     8.307
  31.840         81.67	     9.899
  31.860        180.00	    14.697
  31.880        222.50	    16.340
  31.900        136.67	    12.806
  31.920         89.17	    10.344
  31.940        138.33	    12.884
  31.960        146.67	    13.266
  31.980         97.50	    10.817
  32.000         78.33	     9.695
  32.020         99.17	    10.909
  32.040         72.50	     9.327
  32.060         76.67	     9.592
  32.080         89.17	    10.344
  32.100         75.00	     9.487
  32.120         75.00	     9.487
  32.140         82.50	     9.950
  32.160         79.17	     9.747
  32.180         65.00	     8.832
  32.200         68.33	     9.055
  32.220         68.33	     9.055
  32.240         57.50	     8.307
  32.260         81.67	     9.899
  32.280         71.67	     9.274
  32.300         61.67	     8.602
  32.320         70.83	     9.220
  32.340         66.67	     8.944
  32.360         67.50	     9.000
  32.380         59.17	     8.426
  32.400         52.50	     7.937
  32.420         32.50	     6.245
  32.440         51.67	     7.874
  32.460         42.50	     7.141
  32.480         36.67	     6.633
  32.500         45.00	     7.348
  32.520         30.00	     6.000
  32.540         36.67	     6.633
  32.560         38.33	     6.782
  32.580         50.00	     7.746
  32.600         49.17	     7.681
  32.620         53.33	     8.000
  32.640         40.83	     7.000
  32.660         42.50	     7.141
  32.680         39.17	     6.856
  32.700         47.50	     7.550
  32.720         43.33	     7.211
  32.740         37.50	     6.708
  32.760         53.33	     8.000
  32.780         56.67	     8.246
  32.800         59.17	     8.426
  32.820         51.67	     7.874
  32.840         57.50	     8.307
  32.860         59.17	     8.426
  32.880         48.33	     7.616
  32.900         71.67	     9.274
  32.920         52.50	     7.937
  32.940         39.17	     6.856
  32.960         52.50	     7.937
  32.980         66.67	     8.944
  33.000         91.67	    10.488
  33.020         89.17	    10.344
  33.040         94.17	    10.630
  33.060         60.00	     8.485
  33.080         80.00	     9.798
  33.100         92.50	    10.536
  33.120         67.50	     9.000
  33.140         51.67	     7.874
  33.160         43.33	     7.211
  33.180         43.33	     7.211
  33.200         46.67	     7.483
  33.220         43.33	     7.211
  33.240         56.67	     8.246
  33.260         38.33	     6.782
  33.280         45.83	     7.416
  33.300         26.67	     5.657
  33.320         51.67	     7.874
  33.340         70.83	     9.220
  33.360         58.33	     8.367
  33.380         50.83	     7.810
  33.400         59.17	     8.426
  33.420         51.67	     7.874
  33.440         56.67	     8.246
  33.460         46.67	     7.483
  33.480         53.33	     8.000
  33.500         50.83	     7.810
  33.520         53.33	     8.000
  33.540         48.33	     7.616
  33.560         48.33	     7.616
  33.580         50.00	     7.746
  33.600         50.00	     7.746
  33.620         49.17	     7.681
  33.640         48.33	     7.616
  33.660         44.17	     7.280
  33.680         46.67	     7.483
  33.700         38.33	     6.782
  33.720         44.17	     7.280
  33.740         43.33	     7.211
  33.760         44.17	     7.280
  33.780         62.50	     8.660
  33.800         56.67	     8.246
  33.820         48.33	     7.616
  33.840         55.00	     8.124
  33.860         70.83	     9.220
  33.880         66.67	     8.944
  33.900         91.67	    10.488
  33.920         86.67	    10.198
  33.940         68.33	     9.055
  33.960         52.50	     7.937
  33.980         80.00	     9.798
  34.000         75.00	     9.487
  34.020         77.50	     9.644
  34.040         53.33	     8.000
  34.060         57.50	     8.307
  34.080         60.00	     8.485
  34.100         60.83	     8.544
  34.120         45.00	     7.348
  34.140         65.00	     8.832
  34.160         50.83	     7.810
  34.180         63.33	     8.718
  34.200         42.50	     7.141
  34.220         54.17	     8.062
  34.240         51.67	     7.874
  34.260         55.00	     8.124
  34.280         65.00	     8.832
  34.300         57.50	     8.307
  34.320         46.67	     7.483
  34.340         46.67	     7.483
  34.360         62.50	     8.660
  34.380         65.00	     8.832
  34.400         78.33	     9.695
  34.420         76.67	     9.592
  34.440         80.00	     9.798
  34.460         71.67	     9.274
  34.480         84.17	    10.050
  34.500        103.33	    11.136
  34.520        116.67	    11.832
  34.540         85.00	    10.100
  34.560         89.17	    10.344
  34.580         87.50	    10.247
  34.600         95.00	    10.677
  34.620         87.50	    10.247
  34.640         97.50	    10.817
  34.660         90.83	    10.440
  34.680        139.17	    12.923
  34.700        140.83	    13.000
  34.720        125.83	    12.288
  34.740        103.33	    11.136
  34.760         95.00	    10.677
  34.780        135.00	    12.728
  34.800        144.17	    13.153
  34.820        120.00	    12.000
  34.840        102.50	    11.091
  34.860         90.00	    10.392
  34.880        125.00	    12.247
  34.900        116.67	    11.832
  34.920        125.00	    12.247
  34.940        135.83	    12.767
  34.960        113.33	    11.662
  34.980        137.50	    12.845
  35.000        138.33	    12.884
  35.020        140.83	    13.000
  35.040        121.67	    12.083
  35.060        110.00	    11.489
  35.080        134.17	    12.689
  35.100        101.67	    11.045
  35.120        120.83	    12.042
  35.140         83.33	    10.000
  35.160         90.00	    10.392
  35.180         81.67	     9.899
  35.200         96.67	    10.770
  35.220         78.33	     9.695
  35.240         73.33	     9.381
  35.260         65.83	     8.888
  35.280         78.33	     9.695
  35.300         89.17	    10.344
  35.320         87.50	    10.247
  35.340         80.83	     9.849
  35.360         87.50	    10.247
  35.380        108.33	    11.402
  35.400        119.17	    11.958
  35.420        120.00	    12.000
  35.440        146.67	    13.266
  35.460        162.50	    13.964
  35.480        159.17	    13.820
  35.500        161.67	    13.928
  35.520        222.50	    16.340
  35.540        210.83	    15.906
  35.560        180.00	    14.697
  35.580        156.67	    13.711
  35.600        126.67	    12.329
  35.620        160.83	    13.892
  35.640        138.33	    12.884
  35.660        107.50	    11.358
  35.680         90.00	    10.392
  35.700         70.00	     9.165
  35.720         81.67	     9.899
  35.740         68.33	     9.055
  35.760         72.50	     9.327
  35.780         60.83	     8.544
  35.800         65.83	     8.888
  35.820         65.83	     8.888
  35.840         61.67	     8.602
  35.860         65.83	     8.888
  35.880         65.00	     8.832
  35.900         50.00	     7.746
  35.920         55.00	     8.124
  35.940         75.00	     9.487
  35.960         61.67	     8.602
  35.980         93.33	    10.583
  36.000         89.17	    10.344
  36.020         90.83	    10.440
  36.040         98.33	    10.863
  36.060        110.83	    11.533
  36.080        110.83	    11.533
  36.100         98.33	    10.863
  36.120        117.50	    11.874
  36.140         95.83	    10.724
  36.160         97.50	    10.817
  36.180         72.50	     9.327
  36.200         73.33	     9.381
  36.220         55.83	     8.185
  36.240         67.50	     9.000
  36.260         67.50	     9.000
  36.280         49.17	     7.681
  36.300         54.17	     8.062
  36.320         60.00	     8.485
  36.340         60.83	     8.544
  36.360         62.50	     8.660
  36.380         82.50	     9.950
  36.400         75.83	     9.539
  36.420         83.33	    10.000
  36.440        121.67	    12.083
  36.460        201.67	    15.556
  36.480        231.67	    16.673
  36.500        282.50	    18.412
  36.520        266.67	    17.889
  36.540        258.33	    17.607
  36.560        220.00	    16.248
  36.580        200.83	    15.524
  36.600        184.17	    14.866
  36.620        160.00	    13.856
  36.640        148.33	    13.342
  36.660        115.00	    11.747
  36.680         97.50	    10.817
  36.700         89.17	    10.344
  36.720         71.67	     9.274
  36.740         76.67	     9.592
  36.760         70.83	     9.220
  36.780         78.33	     9.695
  36.800         70.00	     9.165
  36.820         61.67	     8.602
  36.840         71.67	     9.274
  36.860         60.00	     8.485
  36.880         50.00	     7.746
  36.900         72.50	     9.327
  36.920         61.67	     8.602
  36.940         62.50	     8.660
  36.960         67.50	     9.000
  36.980         70.00	     9.165
  37.000         54.17	     8.062
  37.020         53.33	     8.000
  37.040         43.33	     7.211
  37.060         57.50	     8.307
  37.080         67.50	     9.000
  37.100         62.50	     8.660
  37.120         72.50	     9.327
  37.140         45.83	     7.416
  37.160         63.33	     8.718
  37.180         55.00	     8.124
  37.200         55.83	     8.185
  37.220         69.17	     9.110
  37.240         58.33	     8.367
  37.260         73.33	     9.381
  37.280         60.83	     8.544
  37.300         71.67	     9.274
  37.320         67.50	     9.000
  37.340         65.00	     8.832
  37.360         91.67	    10.488
  37.380         83.33	    10.000
  37.400         85.83	    10.149
  37.420         67.50	     9.000
  37.440         68.33	     9.055
  37.460         84.17	    10.050
  37.480         63.33	     8.718
  37.500         70.00	     9.165
  37.520         66.67	     8.944
  37.540         80.00	     9.798
  37.560         75.00	     9.487
  37.580         75.00	     9.487
  37.600         98.33	    10.863
  37.620         98.33	    10.863
  37.640         78.33	     9.695
  37.660        130.00	    12.490
  37.680        138.33	    12.884
  37.700         95.00	    10.677
  37.720         89.17	    10.344
  37.740         76.67	     9.592
  37.760        100.00	    10.954
  37.780         79.17	     9.747
  37.800         54.17	     8.062
  37.820         55.83	     8.185
  37.840         61.67	     8.602
  37.860         50.83	     7.810
  37.880         49.17	     7.681
  37.900         37.50	     6.708
  37.920         48.33	     7.616
  37.940         36.67	     6.633
  37.960         45.83	     7.416
  37.980         42.50	     7.141
  38.000         53.33	     8.000
  38.020         45.00	     7.348
  38.040         50.00	     7.746
  38.060         32.50	     6.245
  38.080         30.83	     6.083
  38.100         42.50	     7.141
  38.120         40.83	     7.000
  38.140         39.17	     6.856
  38.160         35.83	     6.557
  38.180         45.00	     7.348
  38.200         51.67	     7.874
  38.220         55.00	     8.124
  38.240         39.17	     6.856
  38.260         41.67	     7.071
  38.280         37.50	     6.708
  38.300         37.50	     6.708
  38.320         36.67	     6.633
  38.340         51.67	     7.874
  38.360         43.33	     7.211
  38.380         41.67	     7.071
  38.400         55.83	     8.185
  38.420         47.50	     7.550
  38.440         40.00	     6.928
  38.460         46.67	     7.483
  38.480         50.83	     7.810
  38.500         59.17	     8.426
  38.520         51.67	     7.874
  38.540         50.00	     7.746
  38.560         45.83	     7.416
  38.580         53.33	     8.000
  38.600         50.00	     7.746
  38.620         47.50	     7.550
  38.640         50.00	     7.746
  38.660         50.83	     7.810
  38.680         46.67	     7.483
  38.700         58.33	     8.367
  38.720         45.83	     7.416
  38.740         48.33	     7.616
  38.760         72.50	     9.327
  38.780         84.17	    10.050
  38.800         72.50	     9.327
  38.820         59.17	     8.426
  38.840         61.67	     8.602
  38.860         54.17	     8.062
  38.880         65.00	     8.832
  38.900         50.83	     7.810
  38.920         65.83	     8.888
  38.940         44.17	     7.280
  38.960         48.33	     7.616
  38.980         50.00	     7.746
  39.000         51.67	     7.874
  39.020         74.17	     9.434
  39.040         49.17	     7.681
  39.060         41.67	     7.071
  39.080         49.17	     7.681
  39.100         44.17	     7.280
  39.120         39.17	     6.856
  39.140         56.67	     8.246
  39.160         43.33	     7.211
  39.180         39.17	     6.856
  39.200         42.50	     7.141
  39.220         36.67	     6.633
  39.240         39.17	     6.856
  39.260         41.67	     7.071
  39.280         40.00	     6.928
  39.300         55.83	     8.185
  39.320         45.83	     7.416
  39.340         41.67	     7.071
  39.360         70.83	     9.220
  39.380         93.33	    10.583
  39.400        107.50	    11.358
  39.420        150.00	    13.416
  39.440        202.50	    15.588
  39.460        190.00	    15.100
  39.480        140.00	    12.961
  39.500        140.83	    13.000
  39.520        130.00	    12.490
  39.540        165.00	    14.071
  39.560        112.50	    11.619
  39.580        116.67	    11.832
  39.600         67.50	     9.000
  39.620         60.83	     8.544
  39.640         70.00	     9.165
  39.660         60.00	     8.485
  39.680         57.50	     8.307
  39.700         56.67	     8.246
  39.720         40.83	     7.000
  39.740         57.50	     8.307
  39.760         43.33	     7.211
  39.780         45.00	     7.348
  39.800         55.83	     8.185
  39.820         44.17	     7.280
  39.840         48.33	     7.616
  39.860         30.00	     6.000
  39.880         53.33	     8.000
  39.900         55.00	     8.124
  39.920         45.83	     7.416
  39.940         55.83	     8.185
  39.960         50.83	     7.810
  39.980         45.00	     7.348
  40.000         40.83	     7.000
  40.020         38.33	     6.782
  40.040         45.83	     7.416
  40.060         50.83	     7.810
  40.080         47.50	     7.550
  40.100         51.67	     7.874
  40.120         50.83	     7.810
  40.140         35.00	     6.481
  40.160         49.17	     7.681
  40.180         58.33	     8.367
  40.200         69.17	     9.110
  40.220        105.00	    11.225
  40.240        130.83	    12.530
  40.260        161.67	    13.928
  40.280        151.67	    13.491
  40.300        141.67	    13.038
  40.320        108.33	    11.402
  40.340         94.17	    10.630
  40.360        111.67	    11.576
  40.380        108.33	    11.402
  40.400         91.67	    10.488
  40.420         84.17	    10.050
  40.440         68.33	     9.055
  40.460         50.83	     7.810
  40.480         43.33	     7.211
  40.500         55.83	     8.185
  40.520         49.17	     7.681
  40.540         43.33	     7.211
  40.560         40.00	     6.928
  40.580         41.67	     7.071
  40.600         37.50	     6.708
  40.620         44.17	     7.280
  40.640         40.83	     7.000
  40.660         45.83	     7.416
  40.680         45.00	     7.348
  40.700         35.83	     6.557
  40.720         63.33	     8.718
  40.740         35.83	     6.557
  40.760         41.67	     7.071
  40.780         49.17	     7.681
  40.800         47.50	     7.550
  40.820         42.50	     7.141
  40.840         50.83	     7.810
  40.860         40.00	     6.928
  40.880         37.50	     6.708
  40.900         44.17	     7.280
  40.920         43.33	     7.211
  40.940         55.83	     8.185
  40.960         45.00	     7.348
  40.980         45.83	     7.416
  41.000         30.00	     6.000
  41.020         34.17	     6.403
  41.040         32.50	     6.245
  41.060         43.33	     7.211
  41.080         33.33	     6.325
  41.100         46.67	     7.483
  41.120         57.50	     8.307
  41.140         57.50	     8.307
  41.160         49.17	     7.681
  41.180         55.83	     8.185
  41.200         58.33	     8.367
  41.220         60.00	     8.485
  41.240         70.00	     9.165
  41.260         48.33	     7.616
  41.280         60.00	     8.485
  41.300         50.00	     7.746
  41.320         48.33	     7.616
  41.340         42.50	     7.141
  41.360         57.50	     8.307
  41.380         55.83	     8.185
  41.400         42.50	     7.141
  41.420         36.67	     6.633
  41.440         49.17	     7.681
  41.460         48.33	     7.616
  41.480         47.50	     7.550
  41.500         44.17	     7.280
  41.520         50.00	     7.746
  41.540         66.67	     8.944
  41.560         54.17	     8.062
  41.580         64.17	     8.775
  41.600         73.33	     9.381
  41.620         90.00	    10.392
  41.640         84.17	    10.050
  41.660         97.50	    10.817
  41.680         95.83	    10.724
  41.700         88.33	    10.296
  41.720        115.00	    11.747
  41.740        133.33	    12.649
  41.760        120.83	    12.042
  41.780        120.83	    12.042
  41.800         85.83	    10.149
  41.820         75.83	     9.539
  41.840         75.00	     9.487
  41.860         85.83	    10.149
  41.880        100.83	    11.000
  41.900         83.33	    10.000
  41.920         66.67	     8.944
  41.940         69.17	     9.110
  41.960         62.50	     8.660
  41.980         47.50	     7.550
  42.000         53.33	     8.000
  42.020         56.67	     8.246
  42.040         56.67	     8.246
  42.060         48.33	     7.616
  42.080         50.83	     7.810
  42.100         51.67	     7.874
  42.120         58.33	     8.367
  42.140         55.83	     8.185
  42.160         49.17	     7.681
  42.180         65.00	     8.832
  42.200         60.00	     8.485
  42.220         64.17	     8.775
  42.240         73.33	     9.381
  42.260         57.50	     8.307
  42.280         68.33	     9.055
  42.300         64.17	     8.775
  42.320         73.33	     9.381
  42.340        105.83	    11.269
  42.360        110.83	    11.533
  42.380        112.50	    11.619
  42.400        186.67	    14.967
  42.420        205.00	    15.684
  42.440        211.67	    15.937
  42.460        164.17	    14.036
  42.480        139.17	    12.923
  42.500        115.83	    11.790
  42.520        120.00	    12.000
  42.540        135.83	    12.767
  42.560        114.17	    11.705
  42.580         99.17	    10.909
  42.600         75.00	     9.487
  42.620         68.33	     9.055
  42.640         56.67	     8.246
  42.660         70.83	     9.220
  42.680         54.17	     8.062
  42.700         65.83	     8.888
  42.720         62.50	     8.660
  42.740         56.67	     8.246
  42.760         64.17	     8.775
  42.780         62.50	     8.660
  42.800         60.83	     8.544
  42.820         53.33	     8.000
  42.840         58.33	     8.367
  42.860         53.33	     8.000
  42.880         62.50	     8.660
  42.900         55.00	     8.124
  42.920         39.17	     6.856
  42.940         57.50	     8.307
  42.960         53.33	     8.000
  42.980         65.83	     8.888
  43.000         54.17	     8.062
  43.020         58.33	     8.367
  43.040         45.83	     7.416
  43.060         65.83	     8.888
  43.080         44.17	     7.280
  43.100         43.33	     7.211
  43.120         43.33	     7.211
  43.140         58.33	     8.367
  43.160         59.17	     8.426
  43.180         46.67	     7.483
  43.200         54.17	     8.062
  43.220         60.00	     8.485
  43.240         41.67	     7.071
  43.260         55.00	     8.124
  43.280         50.83	     7.810
  43.300         60.83	     8.544
  43.320         69.17	     9.110
  43.340         58.33	     8.367
  43.360         75.83	     9.539
  43.380         60.00	     8.485
  43.400         76.67	     9.592
  43.420         85.00	    10.100
  43.440         83.33	    10.000
  43.460        105.83	    11.269
  43.480         89.17	    10.344
  43.500         83.33	    10.000
  43.520        105.83	    11.269
  43.540        125.83	    12.288
  43.560        120.00	    12.000
  43.580        125.00	    12.247
  43.600        100.00	    10.954
  43.620         94.17	    10.630
  43.640        101.67	    11.045
  43.660        112.50	    11.619
  43.680        100.00	    10.954
  43.700        100.83	    11.000
  43.720        106.67	    11.314
  43.740         97.50	    10.817
  43.760         87.50	    10.247
  43.780        100.83	    11.000
  43.800         80.00	     9.798
  43.820         86.67	    10.198
  43.840         94.17	    10.630
  43.860         70.00	     9.165
  43.880         74.17	     9.434
  43.900         93.33	    10.583
  43.920         94.17	    10.630
  43.940         88.33	    10.296
  43.960        106.67	    11.314
  43.980         85.83	    10.149
  44.000         95.83	    10.724
  44.020        100.00	    10.954
  44.040         92.50	    10.536
  44.060         93.33	    10.583
  44.080         95.83	    10.724
  44.100        100.00	    10.954
  44.120        110.00	    11.489
  44.140        110.00	    11.489
  44.160        119.17	    11.958
  44.180        128.33	    12.410
  44.200        135.83	    12.767
  44.220        136.67	    12.806
  44.240        146.67	    13.266
  44.260        145.00	    13.191
  44.280        166.67	    14.142
  44.300        177.50	    14.595
  44.320        210.83	    15.906
  44.340        202.50	    15.588
  44.360        196.67	    15.362
  44.380        227.50	    16.523
  44.400        235.00	    16.793
  44.420        230.00	    16.613
  44.440        195.00	    15.297
  44.460        247.50	    17.234
  44.480        207.50	    15.780
  44.500        220.83	    16.279
  44.520        243.33	    17.088
  44.540        217.50	    16.155
  44.560        215.00	    16.062
  44.580        205.00	    15.684
  44.600        187.50	    15.000
  44.620        188.33	    15.033
  44.640        189.17	    15.067
  44.660        199.17	    15.460
  44.680        149.17	    13.379
  44.700        174.17	    14.457
  44.720        161.67	    13.928
  44.740        140.83	    13.000
  44.760        138.33	    12.884
  44.780        127.50	    12.369
  44.800        124.17	    12.207
  44.820        100.83	    11.000
  44.840        114.17	    11.705
  44.860        115.83	    11.790
  44.880        115.83	    11.790
  44.900        130.83	    12.530
  44.920        124.17	    12.207
  44.940        118.33	    11.916
  44.960        110.00	    11.489
  44.980        102.50	    11.091
  45.000        101.67	    11.045
  45.020         98.33	    10.863
  45.040        114.17	    11.705
  45.060         88.33	    10.296
  45.080         84.17	    10.050
  45.100         84.17	    10.050
  45.120         90.83	    10.440
  45.140         76.67	     9.592
  45.160        105.00	    11.225
  45.180         97.50	    10.817
  45.200         95.83	    10.724
  45.220         75.83	     9.539
  45.240        100.00	    10.954
  45.260         95.83	    10.724
  45.280        107.50	    11.358
  45.300        113.33	    11.662
  45.320        125.83	    12.288
  45.340        128.33	    12.410
  45.360        147.50	    13.304
  45.380        138.33	    12.884
  45.400        184.17	    14.866
  45.420        206.67	    15.748
  45.440        209.17	    15.843
  45.460        226.67	    16.492
  45.480        285.00	    18.493
  45.500        245.83	    17.176
  45.520        323.33	    19.698
  45.540        317.50	    19.519
  45.560        348.33	    20.445
  45.580        338.33	    20.149
  45.600        320.83	    19.621
  45.620        293.33	    18.762
  45.640        246.67	    17.205
  45.660        210.83	    15.906
  45.680        189.17	    15.067
  45.700        220.00	    16.248
  45.720        226.67	    16.492
  45.740        238.33	    16.912
  45.760        243.33	    17.088
  45.780        190.00	    15.100
  45.800        154.17	    13.601
  45.820        124.17	    12.207
  45.840        123.33	    12.166
  45.860        108.33	    11.402
  45.880        105.83	    11.269
  45.900         99.17	    10.909
  45.920         98.33	    10.863
  45.940         72.50	     9.327
  45.960         79.17	     9.747
  45.980         71.67	     9.274
  46.000         60.83	     8.544
  46.020         67.50	     9.000
  46.040         63.33	     8.718
  46.060         66.67	     8.944
  46.080         45.83	     7.416
  46.100         61.67	     8.602
  46.120         58.33	     8.367
  46.140         56.67	     8.246
  46.160         50.00	     7.746
  46.180         56.67	     8.246
  46.200         54.17	     8.062
  46.220         40.00	     6.928
  46.240         48.33	     7.616
  46.260         40.00	     6.928
  46.280         44.17	     7.280
  46.300         55.00	     8.124
  46.320         36.67	     6.633
  46.340         35.83	     6.557
  46.360         41.67	     7.071
  46.380         40.00	     6.928
  46.400         42.50	     7.141
  46.420         35.00	     6.481
  46.440         39.17	     6.856
  46.460         52.50	     7.937
  46.480         38.33	     6.782
  46.500         45.83	     7.416
  46.520         51.67	     7.874
  46.540         60.00	     8.485
  46.560         60.83	     8.544
  46.580        115.83	    11.790
  46.600        122.50	    12.124
  46.620         88.33	    10.296
  46.640         49.17	     7.681
  46.660         40.00	     6.928
  46.680         63.33	     8.718
  46.700         57.50	     8.307
  46.720         69.17	     9.110
  46.740         55.00	     8.124
  46.760         50.00	     7.746
  46.780         37.50	     6.708
  46.800         48.33	     7.616
  46.820         36.67	     6.633
  46.840         32.50	     6.245
  46.860         43.33	     7.211
  46.880         40.83	     7.000
  46.900         43.33	     7.211
  46.920         50.00	     7.746
  46.940         40.00	     6.928
  46.960         34.17	     6.403
  46.980         43.33	     7.211
  47.000         43.33	     7.211
  47.020         50.00	     7.746
  47.040         58.33	     8.367
  47.060         48.33	     7.616
  47.080         54.17	     8.062
  47.100         52.50	     7.937
  47.120         45.00	     7.348
  47.140         67.50	     9.000
  47.160         69.17	     9.110
  47.180         60.83	     8.544
  47.200         53.33	     8.000
  47.220         52.50	     7.937
  47.240         45.83	     7.416
  47.260         48.33	     7.616
  47.280         47.50	     7.550
  47.300         46.67	     7.483
  47.320         45.00	     7.348
  47.340         32.50	     6.245
  47.360         41.67	     7.071
  47.380         44.17	     7.280
  47.400         38.33	     6.782
  47.420         40.83	     7.000
  47.440         46.67	     7.483
  47.460         41.67	     7.071
  47.480         43.33	     7.211
  47.500         40.83	     7.000
  47.520         37.50	     6.708
  47.540         34.17	     6.403
  47.560         29.17	     5.916
  47.580         42.50	     7.141
  47.600         45.00	     7.348
  47.620         39.17	     6.856
  47.640         35.00	     6.481
  47.660         43.33	     7.211
  47.680         45.00	     7.348
  47.700         35.83	     6.557
  47.720         34.17	     6.403
  47.740         24.17	     5.385
  47.760         33.33	     6.325
  47.780         34.17	     6.403
  47.800         31.67	     6.164
  47.820         43.33	     7.211
  47.840         49.17	     7.681
  47.860         44.17	     7.280
  47.880         50.83	     7.810
  47.900         41.67	     7.071
  47.920         63.33	     8.718
  47.940         50.00	     7.746
  47.960         55.00	     8.124
  47.980         52.50	     7.937
  48.000         51.67	     7.874
  48.020         59.17	     8.426
  48.040         56.67	     8.246
  48.060         57.50	     8.307
  48.080         66.67	     8.944
  48.100         60.83	     8.544
  48.120         93.33	    10.583
  48.140         66.67	     8.944
  48.160         75.83	     9.539
  48.180         59.17	     8.426
  48.200         56.67	     8.246
  48.220         56.67	     8.246
  48.240         60.83	     8.544
  48.260         65.00	     8.832
  48.280         61.67	     8.602
  48.300         52.50	     7.937
  48.320         46.67	     7.483
  48.340         40.83	     7.000
  48.360         48.33	     7.616
  48.380         49.17	     7.681
  48.400         44.17	     7.280
  48.420         51.67	     7.874
  48.440         49.17	     7.681
  48.460         45.83	     7.416
  48.480         48.33	     7.616
  48.500         36.67	     6.633
  48.520         41.67	     7.071
  48.540         51.67	     7.874
  48.560         35.00	     6.481
  48.580         42.50	     7.141
  48.600         42.50	     7.141
  48.620         49.17	     7.681
  48.640         49.17	     7.681
  48.660         47.50	     7.550
  48.680         40.00	     6.928
  48.700         49.17	     7.681
  48.720         35.00	     6.481
  48.740         40.00	     6.928
  48.760         45.00	     7.348
  48.780         37.50	     6.708
  48.800         46.67	     7.483
  48.820         45.83	     7.416
  48.840         40.83	     7.000
  48.860         45.83	     7.416
  48.880         33.33	     6.325
  48.900         31.67	     6.164
  48.920         38.33	     6.782
  48.940         31.67	     6.164
  48.960         40.00	     6.928
  48.980         35.83	     6.557
  49.000         50.83	     7.810
  49.020         52.50	     7.937
  49.040         43.33	     7.211
  49.060         41.67	     7.071
  49.080         44.17	     7.280
  49.100         53.33	     8.000
  49.120         47.50	     7.550
  49.140         55.00	     8.124
  49.160         66.67	     8.944
  49.180         57.50	     8.307
  49.200         55.83	     8.185
  49.220         65.00	     8.832
  49.240         55.00	     8.124
  49.260         60.00	     8.485
  49.280         53.33	     8.000
  49.300         40.83	     7.000
  49.320         55.83	     8.185
  49.340         49.17	     7.681
  49.360         45.83	     7.416
  49.380         44.17	     7.280
  49.400         47.50	     7.550
  49.420         47.50	     7.550
  49.440         54.17	     8.062
  49.460         43.33	     7.211
  49.480         40.00	     6.928
  49.500         55.00	     8.124
  49.520         59.17	     8.426
  49.540         54.17	     8.062
  49.560         35.00	     6.481
  49.580         63.33	     8.718
  49.600         40.83	     7.000
  49.620         45.83	     7.416
  49.640         49.17	     7.681
  49.660         63.33	     8.718
  49.680         58.33	     8.367
  49.700         72.50	     9.327
  49.720         65.00	     8.832
  49.740         73.33	     9.381
  49.760         81.67	     9.899
  49.780         88.33	    10.296
  49.800        105.83	    11.269
  49.820        111.67	    11.576
  49.840        106.67	    11.314
  49.860        105.00	    11.225
  49.880        105.00	    11.225
  49.900        130.00	    12.490
  49.920        123.33	    12.166
  49.940        100.83	    11.000
  49.960        123.33	    12.166
  49.980         98.33	    10.863
  50.000         96.67	    10.770
  50.020        120.83	    12.042
  50.040        188.33	    15.033
  50.060        291.67	    18.708
  50.080        395.00	    21.772
  50.100        493.33	    24.331
  50.120        484.17	    24.104
  50.140        368.33	    21.024
  50.160        230.00	    16.613
  50.180        180.00	    14.697
  50.200        198.33	    15.427
  50.220        253.33	    17.436
  50.240        289.17	    18.628
  50.260        262.50	    17.748
  50.280        190.83	    15.133
  50.300        141.67	    13.038
  50.320         90.00	    10.392
  50.340         63.33	     8.718
  50.360         71.67	     9.274
  50.380         59.17	     8.426
  50.400         61.67	     8.602
  50.420         63.33	     8.718
  50.440         58.33	     8.367
  50.460         56.67	     8.246
  50.480         60.00	     8.485
  50.500         83.33	    10.000
  50.520         79.17	     9.747
  50.540        109.17	    11.446
  50.560        135.00	    12.728
  50.580        130.00	    12.490
  50.600        100.83	    11.000
  50.620         93.33	    10.583
  50.640         84.17	    10.050
  50.660         88.33	    10.296
  50.680         89.17	    10.344
  50.700        105.83	    11.269
  50.720        105.83	    11.269
  50.740        100.83	    11.000
  50.760         96.67	    10.770
  50.780         56.67	     8.246
  50.800         71.67	     9.274
  50.820         60.83	     8.544
  50.840         51.67	     7.874
  50.860         50.83	     7.810
  50.880         40.00	     6.928
  50.900         44.17	     7.280
  50.920         51.67	     7.874
  50.940         55.00	     8.124
  50.960         48.33	     7.616
  50.980         45.83	     7.416
  51.000         55.83	     8.185
  51.020         50.00	     7.746
  51.040         45.00	     7.348
  51.060         62.50	     8.660
  51.080         75.00	     9.487
  51.100         80.00	     9.798
  51.120        105.83	    11.269
  51.140         69.17	     9.110
  51.160         68.33	     9.055
  51.180         67.50	     9.000
  51.200         60.00	     8.485
  51.220         68.33	     9.055
  51.240         54.17	     8.062
  51.260         70.83	     9.220
  51.280         74.17	     9.434
  51.300         70.83	     9.220
  51.320         41.67	     7.071
  51.340         55.83	     8.185
  51.360         43.33	     7.211
  51.380         58.33	     8.367
  51.400         50.83	     7.810
  51.420         50.00	     7.746
  51.440         49.17	     7.681
  51.460         45.83	     7.416
  51.480         33.33	     6.325
  51.500         39.17	     6.856
  51.520         33.33	     6.325
  51.540         39.17	     6.856
  51.560         31.67	     6.164
  51.580         33.33	     6.325
  51.600         49.17	     7.681
  51.620         35.00	     6.481
  51.640         33.33	     6.325
  51.660         44.17	     7.280
  51.680         40.00	     6.928
  51.700         40.00	     6.928
  51.720         41.67	     7.071
  51.740         30.00	     6.000
  51.760         43.33	     7.211
  51.780         39.17	     6.856
  51.800         42.50	     7.141
  51.820         25.83	     5.568
  51.840         35.83	     6.557
  51.860         37.50	     6.708
  51.880         29.17	     5.916
  51.900         31.67	     6.164
  51.920         40.00	     6.928
  51.940         35.83	     6.557
  51.960         30.00	     6.000
  51.980         40.00	     6.928
  52.000         35.83	     6.557
  52.020         34.17	     6.403
  52.040         43.33	     7.211
  52.060         48.33	     7.616
  52.080         50.83	     7.810
  52.100         31.67	     6.164
  52.120         44.17	     7.280
  52.140         56.67	     8.246
  52.160         52.50	     7.937
  52.180         60.83	     8.544
  52.200         53.33	     8.000
  52.220         46.67	     7.483
  52.240         58.33	     8.367
  52.260         59.17	     8.426
  52.280         61.67	     8.602
  52.300         56.67	     8.246
  52.320         65.83	     8.888
  52.340         60.83	     8.544
  52.360         47.50	     7.550
  52.380         47.50	     7.550
  52.400         50.83	     7.810
  52.420         56.67	     8.246
  52.440         70.83	     9.220
  52.460         55.00	     8.124
  52.480         55.83	     8.185
  52.500         60.00	     8.485
  52.520         62.50	     8.660
  52.540         56.67	     8.246
  52.560         52.50	     7.937
  52.580         45.83	     7.416
  52.600         42.50	     7.141
  52.620         50.83	     7.810
  52.640         42.50	     7.141
  52.660         35.83	     6.557
  52.680         45.83	     7.416
  52.700         50.83	     7.810
  52.720         55.00	     8.124
  52.740         40.83	     7.000
  52.760         43.33	     7.211
  52.780         46.67	     7.483
  52.800         48.33	     7.616
  52.820         47.50	     7.550
  52.840         36.67	     6.633
  52.860         42.50	     7.141
  52.880         40.00	     6.928
  52.900         50.83	     7.810
  52.920         40.00	     6.928
  52.940         51.67	     7.874
  52.960         52.50	     7.937
  52.980         51.67	     7.874
  53.000         37.50	     6.708
  53.020         45.83	     7.416
  53.040         46.67	     7.483
  53.060         44.17	     7.280
  53.080         45.00	     7.348
  53.100         52.50	     7.937
  53.120         50.00	     7.746
  53.140         51.67	     7.874
  53.160         67.50	     9.000
  53.180         50.83	     7.810
  53.200         48.33	     7.616
  53.220         50.00	     7.746
  53.240         62.50	     8.660
  53.260         49.17	     7.681
  53.280         55.00	     8.124
  53.300         59.17	     8.426
  53.320         57.50	     8.307
  53.340         50.00	     7.746
  53.360         45.00	     7.348
  53.380         48.33	     7.616
  53.400         38.33	     6.782
  53.420         53.33	     8.000
  53.440         34.17	     6.403
  53.460         47.50	     7.550
  53.480         32.50	     6.245
  53.500         45.00	     7.348
  53.520         30.83	     6.083
  53.540         35.00	     6.481
  53.560         35.00	     6.481
  53.580         35.83	     6.557
  53.600         27.50	     5.745
  53.620         36.67	     6.633
  53.640         40.83	     7.000
  53.660         52.50	     7.937
  53.680         43.33	     7.211
  53.700         46.67	     7.483
  53.720         35.00	     6.481
  53.740         42.50	     7.141
  53.760         41.67	     7.071
  53.780         49.17	     7.681
  53.800         64.17	     8.775
  53.820         49.17	     7.681
  53.840         54.17	     8.062
  53.860         48.33	     7.616
  53.880         53.33	     8.000
  53.900         67.50	     9.000
  53.920         58.33	     8.367
  53.940         44.17	     7.280
  53.960         56.67	     8.246
  53.980         41.67	     7.071
  54.000         38.33	     6.782
  54.020         35.83	     6.557
  54.040         46.67	     7.483
  54.060         54.17	     8.062
  54.080         45.83	     7.416
  54.100         35.00	     6.481
  54.120         34.17	     6.403
  54.140         35.00	     6.481
  54.160         35.00	     6.481
  54.180         34.17	     6.403
  54.200         33.33	     6.325
  54.220         51.67	     7.874
  54.240         50.00	     7.746
  54.260         62.50	     8.660
  54.280         50.83	     7.810
  54.300         47.50	     7.550
  54.320         75.83	     9.539
  54.340         50.83	     7.810
  54.360         41.67	     7.071
  54.380         48.33	     7.616
  54.400         45.00	     7.348
  54.420         57.50	     8.307
  54.440         41.67	     7.071
  54.460         65.00	     8.832
  54.480         46.67	     7.483
  54.500         56.67	     8.246
  54.520         45.83	     7.416
  54.540         50.00	     7.746
  54.560         50.83	     7.810
  54.580         66.67	     8.944
  54.600         55.83	     8.185
  54.620         50.83	     7.810
  54.640         45.83	     7.416
  54.660         57.50	     8.307
  54.680         54.17	     8.062
  54.700         49.17	     7.681
  54.720         67.50	     9.000
  54.740         62.50	     8.660
  54.760         80.83	     9.849
  54.780         97.50	    10.817
  54.800        132.50	    12.610
  54.820        197.50	    15.395
  54.840        304.17	    19.105
  54.860        364.17	    20.905
  54.880        269.17	    17.972
  54.900        196.67	    15.362
  54.920        118.33	    11.916
  54.940        110.00	    11.489
  54.960        125.83	    12.288
  54.980        178.33	    14.629
  55.000        226.67	    16.492
  55.020        189.17	    15.067
  55.040        136.67	    12.806
  55.060         74.17	     9.434
  55.080         54.17	     8.062
  55.100         62.50	     8.660
  55.120         68.33	     9.055
  55.140         65.00	     8.832
  55.160         59.17	     8.426
  55.180         57.50	     8.307
  55.200         61.67	     8.602
  55.220         72.50	     9.327
  55.240         70.83	     9.220
  55.260         89.17	    10.344
  55.280         89.17	    10.344
  55.300         97.50	    10.817
  55.320         76.67	     9.592
  55.340         84.17	    10.050
  55.360         61.67	     8.602
  55.380         61.67	     8.602
  55.400         78.33	     9.695
  55.420         72.50	     9.327
  55.440         80.83	     9.849
  55.460         80.00	     9.798
  55.480         65.83	     8.888
  55.500         55.83	     8.185
  55.520         59.17	     8.426
  55.540         65.00	     8.832
  55.560         55.83	     8.185
  55.580         54.17	     8.062
  55.600         54.17	     8.062
  55.620         49.17	     7.681
  55.640         67.50	     9.000
  55.660         55.83	     8.185
  55.680         62.50	     8.660
  55.700         81.67	     9.899
  55.720         80.00	     9.798
  55.740         73.33	     9.381
  55.760         72.50	     9.327
  55.780         87.50	    10.247
  55.800         65.83	     8.888
  55.820         83.33	    10.000
  55.840         80.00	     9.798
  55.860         74.17	     9.434
  55.880         73.33	     9.381
  55.900         90.00	    10.392
  55.920         65.83	     8.888
  55.940         71.67	     9.274
  55.960         76.67	     9.592
  55.980         75.00	     9.487
  56.000         52.50	     7.937
  56.020         68.33	     9.055
  56.040         45.00	     7.348
  56.060         60.00	     8.485
  56.080         57.50	     8.307
  56.100         45.00	     7.348
  56.120         49.17	     7.681
  56.140         55.83	     8.185
  56.160         45.83	     7.416
  56.180         60.83	     8.544
  56.200         41.67	     7.071
  56.220         47.50	     7.550
  56.240         50.83	     7.810
  56.260         48.33	     7.616
  56.280         50.83	     7.810
  56.300         48.33	     7.616
  56.320         46.67	     7.483
  56.340         57.50	     8.307
  56.360         48.33	     7.616
  56.380         49.17	     7.681
  56.400         30.00	     6.000
  56.420         45.83	     7.416
  56.440         41.67	     7.071
  56.460         35.83	     6.557
  56.480         38.33	     6.782
  56.500         37.50	     6.708
  56.520         49.17	     7.681
  56.540         54.17	     8.062
  56.560         47.50	     7.550
  56.580         50.83	     7.810
  56.600         43.33	     7.211
  56.620         42.50	     7.141
  56.640         41.67	     7.071
  56.660         36.67	     6.633
  56.680         40.83	     7.000
  56.700         40.00	     6.928
  56.720         40.83	     7.000
  56.740         37.50	     6.708
  56.760         40.83	     7.000
  56.780         45.00	     7.348
  56.800         36.67	     6.633
  56.820         40.83	     7.000
  56.840         45.00	     7.348
  56.860         47.50	     7.550
  56.880         33.33	     6.325
  56.900         43.33	     7.211
  56.920         36.67	     6.633
  56.940         38.33	     6.782
  56.960         35.83	     6.557
  56.980         43.33	     7.211
  57.000         27.50	     5.745
  57.020         38.33	     6.782
  57.040         32.50	     6.245
  57.060         43.33	     7.211
  57.080         38.33	     6.782
  57.100         37.50	     6.708
  57.120         31.67	     6.164
  57.140         40.83	     7.000
  57.160         41.67	     7.071
  57.180         59.17	     8.426
  57.200         50.00	     7.746
  57.220         48.33	     7.616
  57.240         50.00	     7.746
  57.260         39.17	     6.856
  57.280         40.00	     6.928
  57.300         38.33	     6.782
  57.320         46.67	     7.483
  57.340         38.33	     6.782
  57.360         35.00	     6.481
  57.380         42.50	     7.141
  57.400         49.17	     7.681
  57.420         30.83	     6.083
  57.440         33.33	     6.325
  57.460         41.67	     7.071
  57.480         40.83	     7.000
  57.500         32.50	     6.245
  57.520         42.50	     7.141
  57.540         45.83	     7.416
  57.560         34.17	     6.403
  57.580         40.83	     7.000
  57.600         33.33	     6.325
  57.620         49.17	     7.681
  57.640         43.33	     7.211
  57.660         41.67	     7.071
  57.680         30.00	     6.000
  57.700         41.67	     7.071
  57.720         34.17	     6.403
  57.740         37.50	     6.708
  57.760         41.67	     7.071
  57.780         40.00	     6.928
  57.800         39.17	     6.856
  57.820         40.83	     7.000
  57.840         29.17	     5.916
  57.860         35.83	     6.557
  57.880         45.83	     7.416
  57.900         26.67	     5.657
  57.920         32.50	     6.245
  57.940         36.67	     6.633
  57.960         35.00	     6.481
  57.980         37.50	     6.708
  58.000         35.83	     6.557
  58.020         45.83	     7.416
  58.040         43.33	     7.211
  58.060         39.17	     6.856
  58.080         44.17	     7.280
  58.100         39.17	     6.856
  58.120         49.17	     7.681
  58.140         35.00	     6.481
  58.160         39.17	     6.856
  58.180         46.67	     7.483
  58.200         34.17	     6.403
  58.220         31.67	     6.164
  58.240         44.17	     7.280
  58.260         51.67	     7.874
  58.280         55.00	     8.124
  58.300         60.83	     8.544
  58.320         45.00	     7.348
  58.340         25.00	     5.477
  58.360         28.33	     5.831
  58.380         29.17	     5.916
  58.400         36.67	     6.633
  58.420         45.83	     7.416
  58.440         49.17	     7.681
  58.460         45.83	     7.416
  58.480         47.50	     7.550
  58.500         39.17	     6.856
  58.520         44.17	     7.280
  58.540         40.83	     7.000
  58.560         46.67	     7.483
  58.580         45.83	     7.416
  58.600         50.00	     7.746
  58.620         59.17	     8.426
  58.640         45.00	     7.348
  58.660         52.50	     7.937
  58.680         52.50	     7.937
  58.700         49.17	     7.681
  58.720         47.50	     7.550
  58.740         57.50	     8.307
  58.760         45.00	     7.348
  58.780         50.00	     7.746
  58.800         40.00	     6.928
  58.820         49.17	     7.681
  58.840         46.67	     7.483
  58.860         46.67	     7.483
  58.880         45.83	     7.416
  58.900         64.17	     8.775
  58.920         45.83	     7.416
  58.940         50.83	     7.810
  58.960         41.67	     7.071
  58.980         35.83	     6.557
  59.000         45.00	     7.348
  59.020         48.33	     7.616
  59.040         50.83	     7.810
  59.060         54.17	     8.062
  59.080         54.17	     8.062
  59.100         48.33	     7.616
  59.120         48.33	     7.616
  59.140         69.17	     9.110
  59.160         46.67	     7.483
  59.180         62.50	     8.660
  59.200         60.00	     8.485
  59.220         55.83	     8.185
  59.240         66.67	     8.944
  59.260         53.33	     8.000
  59.280         55.00	     8.124
  59.300         48.33	     7.616
  59.320         50.83	     7.810
  59.340         51.67	     7.874
  59.360         45.83	     7.416
  59.380         51.67	     7.874
  59.400         46.67	     7.483
  59.420         41.67	     7.071
  59.440         39.17	     6.856
  59.460         40.83	     7.000
  59.480         41.67	     7.071
  59.500         50.83	     7.810
  59.520         42.50	     7.141
  59.540         50.83	     7.810
  59.560         40.00	     6.928
  59.580         43.33	     7.211
  59.600         50.00	     7.746
  59.620         45.83	     7.416
  59.640         44.17	     7.280
  59.660         47.50	     7.550
  59.680         43.33	     7.211
  59.700         53.33	     8.000
  59.720         52.50	     7.937
  59.740         45.83	     7.416
  59.760         60.00	     8.485
  59.780         61.67	     8.602
  59.800         70.83	     9.220
  59.820         97.50	    10.817
  59.840        115.83	    11.790
  59.860        172.50	    14.387
  59.880        219.17	    16.217
  59.900        300.83	    19.000
  59.920        334.17	    20.025
  59.940        333.33	    20.000
  59.960        262.50	    17.748
  59.980        202.50	    15.588
  60.000        159.17	    13.820
  60.020        145.00	    13.191
  60.040        175.83	    14.526
  60.060        190.00	    15.100
  60.080        188.33	    15.033
  60.100        198.33	    15.427
  60.120        192.50	    15.199
  60.140        101.67	    11.045
  60.160        103.33	    11.136
  60.180         81.67	     9.899
  60.200         63.33	     8.718
  60.220         61.67	     8.602
  60.240         64.17	     8.775
  60.260         56.67	     8.246
  60.280         46.67	     7.483
  60.300         50.00	     7.746
  60.320         49.17	     7.681
  60.340         45.83	     7.416
  60.360         54.17	     8.062
  60.380         43.33	     7.211
  60.400         57.50	     8.307
  60.420         56.67	     8.246
  60.440         55.00	     8.124
  60.460         50.83	     7.810
  60.480         54.17	     8.062
  60.500         51.67	     7.874
  60.520         54.17	     8.062
  60.540         66.67	     8.944
  60.560         55.83	     8.185
  60.580         58.33	     8.367
  60.600         54.17	     8.062
  60.620         66.67	     8.944
  60.640         56.67	     8.246
  60.660         52.50	     7.937
  60.680         46.67	     7.483
  60.700         53.33	     8.000
  60.720         50.83	     7.810
  60.740         59.17	     8.426
  60.760         45.83	     7.416
  60.780         53.33	     8.000
  60.800         67.50	     9.000
  60.820         59.17	     8.426
  60.840         62.50	     8.660
  60.860         60.00	     8.485
  60.880         74.17	     9.434
  60.900         60.83	     8.544
  60.920         71.67	     9.274
  60.940         63.33	     8.718
  60.960         48.33	     7.616
  60.980         68.33	     9.055
  61.000         55.83	     8.185
  61.020         63.33	     8.718
  61.040         57.50	     8.307
  61.060         65.83	     8.888
  61.080         68.33	     9.055
  61.100         59.17	     8.426
  61.120         68.33	     9.055
  61.140         63.33	     8.718
  61.160         85.00	    10.100
  61.180         71.67	     9.274
  61.200         69.17	     9.110
  61.220         66.67	     8.944
  61.240         62.50	     8.660
  61.260         65.00	     8.832
  61.280         66.67	     8.944
  61.300         69.17	     9.110
  61.320         70.83	     9.220
  61.340         64.17	     8.775
  61.360         61.67	     8.602
  61.380         75.83	     9.539
  61.400         74.17	     9.434
  61.420         67.50	     9.000
  61.440         72.50	     9.327
  61.460         82.50	     9.950
  61.480         68.33	     9.055
  61.500         69.17	     9.110
  61.520         63.33	     8.718
  61.540         58.33	     8.367
  61.560         66.67	     8.944
  61.580         66.67	     8.944
  61.600         76.67	     9.592
  61.620         65.00	     8.832
  61.640         70.00	     9.165
  61.660         51.67	     7.874
  61.680         60.83	     8.544
  61.700         66.67	     8.944
  61.720         53.33	     8.000
  61.740         70.83	     9.220
  61.760         67.50	     9.000
  61.780         53.33	     8.000
  61.800         55.83	     8.185
  61.820         60.83	     8.544
  61.840         53.33	     8.000
  61.860         50.00	     7.746
  61.880         65.00	     8.832
  61.900         50.00	     7.746
  61.920         59.17	     8.426
  61.940         61.67	     8.602
  61.960         52.50	     7.937
  61.980         54.17	     8.062
  62.000         41.67	     7.071
  62.020         40.83	     7.000
  62.040         45.83	     7.416
  62.060         66.67	     8.944
  62.080         34.17	     6.403
  62.100         37.50	     6.708
  62.120         44.17	     7.280
  62.140         41.67	     7.071
  62.160         48.33	     7.616
  62.180         34.17	     6.403
  62.200         50.00	     7.746
  62.220         44.17	     7.280
  62.240         25.00	     5.477
  62.260         37.50	     6.708
  62.280         39.17	     6.856
  62.300         31.67	     6.164
  62.320         35.00	     6.481
  62.340         37.50	     6.708
  62.360         33.33	     6.325
  62.380         37.50	     6.708
  62.400         40.83	     7.000
  62.420         42.50	     7.141
  62.440         49.17	     7.681
  62.460         42.50	     7.141
  62.480         38.33	     6.782
  62.500         34.17	     6.403
  62.520         37.50	     6.708
  62.540         41.67	     7.071
  62.560         50.00	     7.746
  62.580         46.67	     7.483
  62.600         45.83	     7.416
  62.620         40.00	     6.928
  62.640         55.00	     8.124
  62.660         55.00	     8.124
  62.680         39.17	     6.856
  62.700         48.33	     7.616
  62.720         40.83	     7.000
  62.740         48.33	     7.616
  62.760         30.83	     6.083
  62.780         48.33	     7.616
  62.800         51.67	     7.874
  62.820         55.00	     8.124
  62.840         43.33	     7.211
  62.860         43.33	     7.211
  62.880         44.17	     7.280
  62.900         38.33	     6.782
  62.920         30.00	     6.000
  62.940         31.67	     6.164
  62.960         34.17	     6.403
  62.980         24.17	     5.385
  63.000         32.50	     6.245
  63.020         35.83	     6.557
  63.040         60.83	     8.544
  63.060         35.00	     6.481
  63.080         41.67	     7.071
  63.100         31.67	     6.164
  63.120         43.33	     7.211
  63.140         44.17	     7.280
  63.160         35.00	     6.481
  63.180         35.83	     6.557
  63.200         39.17	     6.856
  63.220         26.67	     5.657
  63.240         43.33	     7.211
  63.260         39.17	     6.856
  63.280         33.33	     6.325
  63.300         40.83	     7.000
  63.320         43.33	     7.211
  63.340         43.33	     7.211
  63.360         50.00	     7.746
  63.380         50.83	     7.810
  63.400         40.00	     6.928
  63.420         55.00	     8.124
  63.440         51.67	     7.874
  63.460         46.67	     7.483
  63.480         55.83	     8.185
  63.500         50.83	     7.810
  63.520         39.17	     6.856
  63.540         39.17	     6.856
  63.560         42.50	     7.141
  63.580         46.67	     7.483
  63.600         48.33	     7.616
  63.620         55.00	     8.124
  63.640         55.00	     8.124
  63.660         60.00	     8.485
  63.680         49.17	     7.681
  63.700         45.83	     7.416
  63.720         46.67	     7.483
  63.740         59.17	     8.426
  63.760         56.67	     8.246
  63.780         66.67	     8.944
  63.800         48.33	     7.616
  63.820         45.83	     7.416
  63.840         60.83	     8.544
  63.860         63.33	     8.718
  63.880         47.50	     7.550
  63.900         59.17	     8.426
  63.920         52.50	     7.937
  63.940         65.83	     8.888
  63.960         69.17	     9.110
  63.980         99.17	    10.909
  64.000         86.67	    10.198
  64.020        100.00	    10.954
  64.040         96.67	    10.770
  64.060         78.33	     9.695
  64.080         57.50	     8.307
  64.100         76.67	     9.592
  64.120         60.83	     8.544
  64.140         61.67	     8.602
  64.160         71.67	     9.274
  64.180         73.33	     9.381
  64.200         74.17	     9.434
  64.220         54.17	     8.062
  64.240         65.00	     8.832
  64.260         52.50	     7.937
  64.280         67.50	     9.000
  64.300         48.33	     7.616
  64.320         50.83	     7.810
  64.340         60.83	     8.544
  64.360         42.50	     7.141
  64.380         50.83	     7.810
  64.400         55.83	     8.185
  64.420         45.00	     7.348
  64.440         41.67	     7.071
  64.460         43.33	     7.211
  64.480         45.00	     7.348
  64.500         40.00	     6.928
  64.520         42.50	     7.141
  64.540         57.50	     8.307
  64.560         49.17	     7.681
  64.580         46.67	     7.483
  64.600         46.67	     7.483
  64.620         57.50	     8.307
  64.640         58.33	     8.367
  64.660         60.83	     8.544
  64.680         60.00	     8.485
  64.700         60.83	     8.544
  64.720         50.83	     7.810
  64.740         65.83	     8.888
  64.760         70.83	     9.220
  64.780         63.33	     8.718
  64.800         68.33	     9.055
  64.820         64.17	     8.775
  64.840         54.17	     8.062
  64.860         60.83	     8.544
  64.880         62.50	     8.660
  64.900         53.33	     8.000
  64.920         42.50	     7.141
  64.940         65.00	     8.832
  64.960         56.67	     8.246
  64.980         52.50	     7.937
  65.000         44.17	     7.280
