
Filename:
	C:\Program Files\Thermo Electron\WinXRD\Datafiles\F_HERMAN\GEO\G57_RT.raw

File Created:
	February 19, 2020 - 02:30 AM

Specimen Id:
	G57_RT

Specimen Name:
	

Specimen Description:
	

Comment:
Scan Type: 2Theta Scan
Start Angle: 3 deg.
Stop Angle: 65 deg.
Num Points: 3101
Step Size: 0.02 deg.
Scan Rate: 1.000000
Scan Mode: Continuous
Wavelength: 1.540562
\Kalpha1: 1.540562	\Kalpha2: 1.544390	\Kbeta: 1.392218

Optics:
		Detector:
			 Type: Fixed Slits
		Tube: 
			 Type: Fixed Slits


Datas:
 Pos [deg]       Rate [CPS]      ESD [-]

Range 1 ---> Iteration 1
   3.000        409.17	    22.159
   3.020        460.00	    23.495
   3.040        450.83	    23.259
   3.060        434.17	    22.825
   3.080        433.33	    22.804
   3.100        418.33	    22.405
   3.120        426.67	    22.627
   3.140        428.33	    22.672
   3.160        393.33	    21.726
   3.180        392.50	    21.703
   3.200        393.33	    21.726
   3.220        410.83	    22.204
   3.240        393.33	    21.726
   3.260        390.00	    21.633
   3.280        404.17	    22.023
   3.300        395.00	    21.772
   3.320        377.50	    21.284
   3.340        438.33	    22.935
   3.360        395.00	    21.772
   3.380        374.17	    21.190
   3.400        368.33	    21.024
   3.420        387.50	    21.564
   3.440        353.33	    20.591
   3.460        345.83	    20.372
   3.480        358.33	    20.736
   3.500        378.33	    21.307
   3.520        370.83	    21.095
   3.540        365.00	    20.928
   3.560        370.00	    21.071
   3.580        370.83	    21.095
   3.600        356.67	    20.688
   3.620        331.67	    19.950
   3.640        364.17	    20.905
   3.660        348.33	    20.445
   3.680        290.83	    18.682
   3.700        345.00	    20.347
   3.720        355.00	    20.640
   3.740        347.50	    20.421
   3.760        355.00	    20.640
   3.780        330.00	    19.900
   3.800        343.33	    20.298
   3.820        333.33	    20.000
   3.840        348.33	    20.445
   3.860        310.00	    19.287
   3.880        347.50	    20.421
   3.900        332.50	    19.975
   3.920        330.00	    19.900
   3.940        331.67	    19.950
   3.960        312.50	    19.365
   3.980        311.67	    19.339
   4.000        274.17	    18.138
   4.020        308.33	    19.235
   4.040        285.00	    18.493
   4.060        315.00	    19.442
   4.080        290.00	    18.655
   4.100        295.00	    18.815
   4.120        313.33	    19.391
   4.140        302.50	    19.053
   4.160        293.33	    18.762
   4.180        304.17	    19.105
   4.200        299.17	    18.947
   4.220        301.67	    19.026
   4.240        280.00	    18.330
   4.260        301.67	    19.026
   4.280        306.67	    19.183
   4.300        316.67	    19.494
   4.320        305.83	    19.157
   4.340        283.33	    18.439
   4.360        281.67	    18.385
   4.380        267.50	    17.916
   4.400        299.17	    18.947
   4.420        275.83	    18.193
   4.440        288.33	    18.601
   4.460        250.83	    17.349
   4.480        264.17	    17.804
   4.500        270.83	    18.028
   4.520        276.67	    18.221
   4.540        280.83	    18.358
   4.560        249.17	    17.292
   4.580        265.00	    17.833
   4.600        262.50	    17.748
   4.620        266.67	    17.889
   4.640        285.83	    18.520
   4.660        271.67	    18.055
   4.680        267.50	    17.916
   4.700        223.33	    16.371
   4.720        243.33	    17.088
   4.740        279.17	    18.303
   4.760        278.33	    18.276
   4.780        249.17	    17.292
   4.800        243.33	    17.088
   4.820        282.50	    18.412
   4.840        262.50	    17.748
   4.860        253.33	    17.436
   4.880        229.17	    16.583
   4.900        240.00	    16.971
   4.920        228.33	    16.553
   4.940        261.67	    17.720
   4.960        245.00	    17.146
   4.980        220.00	    16.248
   5.000        245.83	    17.176
   5.020        243.33	    17.088
   5.040        215.00	    16.062
   5.060        240.83	    17.000
   5.080        223.33	    16.371
   5.100        258.33	    17.607
   5.120        240.83	    17.000
   5.140        250.83	    17.349
   5.160        246.67	    17.205
   5.180        233.33	    16.733
   5.200        216.67	    16.125
   5.220        231.67	    16.673
   5.240        215.00	    16.062
   5.260        230.00	    16.613
   5.280        240.83	    17.000
   5.300        208.33	    15.811
   5.320        225.83	    16.462
   5.340        239.17	    16.941
   5.360        217.50	    16.155
   5.380        213.33	    16.000
   5.400        220.83	    16.279
   5.420        222.50	    16.340
   5.440        222.50	    16.340
   5.460        207.50	    15.780
   5.480        223.33	    16.371
   5.500        228.33	    16.553
   5.520        216.67	    16.125
   5.540        240.83	    17.000
   5.560        233.33	    16.733
   5.580        253.33	    17.436
   5.600        230.00	    16.613
   5.620        207.50	    15.780
   5.640        225.00	    16.432
   5.660        209.17	    15.843
   5.680        196.67	    15.362
   5.700        195.83	    15.330
   5.720        202.50	    15.588
   5.740        222.50	    16.340
   5.760        203.33	    15.620
   5.780        206.67	    15.748
   5.800        220.00	    16.248
   5.820        204.17	    15.652
   5.840        227.50	    16.523
   5.860        197.50	    15.395
   5.880        204.17	    15.652
   5.900        212.50	    15.969
   5.920        232.50	    16.703
   5.940        227.50	    16.523
   5.960        240.83	    17.000
   5.980        212.50	    15.969
   6.000        225.00	    16.432
   6.020        199.17	    15.460
   6.040        233.33	    16.733
   6.060        232.50	    16.703
   6.080        227.50	    16.523
   6.100        245.83	    17.176
   6.120        239.17	    16.941
   6.140        275.83	    18.193
   6.160        223.33	    16.371
   6.180        244.17	    17.117
   6.200        245.00	    17.146
   6.220        215.83	    16.093
   6.240        195.83	    15.330
   6.260        185.83	    14.933
   6.280        197.50	    15.395
   6.300        197.50	    15.395
   6.320        215.83	    16.093
   6.340        190.83	    15.133
   6.360        194.17	    15.264
   6.380        190.00	    15.100
   6.400        205.83	    15.716
   6.420        203.33	    15.620
   6.440        165.00	    14.071
   6.460        180.00	    14.697
   6.480        182.50	    14.799
   6.500        172.50	    14.387
   6.520        176.67	    14.560
   6.540        179.17	    14.663
   6.560        168.33	    14.213
   6.580        186.67	    14.967
   6.600        191.67	    15.166
   6.620        188.33	    15.033
   6.640        201.67	    15.556
   6.660        197.50	    15.395
   6.680        190.83	    15.133
   6.700        195.00	    15.297
   6.720        165.00	    14.071
   6.740        195.00	    15.297
   6.760        182.50	    14.799
   6.780        183.33	    14.832
   6.800        179.17	    14.663
   6.820        170.83	    14.318
   6.840        171.67	    14.353
   6.860        166.67	    14.142
   6.880        175.00	    14.491
   6.900        198.33	    15.427
   6.920        171.67	    14.353
   6.940        185.83	    14.933
   6.960        180.00	    14.697
   6.980        162.50	    13.964
   7.000        152.50	    13.528
   7.020        165.83	    14.107
   7.040        181.67	    14.765
   7.060        175.83	    14.526
   7.080        161.67	    13.928
   7.100        149.17	    13.379
   7.120        158.33	    13.784
   7.140        177.50	    14.595
   7.160        175.00	    14.491
   7.180        158.33	    13.784
   7.200        165.83	    14.107
   7.220        144.17	    13.153
   7.240        147.50	    13.304
   7.260        159.17	    13.820
   7.280        188.33	    15.033
   7.300        155.00	    13.638
   7.320        154.17	    13.601
   7.340        173.33	    14.422
   7.360        155.83	    13.675
   7.380        170.83	    14.318
   7.400        145.00	    13.191
   7.420        161.67	    13.928
   7.440        145.00	    13.191
   7.460        149.17	    13.379
   7.480        132.50	    12.610
   7.500        141.67	    13.038
   7.520        149.17	    13.379
   7.540        155.83	    13.675
   7.560        144.17	    13.153
   7.580        172.50	    14.387
   7.600        155.00	    13.638
   7.620        150.00	    13.416
   7.640        146.67	    13.266
   7.660        145.83	    13.229
   7.680        141.67	    13.038
   7.700        134.17	    12.689
   7.720        155.83	    13.675
   7.740        153.33	    13.565
   7.760        164.17	    14.036
   7.780        115.00	    11.747
   7.800        145.83	    13.229
   7.820        151.67	    13.491
   7.840        142.50	    13.077
   7.860        153.33	    13.565
   7.880        137.50	    12.845
   7.900        137.50	    12.845
   7.920        140.00	    12.961
   7.940        143.33	    13.115
   7.960        142.50	    13.077
   7.980        150.00	    13.416
   8.000        144.17	    13.153
   8.020        135.00	    12.728
   8.040        142.50	    13.077
   8.060        138.33	    12.884
   8.080        150.00	    13.416
   8.100        132.50	    12.610
   8.120        155.83	    13.675
   8.140        137.50	    12.845
   8.160        140.00	    12.961
   8.180        163.33	    14.000
   8.200        132.50	    12.610
   8.220        142.50	    13.077
   8.240        138.33	    12.884
   8.260        133.33	    12.649
   8.280        137.50	    12.845
   8.300        147.50	    13.304
   8.320        153.33	    13.565
   8.340        160.83	    13.892
   8.360        140.83	    13.000
   8.380        135.83	    12.767
   8.400        148.33	    13.342
   8.420        155.00	    13.638
   8.440        149.17	    13.379
   8.460        140.00	    12.961
   8.480        135.83	    12.767
   8.500        155.00	    13.638
   8.520        180.83	    14.731
   8.540        160.83	    13.892
   8.560        177.50	    14.595
   8.580        140.83	    13.000
   8.600        202.50	    15.588
   8.620        169.17	    14.248
   8.640        202.50	    15.588
   8.660        201.67	    15.556
   8.680        217.50	    16.155
   8.700        235.00	    16.793
   8.720        266.67	    17.889
   8.740        298.33	    18.921
   8.760        366.67	    20.976
   8.780        448.33	    23.195
   8.800        438.33	    22.935
   8.820        444.17	    23.087
   8.840        329.17	    19.875
   8.860        229.17	    16.583
   8.880        188.33	    15.033
   8.900        150.00	    13.416
   8.920        146.67	    13.266
   8.940        146.67	    13.266
   8.960        130.83	    12.530
   8.980        132.50	    12.610
   9.000        150.83	    13.454
   9.020        117.50	    11.874
   9.040        126.67	    12.329
   9.060        138.33	    12.884
   9.080        120.83	    12.042
   9.100        140.83	    13.000
   9.120        115.83	    11.790
   9.140        117.50	    11.874
   9.160        129.17	    12.450
   9.180        125.00	    12.247
   9.200        132.50	    12.610
   9.220        129.17	    12.450
   9.240        125.00	    12.247
   9.260        113.33	    11.662
   9.280        115.83	    11.790
   9.300        115.83	    11.790
   9.320        126.67	    12.329
   9.340        115.83	    11.790
   9.360        122.50	    12.124
   9.380        128.33	    12.410
   9.400        142.50	    13.077
   9.420        115.00	    11.747
   9.440        129.17	    12.450
   9.460        127.50	    12.369
   9.480        119.17	    11.958
   9.500        106.67	    11.314
   9.520        129.17	    12.450
   9.540        121.67	    12.083
   9.560        102.50	    11.091
   9.580        127.50	    12.369
   9.600        110.83	    11.533
   9.620         99.17	    10.909
   9.640        110.83	    11.533
   9.660        108.33	    11.402
   9.680        104.17	    11.180
   9.700        109.17	    11.446
   9.720        123.33	    12.166
   9.740        118.33	    11.916
   9.760         96.67	    10.770
   9.780        128.33	    12.410
   9.800        125.83	    12.288
   9.820        113.33	    11.662
   9.840        114.17	    11.705
   9.860        115.83	    11.790
   9.880        115.83	    11.790
   9.900        120.00	    12.000
   9.920        104.17	    11.180
   9.940        121.67	    12.083
   9.960        105.83	    11.269
   9.980        108.33	    11.402
  10.000        100.83	    11.000
  10.020        119.17	    11.958
  10.040        130.00	    12.490
  10.060        113.33	    11.662
  10.080         99.17	    10.909
  10.100         95.00	    10.677
  10.120        122.50	    12.124
  10.140         93.33	    10.583
  10.160        110.00	    11.489
  10.180        110.00	    11.489
  10.200        115.00	    11.747
  10.220        107.50	    11.358
  10.240        111.67	    11.576
  10.260         96.67	    10.770
  10.280        105.00	    11.225
  10.300        109.17	    11.446
  10.320        110.83	    11.533
  10.340        119.17	    11.958
  10.360        113.33	    11.662
  10.380        116.67	    11.832
  10.400        103.33	    11.136
  10.420        119.17	    11.958
  10.440        121.67	    12.083
  10.460        110.00	    11.489
  10.480        108.33	    11.402
  10.500        118.33	    11.916
  10.520        118.33	    11.916
  10.540        108.33	    11.402
  10.560         97.50	    10.817
  10.580         99.17	    10.909
  10.600         95.00	    10.677
  10.620         91.67	    10.488
  10.640        101.67	    11.045
  10.660         65.83	     8.888
  10.680         95.00	    10.677
  10.700         97.50	    10.817
  10.720        113.33	    11.662
  10.740         93.33	    10.583
  10.760         96.67	    10.770
  10.780         90.83	    10.440
  10.800         99.17	    10.909
  10.820         85.00	    10.100
  10.840         95.00	    10.677
  10.860         95.00	    10.677
  10.880        100.00	    10.954
  10.900         94.17	    10.630
  10.920        115.00	    11.747
  10.940         94.17	    10.630
  10.960         98.33	    10.863
  10.980         93.33	    10.583
  11.000         97.50	    10.817
  11.020         97.50	    10.817
  11.040         80.83	     9.849
  11.060         90.00	    10.392
  11.080         92.50	    10.536
  11.100        103.33	    11.136
  11.120        102.50	    11.091
  11.140         91.67	    10.488
  11.160        102.50	    11.091
  11.180         80.83	     9.849
  11.200         88.33	    10.296
  11.220         90.83	    10.440
  11.240        108.33	    11.402
  11.260        107.50	    11.358
  11.280         87.50	    10.247
  11.300         80.00	     9.798
  11.320         95.83	    10.724
  11.340         90.00	    10.392
  11.360         85.83	    10.149
  11.380         96.67	    10.770
  11.400         92.50	    10.536
  11.420         85.83	    10.149
  11.440         76.67	     9.592
  11.460         91.67	    10.488
  11.480         99.17	    10.909
  11.500         94.17	    10.630
  11.520         87.50	    10.247
  11.540         96.67	    10.770
  11.560         70.83	     9.220
  11.580        113.33	    11.662
  11.600         95.83	    10.724
  11.620         90.83	    10.440
  11.640         86.67	    10.198
  11.660        102.50	    11.091
  11.680         95.83	    10.724
  11.700        104.17	    11.180
  11.720         91.67	    10.488
  11.740        100.83	    11.000
  11.760        101.67	    11.045
  11.780         83.33	    10.000
  11.800         90.00	    10.392
  11.820        107.50	    11.358
  11.840        105.83	    11.269
  11.860        100.00	    10.954
  11.880         89.17	    10.344
  11.900        104.17	    11.180
  11.920         90.83	    10.440
  11.940        104.17	    11.180
  11.960         94.17	    10.630
  11.980        116.67	    11.832
  12.000        124.17	    12.207
  12.020        120.00	    12.000
  12.040        133.33	    12.649
  12.060        184.17	    14.866
  12.080        241.67	    17.029
  12.100        293.33	    18.762
  12.120        341.67	    20.248
  12.140        293.33	    18.762
  12.160        231.67	    16.673
  12.180        152.50	    13.528
  12.200        149.17	    13.379
  12.220        137.50	    12.845
  12.240        160.00	    13.856
  12.260        162.50	    13.964
  12.280        161.67	    13.928
  12.300        161.67	    13.928
  12.320        179.17	    14.663
  12.340        160.83	    13.892
  12.360        172.50	    14.387
  12.380        195.83	    15.330
  12.400        231.67	    16.673
  12.420        233.33	    16.733
  12.440        249.17	    17.292
  12.460        188.33	    15.033
  12.480        184.17	    14.866
  12.500        131.67	    12.570
  12.520        108.33	    11.402
  12.540        105.00	    11.225
  12.560        104.17	    11.180
  12.580        100.83	    11.000
  12.600         96.67	    10.770
  12.620         95.83	    10.724
  12.640         82.50	     9.950
  12.660         74.17	     9.434
  12.680        104.17	    11.180
  12.700         90.00	    10.392
  12.720         78.33	     9.695
  12.740         89.17	    10.344
  12.760         88.33	    10.296
  12.780         89.17	    10.344
  12.800         75.83	     9.539
  12.820         58.33	     8.367
  12.840        110.83	    11.533
  12.860         81.67	     9.899
  12.880         87.50	    10.247
  12.900         86.67	    10.198
  12.920         86.67	    10.198
  12.940         86.67	    10.198
  12.960         82.50	     9.950
  12.980         80.00	     9.798
  13.000         83.33	    10.000
  13.020         80.00	     9.798
  13.040         85.83	    10.149
  13.060        101.67	    11.045
  13.080         88.33	    10.296
  13.100         80.00	     9.798
  13.120         71.67	     9.274
  13.140         82.50	     9.950
  13.160         85.83	    10.149
  13.180         80.00	     9.798
  13.200         80.83	     9.849
  13.220         81.67	     9.899
  13.240         77.50	     9.644
  13.260         77.50	     9.644
  13.280         75.83	     9.539
  13.300         80.83	     9.849
  13.320         81.67	     9.899
  13.340         79.17	     9.747
  13.360         84.17	    10.050
  13.380        100.00	    10.954
  13.400         99.17	    10.909
  13.420         71.67	     9.274
  13.440         70.83	     9.220
  13.460         99.17	    10.909
  13.480         77.50	     9.644
  13.500         65.00	     8.832
  13.520         89.17	    10.344
  13.540         77.50	     9.644
  13.560         87.50	    10.247
  13.580         83.33	    10.000
  13.600         98.33	    10.863
  13.620         79.17	     9.747
  13.640         75.00	     9.487
  13.660         70.00	     9.165
  13.680         60.83	     8.544
  13.700         91.67	    10.488
  13.720         93.33	    10.583
  13.740         86.67	    10.198
  13.760         97.50	    10.817
  13.780        113.33	    11.662
  13.800        115.83	    11.790
  13.820         83.33	    10.000
  13.840         99.17	    10.909
  13.860        124.17	    12.207
  13.880        135.00	    12.728
  13.900        150.83	    13.454
  13.920        136.67	    12.806
  13.940         92.50	    10.536
  13.960         86.67	    10.198
  13.980         81.67	     9.899
  14.000         76.67	     9.592
  14.020         84.17	    10.050
  14.040         84.17	    10.050
  14.060         62.50	     8.660
  14.080         75.00	     9.487
  14.100         78.33	     9.695
  14.120         75.83	     9.539
  14.140         75.00	     9.487
  14.160         55.00	     8.124
  14.180         69.17	     9.110
  14.200         72.50	     9.327
  14.220         90.00	    10.392
  14.240         60.00	     8.485
  14.260         65.00	     8.832
  14.280         83.33	    10.000
  14.300         68.33	     9.055
  14.320         70.00	     9.165
  14.340         54.17	     8.062
  14.360         67.50	     9.000
  14.380         62.50	     8.660
  14.400         72.50	     9.327
  14.420         76.67	     9.592
  14.440         65.00	     8.832
  14.460         66.67	     8.944
  14.480         70.83	     9.220
  14.500         60.83	     8.544
  14.520         83.33	    10.000
  14.540         66.67	     8.944
  14.560         62.50	     8.660
  14.580         77.50	     9.644
  14.600         70.83	     9.220
  14.620         73.33	     9.381
  14.640         74.17	     9.434
  14.660         67.50	     9.000
  14.680         68.33	     9.055
  14.700         65.83	     8.888
  14.720         75.83	     9.539
  14.740         75.83	     9.539
  14.760         73.33	     9.381
  14.780         68.33	     9.055
  14.800         85.83	    10.149
  14.820         70.00	     9.165
  14.840         80.00	     9.798
  14.860         79.17	     9.747
  14.880         82.50	     9.950
  14.900         94.17	    10.630
  14.920         91.67	    10.488
  14.940        105.83	    11.269
  14.960         81.67	     9.899
  14.980         65.00	     8.832
  15.000         77.50	     9.644
  15.020         74.17	     9.434
  15.040         82.50	     9.950
  15.060         58.33	     8.367
  15.080         70.83	     9.220
  15.100         72.50	     9.327
  15.120         80.00	     9.798
  15.140         64.17	     8.775
  15.160         64.17	     8.775
  15.180         74.17	     9.434
  15.200         80.00	     9.798
  15.220         65.00	     8.832
  15.240         68.33	     9.055
  15.260         74.17	     9.434
  15.280         67.50	     9.000
  15.300         68.33	     9.055
  15.320         65.00	     8.832
  15.340         65.00	     8.832
  15.360         65.83	     8.888
  15.380         57.50	     8.307
  15.400         75.83	     9.539
  15.420         80.00	     9.798
  15.440         69.17	     9.110
  15.460         60.83	     8.544
  15.480         64.17	     8.775
  15.500         69.17	     9.110
  15.520         71.67	     9.274
  15.540         66.67	     8.944
  15.560         68.33	     9.055
  15.580         61.67	     8.602
  15.600         52.50	     7.937
  15.620         67.50	     9.000
  15.640         59.17	     8.426
  15.660         73.33	     9.381
  15.680         65.00	     8.832
  15.700         64.17	     8.775
  15.720         76.67	     9.592
  15.740         71.67	     9.274
  15.760         69.17	     9.110
  15.780         70.00	     9.165
  15.800         69.17	     9.110
  15.820         62.50	     8.660
  15.840         55.00	     8.124
  15.860         71.67	     9.274
  15.880         52.50	     7.937
  15.900         63.33	     8.718
  15.920         78.33	     9.695
  15.940         71.67	     9.274
  15.960         65.83	     8.888
  15.980         64.17	     8.775
  16.000         70.83	     9.220
  16.020         56.67	     8.246
  16.040         76.67	     9.592
  16.060         65.83	     8.888
  16.080         63.33	     8.718
  16.100         53.33	     8.000
  16.120         81.67	     9.899
  16.140         61.67	     8.602
  16.160         70.83	     9.220
  16.180         80.00	     9.798
  16.200         49.17	     7.681
  16.220         63.33	     8.718
  16.240         61.67	     8.602
  16.260         57.50	     8.307
  16.280         65.83	     8.888
  16.300         60.00	     8.485
  16.320         81.67	     9.899
  16.340         72.50	     9.327
  16.360         71.67	     9.274
  16.380         60.00	     8.485
  16.400         70.00	     9.165
  16.420         63.33	     8.718
  16.440         66.67	     8.944
  16.460         70.83	     9.220
  16.480         62.50	     8.660
  16.500         61.67	     8.602
  16.520         61.67	     8.602
  16.540         55.83	     8.185
  16.560         68.33	     9.055
  16.580         62.50	     8.660
  16.600         70.83	     9.220
  16.620         68.33	     9.055
  16.640         74.17	     9.434
  16.660         64.17	     8.775
  16.680         74.17	     9.434
  16.700         63.33	     8.718
  16.720         59.17	     8.426
  16.740         62.50	     8.660
  16.760         58.33	     8.367
  16.780         52.50	     7.937
  16.800         70.83	     9.220
  16.820         63.33	     8.718
  16.840         63.33	     8.718
  16.860         61.67	     8.602
  16.880         66.67	     8.944
  16.900         58.33	     8.367
  16.920         60.00	     8.485
  16.940         66.67	     8.944
  16.960         50.00	     7.746
  16.980         63.33	     8.718
  17.000         63.33	     8.718
  17.020         60.00	     8.485
  17.040         66.67	     8.944
  17.060         61.67	     8.602
  17.080         65.83	     8.888
  17.100         50.00	     7.746
  17.120         70.00	     9.165
  17.140         57.50	     8.307
  17.160         56.67	     8.246
  17.180         70.83	     9.220
  17.200         60.83	     8.544
  17.220         61.67	     8.602
  17.240         63.33	     8.718
  17.260         60.83	     8.544
  17.280         57.50	     8.307
  17.300         64.17	     8.775
  17.320         65.00	     8.832
  17.340         74.17	     9.434
  17.360         46.67	     7.483
  17.380         52.50	     7.937
  17.400         60.83	     8.544
  17.420         72.50	     9.327
  17.440         60.83	     8.544
  17.460         82.50	     9.950
  17.480         77.50	     9.644
  17.500         60.00	     8.485
  17.520         63.33	     8.718
  17.540         59.17	     8.426
  17.560         62.50	     8.660
  17.580         86.67	    10.198
  17.600        100.83	    11.000
  17.620         89.17	    10.344
  17.640         93.33	    10.583
  17.660        106.67	    11.314
  17.680        100.00	    10.954
  17.700        121.67	    12.083
  17.720        152.50	    13.528
  17.740        163.33	    14.000
  17.760        165.00	    14.071
  17.780        147.50	    13.304
  17.800        130.00	    12.490
  17.820         94.17	    10.630
  17.840        104.17	    11.180
  17.860         77.50	     9.644
  17.880         50.83	     7.810
  17.900         65.00	     8.832
  17.920         60.00	     8.485
  17.940         65.00	     8.832
  17.960         70.00	     9.165
  17.980         63.33	     8.718
  18.000         56.67	     8.246
  18.020         69.17	     9.110
  18.040         66.67	     8.944
  18.060         67.50	     9.000
  18.080         51.67	     7.874
  18.100         62.50	     8.660
  18.120         57.50	     8.307
  18.140         70.83	     9.220
  18.160         58.33	     8.367
  18.180         55.00	     8.124
  18.200         64.17	     8.775
  18.220         73.33	     9.381
  18.240         63.33	     8.718
  18.260         69.17	     9.110
  18.280         60.00	     8.485
  18.300         65.83	     8.888
  18.320         71.67	     9.274
  18.340         61.67	     8.602
  18.360         62.50	     8.660
  18.380         74.17	     9.434
  18.400         69.17	     9.110
  18.420         59.17	     8.426
  18.440         91.67	    10.488
  18.460         93.33	    10.583
  18.480        100.83	    11.000
  18.500         90.83	    10.440
  18.520         86.67	    10.198
  18.540         97.50	    10.817
  18.560         78.33	     9.695
  18.580         69.17	     9.110
  18.600         89.17	    10.344
  18.620         94.17	    10.630
  18.640         90.83	    10.440
  18.660        100.83	    11.000
  18.680         92.50	    10.536
  18.700        127.50	    12.369
  18.720        134.17	    12.689
  18.740        152.50	    13.528
  18.760         86.67	    10.198
  18.780         90.00	    10.392
  18.800         80.00	     9.798
  18.820         70.00	     9.165
  18.840         60.00	     8.485
  18.860         60.00	     8.485
  18.880         73.33	     9.381
  18.900         66.67	     8.944
  18.920         55.00	     8.124
  18.940         80.00	     9.798
  18.960         48.33	     7.616
  18.980         70.83	     9.220
  19.000         68.33	     9.055
  19.020         69.17	     9.110
  19.040         52.50	     7.937
  19.060         69.17	     9.110
  19.080         66.67	     8.944
  19.100         80.83	     9.849
  19.120         72.50	     9.327
  19.140         75.83	     9.539
  19.160         75.83	     9.539
  19.180         60.00	     8.485
  19.200         77.50	     9.644
  19.220         80.00	     9.798
  19.240         73.33	     9.381
  19.260         55.00	     8.124
  19.280         65.83	     8.888
  19.300         65.83	     8.888
  19.320         73.33	     9.381
  19.340         68.33	     9.055
  19.360         60.00	     8.485
  19.380         75.00	     9.487
  19.400         67.50	     9.000
  19.420         68.33	     9.055
  19.440         48.33	     7.616
  19.460         55.83	     8.185
  19.480         60.00	     8.485
  19.500         64.17	     8.775
  19.520         53.33	     8.000
  19.540         69.17	     9.110
  19.560         72.50	     9.327
  19.580         65.00	     8.832
  19.600         67.50	     9.000
  19.620         75.83	     9.539
  19.640         79.17	     9.747
  19.660         80.00	     9.798
  19.680         79.17	     9.747
  19.700         64.17	     8.775
  19.720         85.83	    10.149
  19.740         87.50	    10.247
  19.760         95.83	    10.724
  19.780         94.17	    10.630
  19.800         95.00	    10.677
  19.820         93.33	    10.583
  19.840         91.67	    10.488
  19.860         70.83	     9.220
  19.880         85.00	    10.100
  19.900         89.17	    10.344
  19.920         71.67	     9.274
  19.940         73.33	     9.381
  19.960         80.83	     9.849
  19.980         58.33	     8.367
  20.000         55.83	     8.185
  20.020         63.33	     8.718
  20.040         57.50	     8.307
  20.060         51.67	     7.874
  20.080         73.33	     9.381
  20.100         55.00	     8.124
  20.120         68.33	     9.055
  20.140         66.67	     8.944
  20.160         65.83	     8.888
  20.180         61.67	     8.602
  20.200         45.83	     7.416
  20.220         73.33	     9.381
  20.240         71.67	     9.274
  20.260         49.17	     7.681
  20.280         51.67	     7.874
  20.300         65.00	     8.832
  20.320         57.50	     8.307
  20.340         78.33	     9.695
  20.360         63.33	     8.718
  20.380         65.83	     8.888
  20.400         49.17	     7.681
  20.420         73.33	     9.381
  20.440         53.33	     8.000
  20.460         60.83	     8.544
  20.480         70.83	     9.220
  20.500         65.00	     8.832
  20.520         70.00	     9.165
  20.540         68.33	     9.055
  20.560         75.83	     9.539
  20.580         86.67	    10.198
  20.600        103.33	    11.136
  20.620         68.33	     9.055
  20.640         75.83	     9.539
  20.660        107.50	    11.358
  20.680         98.33	    10.863
  20.700        110.83	    11.533
  20.720        162.50	    13.964
  20.740        315.00	    19.442
  20.760        588.33	    26.571
  20.780        884.17	    32.573
  20.800        887.50	    32.634
  20.820        762.50	    30.249
  20.840        482.50	    24.062
  20.860        429.17	    22.694
  20.880        245.83	    17.176
  20.900        154.17	    13.601
  20.920        126.67	    12.329
  20.940        138.33	    12.884
  20.960        130.83	    12.530
  20.980        101.67	    11.045
  21.000         82.50	     9.950
  21.020        103.33	    11.136
  21.040         68.33	     9.055
  21.060         70.83	     9.220
  21.080         59.17	     8.426
  21.100         70.00	     9.165
  21.120         65.00	     8.832
  21.140         65.00	     8.832
  21.160         71.67	     9.274
  21.180         71.67	     9.274
  21.200         60.00	     8.485
  21.220         70.83	     9.220
  21.240         70.83	     9.220
  21.260         51.67	     7.874
  21.280         51.67	     7.874
  21.300         63.33	     8.718
  21.320         54.17	     8.062
  21.340         55.00	     8.124
  21.360         58.33	     8.367
  21.380         55.00	     8.124
  21.400         55.83	     8.185
  21.420         52.50	     7.937
  21.440         64.17	     8.775
  21.460         63.33	     8.718
  21.480         75.83	     9.539
  21.500         66.67	     8.944
  21.520         61.67	     8.602
  21.540         58.33	     8.367
  21.560         68.33	     9.055
  21.580         53.33	     8.000
  21.600         60.83	     8.544
  21.620         50.00	     7.746
  21.640         55.83	     8.185
  21.660         47.50	     7.550
  21.680         59.17	     8.426
  21.700         45.00	     7.348
  21.720         65.83	     8.888
  21.740         63.33	     8.718
  21.760         55.83	     8.185
  21.780         54.17	     8.062
  21.800         60.83	     8.544
  21.820         68.33	     9.055
  21.840         59.17	     8.426
  21.860         65.83	     8.888
  21.880         65.00	     8.832
  21.900        107.50	    11.358
  21.920         98.33	    10.863
  21.940        117.50	    11.874
  21.960        162.50	    13.964
  21.980        163.33	    14.000
  22.000        150.00	    13.416
  22.020        135.83	    12.767
  22.040        120.83	    12.042
  22.060         80.83	     9.849
  22.080         75.00	     9.487
  22.100         57.50	     8.307
  22.120         63.33	     8.718
  22.140         70.83	     9.220
  22.160         73.33	     9.381
  22.180         90.00	    10.392
  22.200         88.33	    10.296
  22.220         70.83	     9.220
  22.240         78.33	     9.695
  22.260         63.33	     8.718
  22.280         79.17	     9.747
  22.300         74.17	     9.434
  22.320         67.50	     9.000
  22.340         73.33	     9.381
  22.360         65.83	     8.888
  22.380         70.83	     9.220
  22.400         64.17	     8.775
  22.420         74.17	     9.434
  22.440         70.00	     9.165
  22.460         69.17	     9.110
  22.480         64.17	     8.775
  22.500         56.67	     8.246
  22.520         76.67	     9.592
  22.540         60.00	     8.485
  22.560         55.00	     8.124
  22.580         55.00	     8.124
  22.600         60.00	     8.485
  22.620         58.33	     8.367
  22.640         65.00	     8.832
  22.660         74.17	     9.434
  22.680         51.67	     7.874
  22.700         60.83	     8.544
  22.720         67.50	     9.000
  22.740         63.33	     8.718
  22.760         80.00	     9.798
  22.780         78.33	     9.695
  22.800         96.67	    10.770
  22.820         67.50	     9.000
  22.840         85.00	    10.100
  22.860         74.17	     9.434
  22.880         55.83	     8.185
  22.900         76.67	     9.592
  22.920         83.33	    10.000
  22.940         86.67	    10.198
  22.960        100.83	    11.000
  22.980         75.83	     9.539
  23.000         99.17	    10.909
  23.020         67.50	     9.000
  23.040         72.50	     9.327
  23.060         62.50	     8.660
  23.080         62.50	     8.660
  23.100         55.83	     8.185
  23.120         53.33	     8.000
  23.140         59.17	     8.426
  23.160         54.17	     8.062
  23.180         60.00	     8.485
  23.200         66.67	     8.944
  23.220         63.33	     8.718
  23.240         56.67	     8.246
  23.260         62.50	     8.660
  23.280         52.50	     7.937
  23.300         50.83	     7.810
  23.320         60.83	     8.544
  23.340         61.67	     8.602
  23.360         70.83	     9.220
  23.380         66.67	     8.944
  23.400        135.00	    12.728
  23.420        190.00	    15.100
  23.440        172.50	    14.387
  23.460        173.33	    14.422
  23.480        153.33	    13.565
  23.500        143.33	    13.115
  23.520        123.33	    12.166
  23.540        104.17	    11.180
  23.560        110.83	    11.533
  23.580         95.83	    10.724
  23.600         75.00	     9.487
  23.620         80.00	     9.798
  23.640         70.00	     9.165
  23.660         84.17	    10.050
  23.680         65.83	     8.888
  23.700         99.17	    10.909
  23.720         85.00	    10.100
  23.740         82.50	     9.950
  23.760         91.67	    10.488
  23.780         73.33	     9.381
  23.800         77.50	     9.644
  23.820         70.00	     9.165
  23.840         64.17	     8.775
  23.860         60.83	     8.544
  23.880         67.50	     9.000
  23.900         84.17	    10.050
  23.920         85.83	    10.149
  23.940         81.67	     9.899
  23.960         84.17	    10.050
  23.980         74.17	     9.434
  24.000         86.67	    10.198
  24.020         79.17	     9.747
  24.040        102.50	    11.091
  24.060        139.17	    12.923
  24.080        139.17	    12.923
  24.100        130.83	    12.530
  24.120        166.67	    14.142
  24.140        179.17	    14.663
  24.160        141.67	    13.038
  24.180        171.67	    14.353
  24.200        170.00	    14.283
  24.220        145.00	    13.191
  24.240        126.67	    12.329
  24.260        115.00	    11.747
  24.280        100.83	    11.000
  24.300         88.33	    10.296
  24.320         94.17	    10.630
  24.340         80.83	     9.849
  24.360         93.33	    10.583
  24.380         88.33	    10.296
  24.400         73.33	     9.381
  24.420        109.17	    11.446
  24.440        134.17	    12.689
  24.460        158.33	    13.784
  24.480        209.17	    15.843
  24.500        309.17	    19.261
  24.520        363.33	    20.881
  24.540        294.17	    18.788
  24.560        280.83	    18.358
  24.580        301.67	    19.026
  24.600        235.83	    16.823
  24.620        173.33	    14.422
  24.640        156.67	    13.711
  24.660        148.33	    13.342
  24.680        130.00	    12.490
  24.700        114.17	    11.705
  24.720         85.00	    10.100
  24.740        117.50	    11.874
  24.760        108.33	    11.402
  24.780        127.50	    12.369
  24.800        100.00	    10.954
  24.820        110.83	    11.533
  24.840        128.33	    12.410
  24.860        107.50	    11.358
  24.880         93.33	    10.583
  24.900         93.33	    10.583
  24.920         99.17	    10.909
  24.940        107.50	    11.358
  24.960        105.83	    11.269
  24.980        108.33	    11.402
  25.000        100.00	    10.954
  25.020        136.67	    12.806
  25.040        160.83	    13.892
  25.060        191.67	    15.166
  25.080        210.83	    15.906
  25.100        215.00	    16.062
  25.120        181.67	    14.765
  25.140        160.83	    13.892
  25.160        125.00	    12.247
  25.180        115.83	    11.790
  25.200         90.83	    10.440
  25.220         94.17	    10.630
  25.240         81.67	     9.899
  25.260         99.17	    10.909
  25.280        115.83	    11.790
  25.300         96.67	    10.770
  25.320        136.67	    12.806
  25.340        119.17	    11.958
  25.360        100.00	    10.954
  25.380        129.17	    12.450
  25.400        156.67	    13.711
  25.420        153.33	    13.565
  25.440        168.33	    14.213
  25.460        155.83	    13.675
  25.480        141.67	    13.038
  25.500        125.00	    12.247
  25.520        109.17	    11.446
  25.540        102.50	    11.091
  25.560        135.00	    12.728
  25.580        165.83	    14.107
  25.600        158.33	    13.784
  25.620        135.00	    12.728
  25.640        105.00	    11.225
  25.660        102.50	    11.091
  25.680         77.50	     9.644
  25.700         76.67	     9.592
  25.720         55.00	     8.124
  25.740         70.83	     9.220
  25.760         68.33	     9.055
  25.780         55.00	     8.124
  25.800         67.50	     9.000
  25.820         58.33	     8.367
  25.840         71.67	     9.274
  25.860         55.00	     8.124
  25.880         72.50	     9.327
  25.900         63.33	     8.718
  25.920         67.50	     9.000
  25.940         68.33	     9.055
  25.960         54.17	     8.062
  25.980         80.00	     9.798
  26.000         63.33	     8.718
  26.020         67.50	     9.000
  26.040         65.83	     8.888
  26.060         72.50	     9.327
  26.080         65.83	     8.888
  26.100         70.83	     9.220
  26.120         71.67	     9.274
  26.140         69.17	     9.110
  26.160         76.67	     9.592
  26.180         78.33	     9.695
  26.200         85.00	    10.100
  26.220         80.83	     9.849
  26.240        105.00	    11.225
  26.260        100.00	    10.954
  26.280        131.67	    12.570
  26.300        133.33	    12.649
  26.320        157.50	    13.748
  26.340        172.50	    14.387
  26.360        203.33	    15.620
  26.380        223.33	    16.371
  26.400        205.83	    15.716
  26.420        222.50	    16.340
  26.440        243.33	    17.088
  26.460        277.50	    18.248
  26.480        403.33	    22.000
  26.500        692.50	    28.827
  26.520       1226.67	    38.367
  26.540       1666.67	    44.721
  26.560       2084.17	    50.010
  26.580       1960.83	    48.508
  26.600       1579.17	    43.532
  26.620       1301.67	    39.522
  26.640       1012.50	    34.857
  26.660        711.67	    29.223
  26.680        440.83	    23.000
  26.700        306.67	    19.183
  26.720        330.00	    19.900
  26.740        346.67	    20.396
  26.760        439.17	    22.956
  26.780        440.00	    22.978
  26.800        438.33	    22.935
  26.820        485.83	    24.145
  26.840        425.83	    22.605
  26.860        365.00	    20.928
  26.880        279.17	    18.303
  26.900        239.17	    16.941
  26.920        205.00	    15.684
  26.940        173.33	    14.422
  26.960        168.33	    14.213
  26.980        208.33	    15.811
  27.000        288.33	    18.601
  27.020        291.67	    18.708
  27.040        203.33	    15.620
  27.060        180.00	    14.697
  27.080        152.50	    13.528
  27.100        130.00	    12.490
  27.120        102.50	    11.091
  27.140         81.67	     9.899
  27.160         82.50	     9.950
  27.180         85.00	    10.100
  27.200         87.50	    10.247
  27.220         68.33	     9.055
  27.240         99.17	    10.909
  27.260         75.00	     9.487
  27.280         91.67	    10.488
  27.300         80.83	     9.849
  27.320        111.67	    11.576
  27.340        104.17	    11.180
  27.360        103.33	    11.136
  27.380        120.00	    12.000
  27.400        164.17	    14.036
  27.420        209.17	    15.843
  27.440        230.83	    16.643
  27.460        224.17	    16.401
  27.480        180.83	    14.731
  27.500        176.67	    14.560
  27.520        169.17	    14.248
  27.540        135.83	    12.767
  27.560        100.83	    11.000
  27.580        104.17	    11.180
  27.600        121.67	    12.083
  27.620        150.83	    13.454
  27.640        190.00	    15.100
  27.660        193.33	    15.232
  27.680        204.17	    15.652
  27.700        169.17	    14.248
  27.720        205.83	    15.716
  27.740        203.33	    15.620
  27.760        230.83	    16.643
  27.780        267.50	    17.916
  27.800        300.83	    19.000
  27.820        419.17	    22.428
  27.840        552.50	    25.749
  27.860        553.33	    25.768
  27.880        430.83	    22.738
  27.900        409.17	    22.159
  27.920        390.00	    21.633
  27.940        284.17	    18.466
  27.960        185.00	    14.900
  27.980        173.33	    14.422
  28.000        164.17	    14.036
  28.020        224.17	    16.401
  28.040        330.83	    19.925
  28.060        290.83	    18.682
  28.080        243.33	    17.088
  28.100        222.50	    16.340
  28.120        214.17	    16.031
  28.140        200.83	    15.524
  28.160        148.33	    13.342
  28.180        137.50	    12.845
  28.200        132.50	    12.610
  28.220        147.50	    13.304
  28.240        172.50	    14.387
  28.260        183.33	    14.832
  28.280        146.67	    13.266
  28.300        110.83	    11.533
  28.320        120.00	    12.000
  28.340        100.00	    10.954
  28.360         84.17	    10.050
  28.380         64.17	     8.775
  28.400         76.67	     9.592
  28.420         80.83	     9.849
  28.440         83.33	    10.000
  28.460         77.50	     9.644
  28.480         90.83	    10.440
  28.500        105.00	    11.225
  28.520         89.17	    10.344
  28.540        113.33	    11.662
  28.560        108.33	    11.402
  28.580         95.83	    10.724
  28.600         79.17	     9.747
  28.620        100.00	    10.954
  28.640         92.50	    10.536
  28.660         89.17	    10.344
  28.680         71.67	     9.274
  28.700         75.00	     9.487
  28.720         75.83	     9.539
  28.740         57.50	     8.307
  28.760         78.33	     9.695
  28.780         72.50	     9.327
  28.800         61.67	     8.602
  28.820         58.33	     8.367
  28.840         56.67	     8.246
  28.860         47.50	     7.550
  28.880         64.17	     8.775
  28.900         45.83	     7.416
  28.920         48.33	     7.616
  28.940         59.17	     8.426
  28.960         70.00	     9.165
  28.980         76.67	     9.592
  29.000        112.50	    11.619
  29.020        104.17	    11.180
  29.040         80.83	     9.849
  29.060         74.17	     9.434
  29.080         76.67	     9.592
  29.100         55.00	     8.124
  29.120         60.00	     8.485
  29.140         56.67	     8.246
  29.160         58.33	     8.367
  29.180         55.83	     8.185
  29.200         55.83	     8.185
  29.220         55.83	     8.185
  29.240         40.83	     7.000
  29.260         41.67	     7.071
  29.280         64.17	     8.775
  29.300         51.67	     7.874
  29.320         39.17	     6.856
  29.340         46.67	     7.483
  29.360         60.00	     8.485
  29.380         52.50	     7.937
  29.400         57.50	     8.307
  29.420         51.67	     7.874
  29.440         59.17	     8.426
  29.460         52.50	     7.937
  29.480         55.83	     8.185
  29.500         48.33	     7.616
  29.520         68.33	     9.055
  29.540         63.33	     8.718
  29.560         68.33	     9.055
  29.580         68.33	     9.055
  29.600         72.50	     9.327
  29.620         68.33	     9.055
  29.640         80.00	     9.798
  29.660         91.67	    10.488
  29.680        110.00	    11.489
  29.700        139.17	    12.923
  29.720        161.67	    13.928
  29.740        220.83	    16.279
  29.760        216.67	    16.125
  29.780        239.17	    16.941
  29.800        205.83	    15.716
  29.820        165.00	    14.071
  29.840        183.33	    14.832
  29.860        152.50	    13.528
  29.880        122.50	    12.124
  29.900         97.50	    10.817
  29.920         97.50	    10.817
  29.940         78.33	     9.695
  29.960         89.17	    10.344
  29.980         90.83	    10.440
  30.000         79.17	     9.747
  30.020         69.17	     9.110
  30.040         84.17	    10.050
  30.060         85.83	    10.149
  30.080         78.33	     9.695
  30.100        100.00	    10.954
  30.120        100.83	    11.000
  30.140        125.00	    12.247
  30.160        135.00	    12.728
  30.180        110.83	    11.533
  30.200        102.50	    11.091
  30.220        115.83	    11.790
  30.240        113.33	    11.662
  30.260        105.00	    11.225
  30.280         62.50	     8.660
  30.300         84.17	    10.050
  30.320         70.83	     9.220
  30.340         87.50	    10.247
  30.360         85.83	    10.149
  30.380        115.83	    11.790
  30.400        130.83	    12.530
  30.420        168.33	    14.213
  30.440        142.50	    13.077
  30.460        158.33	    13.784
  30.480        122.50	    12.124
  30.500        125.00	    12.247
  30.520         79.17	     9.747
  30.540         80.00	     9.798
  30.560         62.50	     8.660
  30.580         77.50	     9.644
  30.600         65.83	     8.888
  30.620         57.50	     8.307
  30.640         59.17	     8.426
  30.660         65.00	     8.832
  30.680         70.00	     9.165
  30.700         81.67	     9.899
  30.720         85.83	    10.149
  30.740         93.33	    10.583
  30.760         90.00	    10.392
  30.780        141.67	    13.038
  30.800        149.17	    13.379
  30.820        155.83	    13.675
  30.840         84.17	    10.050
  30.860         91.67	    10.488
  30.880         98.33	    10.863
  30.900         94.17	    10.630
  30.920         74.17	     9.434
  30.940         98.33	    10.863
  30.960         77.50	     9.644
  30.980         75.00	     9.487
  31.000         70.00	     9.165
  31.020         73.33	     9.381
  31.040         63.33	     8.718
  31.060         65.00	     8.832
  31.080         73.33	     9.381
  31.100        109.17	    11.446
  31.120        114.17	    11.705
  31.140        135.83	    12.767
  31.160        138.33	    12.884
  31.180        116.67	    11.832
  31.200        132.50	    12.610
  31.220        133.33	    12.649
  31.240        101.67	    11.045
  31.260         95.83	    10.724
  31.280         75.83	     9.539
  31.300         60.00	     8.485
  31.320         67.50	     9.000
  31.340         60.83	     8.544
  31.360         62.50	     8.660
  31.380         70.00	     9.165
  31.400         49.17	     7.681
  31.420         56.67	     8.246
  31.440         66.67	     8.944
  31.460         72.50	     9.327
  31.480         82.50	     9.950
  31.500         74.17	     9.434
  31.520         60.00	     8.485
  31.540         69.17	     9.110
  31.560         70.83	     9.220
  31.580         67.50	     9.000
  31.600         72.50	     9.327
  31.620         57.50	     8.307
  31.640         54.17	     8.062
  31.660         52.50	     7.937
  31.680         41.67	     7.071
  31.700         48.33	     7.616
  31.720         54.17	     8.062
  31.740         58.33	     8.367
  31.760         71.67	     9.274
  31.780         78.33	     9.695
  31.800         75.83	     9.539
  31.820         70.00	     9.165
  31.840         70.00	     9.165
  31.860         67.50	     9.000
  31.880         65.83	     8.888
  31.900         62.50	     8.660
  31.920         70.83	     9.220
  31.940         75.00	     9.487
  31.960         70.83	     9.220
  31.980         85.83	    10.149
  32.000         75.83	     9.539
  32.020         70.00	     9.165
  32.040         67.50	     9.000
  32.060         67.50	     9.000
  32.080         68.33	     9.055
  32.100         54.17	     8.062
  32.120         70.00	     9.165
  32.140         59.17	     8.426
  32.160         74.17	     9.434
  32.180         72.50	     9.327
  32.200         65.00	     8.832
  32.220         63.33	     8.718
  32.240         63.33	     8.718
  32.260         69.17	     9.110
  32.280         65.00	     8.832
  32.300         44.17	     7.280
  32.320         52.50	     7.937
  32.340         41.67	     7.071
  32.360         48.33	     7.616
  32.380         50.00	     7.746
  32.400         35.83	     6.557
  32.420         35.83	     6.557
  32.440         46.67	     7.483
  32.460         41.67	     7.071
  32.480         46.67	     7.483
  32.500         47.50	     7.550
  32.520         35.83	     6.557
  32.540         47.50	     7.550
  32.560         32.50	     6.245
  32.580         53.33	     8.000
  32.600         45.00	     7.348
  32.620         36.67	     6.633
  32.640         51.67	     7.874
  32.660         38.33	     6.782
  32.680         35.00	     6.481
  32.700         40.00	     6.928
  32.720         46.67	     7.483
  32.740         40.00	     6.928
  32.760         37.50	     6.708
  32.780         40.00	     6.928
  32.800         51.67	     7.874
  32.820         40.83	     7.000
  32.840         40.00	     6.928
  32.860         49.17	     7.681
  32.880         44.17	     7.280
  32.900         39.17	     6.856
  32.920         49.17	     7.681
  32.940         55.83	     8.185
  32.960         54.17	     8.062
  32.980         73.33	     9.381
  33.000         91.67	    10.488
  33.020         77.50	     9.644
  33.040         64.17	     8.775
  33.060         64.17	     8.775
  33.080         55.00	     8.124
  33.100         50.00	     7.746
  33.120         50.83	     7.810
  33.140         45.83	     7.416
  33.160         42.50	     7.141
  33.180         52.50	     7.937
  33.200         44.17	     7.280
  33.220         47.50	     7.550
  33.240         55.83	     8.185
  33.260         49.17	     7.681
  33.280         40.83	     7.000
  33.300         39.17	     6.856
  33.320         56.67	     8.246
  33.340         41.67	     7.071
  33.360         55.00	     8.124
  33.380         48.33	     7.616
  33.400         67.50	     9.000
  33.420         65.00	     8.832
  33.440         45.83	     7.416
  33.460         53.33	     8.000
  33.480         51.67	     7.874
  33.500         50.00	     7.746
  33.520         60.83	     8.544
  33.540         54.17	     8.062
  33.560         49.17	     7.681
  33.580         45.00	     7.348
  33.600         41.67	     7.071
  33.620         45.00	     7.348
  33.640         55.83	     8.185
  33.660         41.67	     7.071
  33.680         48.33	     7.616
  33.700         45.83	     7.416
  33.720         45.00	     7.348
  33.740         37.50	     6.708
  33.760         50.00	     7.746
  33.780         55.83	     8.185
  33.800         59.17	     8.426
  33.820         58.33	     8.367
  33.840         55.00	     8.124
  33.860         61.67	     8.602
  33.880         57.50	     8.307
  33.900         72.50	     9.327
  33.920         49.17	     7.681
  33.940         62.50	     8.660
  33.960         65.83	     8.888
  33.980         55.83	     8.185
  34.000         50.83	     7.810
  34.020         70.83	     9.220
  34.040         68.33	     9.055
  34.060         68.33	     9.055
  34.080         53.33	     8.000
  34.100         55.00	     8.124
  34.120         58.33	     8.367
  34.140         59.17	     8.426
  34.160         46.67	     7.483
  34.180         61.67	     8.602
  34.200         65.83	     8.888
  34.220         49.17	     7.681
  34.240         45.00	     7.348
  34.260         68.33	     9.055
  34.280         64.17	     8.775
  34.300         72.50	     9.327
  34.320         70.83	     9.220
  34.340         82.50	     9.950
  34.360         85.00	    10.100
  34.380         85.83	    10.149
  34.400        100.00	    10.954
  34.420        109.17	    11.446
  34.440         97.50	    10.817
  34.460        119.17	    11.958
  34.480        129.17	    12.450
  34.500        110.83	    11.533
  34.520        110.83	    11.533
  34.540        105.00	    11.225
  34.560        102.50	    11.091
  34.580        101.67	    11.045
  34.600         80.83	     9.849
  34.620         95.83	    10.724
  34.640         78.33	     9.695
  34.660         79.17	     9.747
  34.680         71.67	     9.274
  34.700         63.33	     8.718
  34.720         75.83	     9.539
  34.740        110.00	    11.489
  34.760        103.33	    11.136
  34.780         98.33	    10.863
  34.800         95.83	    10.724
  34.820        106.67	    11.314
  34.840        115.83	    11.790
  34.860        117.50	    11.874
  34.880        129.17	    12.450
  34.900        125.00	    12.247
  34.920        123.33	    12.166
  34.940        140.00	    12.961
  34.960        142.50	    13.077
  34.980        115.00	    11.747
  35.000        114.17	    11.705
  35.020        106.67	    11.314
  35.040        102.50	    11.091
  35.060         89.17	    10.344
  35.080         88.33	    10.296
  35.100         69.17	     9.110
  35.120         81.67	     9.899
  35.140         83.33	    10.000
  35.160         78.33	     9.695
  35.180         72.50	     9.327
  35.200         75.83	     9.539
  35.220         73.33	     9.381
  35.240         65.00	     8.832
  35.260         84.17	    10.050
  35.280         90.00	    10.392
  35.300         85.00	    10.100
  35.320         95.00	    10.677
  35.340        111.67	    11.576
  35.360        140.83	    13.000
  35.380        151.67	    13.491
  35.400        135.00	    12.728
  35.420        163.33	    14.000
  35.440        130.00	    12.490
  35.460        134.17	    12.689
  35.480        158.33	    13.784
  35.500        155.83	    13.675
  35.520        163.33	    14.000
  35.540        195.83	    15.330
  35.560        120.00	    12.000
  35.580        130.00	    12.490
  35.600        124.17	    12.207
  35.620        132.50	    12.610
  35.640        109.17	    11.446
  35.660         85.83	    10.149
  35.680         80.83	     9.849
  35.700         59.17	     8.426
  35.720         60.00	     8.485
  35.740         74.17	     9.434
  35.760         46.67	     7.483
  35.780         56.67	     8.246
  35.800         59.17	     8.426
  35.820         48.33	     7.616
  35.840         69.17	     9.110
  35.860         58.33	     8.367
  35.880         50.83	     7.810
  35.900         69.17	     9.110
  35.920         58.33	     8.367
  35.940         67.50	     9.000
  35.960         75.00	     9.487
  35.980         80.83	     9.849
  36.000         75.00	     9.487
  36.020         68.33	     9.055
  36.040         65.83	     8.888
  36.060         82.50	     9.950
  36.080         70.83	     9.220
  36.100         53.33	     8.000
  36.120         61.67	     8.602
  36.140         42.50	     7.141
  36.160         57.50	     8.307
  36.180         48.33	     7.616
  36.200         51.67	     7.874
  36.220         60.00	     8.485
  36.240         63.33	     8.718
  36.260         65.00	     8.832
  36.280         86.67	    10.198
  36.300         82.50	     9.950
  36.320         61.67	     8.602
  36.340         69.17	     9.110
  36.360         84.17	    10.050
  36.380        120.83	    12.042
  36.400        143.33	    13.115
  36.420        180.83	    14.731
  36.440        290.83	    18.682
  36.460        341.67	    20.248
  36.480        308.33	    19.235
  36.500        256.67	    17.550
  36.520        184.17	    14.866
  36.540        203.33	    15.620
  36.560        234.17	    16.763
  36.580        209.17	    15.843
  36.600        140.00	    12.961
  36.620        101.67	    11.045
  36.640        104.17	    11.180
  36.660         87.50	    10.247
  36.680         75.00	     9.487
  36.700         73.33	     9.381
  36.720         72.50	     9.327
  36.740         57.50	     8.307
  36.760         67.50	     9.000
  36.780         65.83	     8.888
  36.800         37.50	     6.708
  36.820         60.00	     8.485
  36.840         55.83	     8.185
  36.860         49.17	     7.681
  36.880         60.00	     8.485
  36.900         71.67	     9.274
  36.920         60.83	     8.544
  36.940         56.67	     8.246
  36.960         50.83	     7.810
  36.980         60.00	     8.485
  37.000         46.67	     7.483
  37.020         61.67	     8.602
  37.040         53.33	     8.000
  37.060         67.50	     9.000
  37.080         54.17	     8.062
  37.100         68.33	     9.055
  37.120         55.00	     8.124
  37.140         60.00	     8.485
  37.160         58.33	     8.367
  37.180         54.17	     8.062
  37.200         54.17	     8.062
  37.220         62.50	     8.660
  37.240         75.83	     9.539
  37.260         60.00	     8.485
  37.280         82.50	     9.950
  37.300        115.83	    11.790
  37.320        149.17	    13.379
  37.340        153.33	    13.565
  37.360        111.67	    11.576
  37.380         93.33	    10.583
  37.400         76.67	     9.592
  37.420         83.33	    10.000
  37.440        112.50	    11.619
  37.460         95.83	    10.724
  37.480         77.50	     9.644
  37.500         80.00	     9.798
  37.520         99.17	    10.909
  37.540         87.50	    10.247
  37.560         74.17	     9.434
  37.580         75.83	     9.539
  37.600         85.00	    10.100
  37.620         91.67	    10.488
  37.640         95.00	    10.677
  37.660         58.33	     8.367
  37.680         75.00	     9.487
  37.700         67.50	     9.000
  37.720         55.83	     8.185
  37.740         57.50	     8.307
  37.760         59.17	     8.426
  37.780         44.17	     7.280
  37.800         51.67	     7.874
  37.820         42.50	     7.141
  37.840         42.50	     7.141
  37.860         53.33	     8.000
  37.880         42.50	     7.141
  37.900         40.83	     7.000
  37.920         35.83	     6.557
  37.940         42.50	     7.141
  37.960         40.83	     7.000
  37.980         31.67	     6.164
  38.000         50.00	     7.746
  38.020         43.33	     7.211
  38.040         34.17	     6.403
  38.060         39.17	     6.856
  38.080         39.17	     6.856
  38.100         37.50	     6.708
  38.120         47.50	     7.550
  38.140         63.33	     8.718
  38.160         44.17	     7.280
  38.180         46.67	     7.483
  38.200         43.33	     7.211
  38.220         43.33	     7.211
  38.240         41.67	     7.071
  38.260         41.67	     7.071
  38.280         37.50	     6.708
  38.300         37.50	     6.708
  38.320         45.00	     7.348
  38.340         40.83	     7.000
  38.360         38.33	     6.782
  38.380         45.00	     7.348
  38.400         38.33	     6.782
  38.420         42.50	     7.141
  38.440         46.67	     7.483
  38.460         45.00	     7.348
  38.480         51.67	     7.874
  38.500         59.17	     8.426
  38.520         56.67	     8.246
  38.540         60.83	     8.544
  38.560         57.50	     8.307
  38.580         58.33	     8.367
  38.600         62.50	     8.660
  38.620         65.83	     8.888
  38.640         42.50	     7.141
  38.660         65.83	     8.888
  38.680         55.83	     8.185
  38.700         61.67	     8.602
  38.720         84.17	    10.050
  38.740        100.00	    10.954
  38.760         79.17	     9.747
  38.780         76.67	     9.592
  38.800         75.00	     9.487
  38.820         66.67	     8.944
  38.840         65.00	     8.832
  38.860         85.83	    10.149
  38.880         60.83	     8.544
  38.900         66.67	     8.944
  38.920         69.17	     9.110
  38.940         77.50	     9.644
  38.960         83.33	    10.000
  38.980         65.00	     8.832
  39.000         59.17	     8.426
  39.020         70.83	     9.220
  39.040         70.00	     9.165
  39.060         72.50	     9.327
  39.080         62.50	     8.660
  39.100         55.83	     8.185
  39.120         56.67	     8.246
  39.140         55.83	     8.185
  39.160         51.67	     7.874
  39.180         45.00	     7.348
  39.200         55.83	     8.185
  39.220         45.83	     7.416
  39.240         55.00	     8.124
  39.260         46.67	     7.483
  39.280         61.67	     8.602
  39.300         66.67	     8.944
  39.320         96.67	    10.770
  39.340        106.67	    11.314
  39.360        162.50	    13.964
  39.380        197.50	    15.395
  39.400        255.00	    17.493
  39.420        170.00	    14.283
  39.440        135.83	    12.767
  39.460        124.17	    12.207
  39.480        150.00	    13.416
  39.500        153.33	    13.565
  39.520        115.83	    11.790
  39.540         80.00	     9.798
  39.560         70.83	     9.220
  39.580         61.67	     8.602
  39.600         76.67	     9.592
  39.620         69.17	     9.110
  39.640         57.50	     8.307
  39.660         55.00	     8.124
  39.680         51.67	     7.874
  39.700         65.00	     8.832
  39.720         59.17	     8.426
  39.740         50.83	     7.810
  39.760         63.33	     8.718
  39.780         52.50	     7.937
  39.800         46.67	     7.483
  39.820         45.83	     7.416
  39.840         58.33	     8.367
  39.860         50.00	     7.746
  39.880         60.83	     8.544
  39.900         65.00	     8.832
  39.920         47.50	     7.550
  39.940         50.00	     7.746
  39.960         50.00	     7.746
  39.980         52.50	     7.937
  40.000         50.00	     7.746
  40.020         48.33	     7.616
  40.040         60.83	     8.544
  40.060         44.17	     7.280
  40.080         50.00	     7.746
  40.100         64.17	     8.775
  40.120         55.00	     8.124
  40.140         73.33	     9.381
  40.160         91.67	    10.488
  40.180        116.67	    11.832
  40.200        140.83	    13.000
  40.220        131.67	    12.570
  40.240        134.17	    12.689
  40.260         95.00	    10.677
  40.280        100.00	    10.954
  40.300         89.17	    10.344
  40.320        114.17	    11.705
  40.340         77.50	     9.644
  40.360         67.50	     9.000
  40.380         70.00	     9.165
  40.400         63.33	     8.718
  40.420         48.33	     7.616
  40.440         49.17	     7.681
  40.460         41.67	     7.071
  40.480         51.67	     7.874
  40.500         40.00	     6.928
  40.520         48.33	     7.616
  40.540         52.50	     7.937
  40.560         60.00	     8.485
  40.580         35.00	     6.481
  40.600         46.67	     7.483
  40.620         44.17	     7.280
  40.640         41.67	     7.071
  40.660         45.83	     7.416
  40.680         51.67	     7.874
  40.700         45.00	     7.348
  40.720         35.00	     6.481
  40.740         45.00	     7.348
  40.760         40.00	     6.928
  40.780         47.50	     7.550
  40.800         55.00	     8.124
  40.820         53.33	     8.000
  40.840         45.83	     7.416
  40.860         52.50	     7.937
  40.880         59.17	     8.426
  40.900         45.83	     7.416
  40.920         56.67	     8.246
  40.940         55.00	     8.124
  40.960         55.83	     8.185
  40.980         62.50	     8.660
  41.000         53.33	     8.000
  41.020         63.33	     8.718
  41.040        127.50	    12.369
  41.060        184.17	    14.866
  41.080        132.50	    12.610
  41.100        112.50	    11.619
  41.120         75.83	     9.539
  41.140         93.33	    10.583
  41.160        111.67	    11.576
  41.180        116.67	    11.832
  41.200         86.67	    10.198
  41.220         72.50	     9.327
  41.240         66.67	     8.944
  41.260         63.33	     8.718
  41.280         53.33	     8.000
  41.300         50.83	     7.810
  41.320         55.00	     8.124
  41.340         43.33	     7.211
  41.360         62.50	     8.660
  41.380         43.33	     7.211
  41.400         44.17	     7.280
  41.420         42.50	     7.141
  41.440         34.17	     6.403
  41.460         36.67	     6.633
  41.480         39.17	     6.856
  41.500         45.83	     7.416
  41.520         54.17	     8.062
  41.540         65.00	     8.832
  41.560         61.67	     8.602
  41.580         55.00	     8.124
  41.600         81.67	     9.899
  41.620        100.00	    10.954
  41.640         91.67	    10.488
  41.660        112.50	    11.619
  41.680         91.67	    10.488
  41.700         89.17	    10.344
  41.720         84.17	    10.050
  41.740         72.50	     9.327
  41.760         77.50	     9.644
  41.780         85.00	    10.100
  41.800         66.67	     8.944
  41.820         75.83	     9.539
  41.840         55.83	     8.185
  41.860         69.17	     9.110
  41.880         81.67	     9.899
  41.900         63.33	     8.718
  41.920         44.17	     7.280
  41.940         61.67	     8.602
  41.960         45.00	     7.348
  41.980         54.17	     8.062
  42.000         56.67	     8.246
  42.020         56.67	     8.246
  42.040         59.17	     8.426
  42.060         47.50	     7.550
  42.080         57.50	     8.307
  42.100         45.00	     7.348
  42.120         61.67	     8.602
  42.140         50.83	     7.810
  42.160         72.50	     9.327
  42.180         56.67	     8.246
  42.200         72.50	     9.327
  42.220         51.67	     7.874
  42.240         67.50	     9.000
  42.260         65.00	     8.832
  42.280         85.83	    10.149
  42.300        110.83	    11.533
  42.320        134.17	    12.689
  42.340        158.33	    13.784
  42.360        212.50	    15.969
  42.380        227.50	    16.523
  42.400        211.67	    15.937
  42.420        160.00	    13.856
  42.440        148.33	    13.342
  42.460        132.50	    12.610
  42.480        160.00	    13.856
  42.500        136.67	    12.806
  42.520        125.00	    12.247
  42.540        105.00	    11.225
  42.560         93.33	    10.583
  42.580         76.67	     9.592
  42.600         80.00	     9.798
  42.620         55.00	     8.124
  42.640         62.50	     8.660
  42.660         63.33	     8.718
  42.680         70.83	     9.220
  42.700         69.17	     9.110
  42.720         63.33	     8.718
  42.740         65.83	     8.888
  42.760         43.33	     7.211
  42.780         72.50	     9.327
  42.800         55.00	     8.124
  42.820         63.33	     8.718
  42.840         60.00	     8.485
  42.860         58.33	     8.367
  42.880         50.00	     7.746
  42.900         45.00	     7.348
  42.920         63.33	     8.718
  42.940         70.83	     9.220
  42.960        116.67	    11.832
  42.980        131.67	    12.570
  43.000        112.50	    11.619
  43.020         87.50	    10.247
  43.040         80.83	     9.849
  43.060         83.33	    10.000
  43.080         78.33	     9.695
  43.100         96.67	    10.770
  43.120         74.17	     9.434
  43.140         95.83	    10.724
  43.160         90.00	    10.392
  43.180         97.50	    10.817
  43.200        100.00	    10.954
  43.220         75.83	     9.539
  43.240         74.17	     9.434
  43.260         79.17	     9.747
  43.280         71.67	     9.274
  43.300         84.17	    10.050
  43.320         75.00	     9.487
  43.340         85.00	    10.100
  43.360         69.17	     9.110
  43.380         95.00	    10.677
  43.400         85.83	    10.149
  43.420         96.67	    10.770
  43.440        103.33	    11.136
  43.460        109.17	    11.446
  43.480        130.83	    12.530
  43.500         95.83	    10.724
  43.520        123.33	    12.166
  43.540        110.00	    11.489
  43.560        132.50	    12.610
  43.580        141.67	    13.038
  43.600        131.67	    12.570
  43.620        125.00	    12.247
  43.640        110.00	    11.489
  43.660        104.17	    11.180
  43.680        130.83	    12.530
  43.700        127.50	    12.369
  43.720        115.00	    11.747
  43.740        120.00	    12.000
  43.760        113.33	    11.662
  43.780        110.83	    11.533
  43.800        110.83	    11.533
  43.820         99.17	    10.909
  43.840        108.33	    11.402
  43.860        117.50	    11.874
  43.880        127.50	    12.369
  43.900        115.83	    11.790
  43.920        115.83	    11.790
  43.940        146.67	    13.266
  43.960        170.00	    14.283
  43.980        146.67	    13.266
  44.000        124.17	    12.207
  44.020        120.00	    12.000
  44.040        128.33	    12.410
  44.060        150.00	    13.416
  44.080        155.83	    13.675
  44.100        129.17	    12.450
  44.120        125.00	    12.247
  44.140        160.83	    13.892
  44.160        159.17	    13.820
  44.180        145.00	    13.191
  44.200        179.17	    14.663
  44.220        181.67	    14.765
  44.240        195.83	    15.330
  44.260        200.00	    15.492
  44.280        213.33	    16.000
  44.300        232.50	    16.703
  44.320        241.67	    17.029
  44.340        248.33	    17.263
  44.360        262.50	    17.748
  44.380        242.50	    17.059
  44.400        271.67	    18.055
  44.420        277.50	    18.248
  44.440        247.50	    17.234
  44.460        271.67	    18.055
  44.480        248.33	    17.263
  44.500        239.17	    16.941
  44.520        260.83	    17.692
  44.540        255.00	    17.493
  44.560        239.17	    16.941
  44.580        215.83	    16.093
  44.600        203.33	    15.620
  44.620        219.17	    16.217
  44.640        196.67	    15.362
  44.660        183.33	    14.832
  44.680        200.00	    15.492
  44.700        145.83	    13.229
  44.720        171.67	    14.353
  44.740        148.33	    13.342
  44.760        130.83	    12.530
  44.780        148.33	    13.342
  44.800        143.33	    13.115
  44.820        140.83	    13.000
  44.840        116.67	    11.832
  44.860        118.33	    11.916
  44.880        165.00	    14.071
  44.900        131.67	    12.570
  44.920        111.67	    11.576
  44.940        124.17	    12.207
  44.960        108.33	    11.402
  44.980         95.00	    10.677
  45.000        107.50	    11.358
  45.020        117.50	    11.874
  45.040        103.33	    11.136
  45.060        102.50	    11.091
  45.080        103.33	    11.136
  45.100        105.00	    11.225
  45.120         89.17	    10.344
  45.140         92.50	    10.536
  45.160         60.00	     8.485
  45.180         76.67	     9.592
  45.200         85.83	    10.149
  45.220         80.00	     9.798
  45.240         91.67	    10.488
  45.260         90.83	    10.440
  45.280         74.17	     9.434
  45.300        100.83	    11.000
  45.320         95.83	    10.724
  45.340         98.33	    10.863
  45.360        119.17	    11.958
  45.380        148.33	    13.342
  45.400        143.33	    13.115
  45.420        160.00	    13.856
  45.440        144.17	    13.153
  45.460        175.00	    14.491
  45.480        166.67	    14.142
  45.500        190.00	    15.100
  45.520        197.50	    15.395
  45.540        212.50	    15.969
  45.560        167.50	    14.177
  45.580        149.17	    13.379
  45.600        140.83	    13.000
  45.620        136.67	    12.806
  45.640        130.00	    12.490
  45.660        168.33	    14.213
  45.680        172.50	    14.387
  45.700        200.00	    15.492
  45.720        172.50	    14.387
  45.740        150.83	    13.454
  45.760        110.00	    11.489
  45.780        118.33	    11.916
  45.800        116.67	    11.832
  45.820        105.00	    11.225
  45.840        124.17	    12.207
  45.860        105.83	    11.269
  45.880         87.50	    10.247
  45.900         64.17	     8.775
  45.920         69.17	     9.110
  45.940         69.17	     9.110
  45.960         69.17	     9.110
  45.980         65.83	     8.888
  46.000         64.17	     8.775
  46.020         56.67	     8.246
  46.040         60.00	     8.485
  46.060         55.00	     8.124
  46.080         54.17	     8.062
  46.100         55.83	     8.185
  46.120         50.00	     7.746
  46.140         41.67	     7.071
  46.160         43.33	     7.211
  46.180         41.67	     7.071
  46.200         46.67	     7.483
  46.220         45.00	     7.348
  46.240         53.33	     8.000
  46.260         38.33	     6.782
  46.280         45.83	     7.416
  46.300         33.33	     6.325
  46.320         40.83	     7.000
  46.340         40.83	     7.000
  46.360         42.50	     7.141
  46.380         40.83	     7.000
  46.400         46.67	     7.483
  46.420         38.33	     6.782
  46.440         40.00	     6.928
  46.460         35.83	     6.557
  46.480         45.83	     7.416
  46.500         40.00	     6.928
  46.520         50.00	     7.746
  46.540         37.50	     6.708
  46.560         35.83	     6.557
  46.580         41.67	     7.071
  46.600         39.17	     6.856
  46.620         45.00	     7.348
  46.640         42.50	     7.141
  46.660         37.50	     6.708
  46.680         40.00	     6.928
  46.700         38.33	     6.782
  46.720         37.50	     6.708
  46.740         45.83	     7.416
  46.760         39.17	     6.856
  46.780         38.33	     6.782
  46.800         37.50	     6.708
  46.820         34.17	     6.403
  46.840         30.83	     6.083
  46.860         38.33	     6.782
  46.880         41.67	     7.071
  46.900         45.00	     7.348
  46.920         32.50	     6.245
  46.940         37.50	     6.708
  46.960         43.33	     7.211
  46.980         49.17	     7.681
  47.000         42.50	     7.141
  47.020         38.33	     6.782
  47.040         51.67	     7.874
  47.060         48.33	     7.616
  47.080         35.00	     6.481
  47.100         44.17	     7.280
  47.120         39.17	     6.856
  47.140         45.83	     7.416
  47.160         44.17	     7.280
  47.180         37.50	     6.708
  47.200         45.83	     7.416
  47.220         28.33	     5.831
  47.240         37.50	     6.708
  47.260         45.83	     7.416
  47.280         49.17	     7.681
  47.300         37.50	     6.708
  47.320         41.67	     7.071
  47.340         34.17	     6.403
  47.360         25.00	     5.477
  47.380         39.17	     6.856
  47.400         40.83	     7.000
  47.420         35.83	     6.557
  47.440         39.17	     6.856
  47.460         30.83	     6.083
  47.480         30.00	     6.000
  47.500         28.33	     5.831
  47.520         37.50	     6.708
  47.540         42.50	     7.141
  47.560         29.17	     5.916
  47.580         35.00	     6.481
  47.600         28.33	     5.831
  47.620         38.33	     6.782
  47.640         51.67	     7.874
  47.660         32.50	     6.245
  47.680         39.17	     6.856
  47.700         30.00	     6.000
  47.720         34.17	     6.403
  47.740         29.17	     5.916
  47.760         39.17	     6.856
  47.780         36.67	     6.633
  47.800         41.67	     7.071
  47.820         39.17	     6.856
  47.840         57.50	     8.307
  47.860         55.83	     8.185
  47.880         64.17	     8.775
  47.900         76.67	     9.592
  47.920         82.50	     9.950
  47.940         60.00	     8.485
  47.960         56.67	     8.246
  47.980         55.83	     8.185
  48.000         55.83	     8.185
  48.020         69.17	     9.110
  48.040         53.33	     8.000
  48.060         64.17	     8.775
  48.080         57.50	     8.307
  48.100         46.67	     7.483
  48.120         65.83	     8.888
  48.140         50.83	     7.810
  48.160         57.50	     8.307
  48.180         52.50	     7.937
  48.200         68.33	     9.055
  48.220         56.67	     8.246
  48.240         63.33	     8.718
  48.260         54.17	     8.062
  48.280         38.33	     6.782
  48.300         49.17	     7.681
  48.320         49.17	     7.681
  48.340         44.17	     7.280
  48.360         49.17	     7.681
  48.380         32.50	     6.245
  48.400         40.83	     7.000
  48.420         47.50	     7.550
  48.440         40.83	     7.000
  48.460         38.33	     6.782
  48.480         44.17	     7.280
  48.500         51.67	     7.874
  48.520         45.83	     7.416
  48.540         37.50	     6.708
  48.560         36.67	     6.633
  48.580         41.67	     7.071
  48.600         38.33	     6.782
  48.620         41.67	     7.071
  48.640         36.67	     6.633
  48.660         45.00	     7.348
  48.680         40.00	     6.928
  48.700         42.50	     7.141
  48.720         34.17	     6.403
  48.740         40.83	     7.000
  48.760         39.17	     6.856
  48.780         38.33	     6.782
  48.800         40.83	     7.000
  48.820         45.00	     7.348
  48.840         40.83	     7.000
  48.860         41.67	     7.071
  48.880         39.17	     6.856
  48.900         40.83	     7.000
  48.920         50.83	     7.810
  48.940         38.33	     6.782
  48.960         40.83	     7.000
  48.980         50.00	     7.746
  49.000         44.17	     7.280
  49.020         41.67	     7.071
  49.040         35.00	     6.481
  49.060         40.00	     6.928
  49.080         45.83	     7.416
  49.100         50.00	     7.746
  49.120         66.67	     8.944
  49.140         65.00	     8.832
  49.160         51.67	     7.874
  49.180         61.67	     8.602
  49.200         56.67	     8.246
  49.220         55.00	     8.124
  49.240         51.67	     7.874
  49.260         55.83	     8.185
  49.280         58.33	     8.367
  49.300         53.33	     8.000
  49.320         45.83	     7.416
  49.340         40.00	     6.928
  49.360         55.83	     8.185
  49.380         44.17	     7.280
  49.400         46.67	     7.483
  49.420         34.17	     6.403
  49.440         42.50	     7.141
  49.460         47.50	     7.550
  49.480         39.17	     6.856
  49.500         40.83	     7.000
  49.520         40.00	     6.928
  49.540         47.50	     7.550
  49.560         36.67	     6.633
  49.580         59.17	     8.426
  49.600         45.83	     7.416
  49.620         45.83	     7.416
  49.640         72.50	     9.327
  49.660         59.17	     8.426
  49.680         69.17	     9.110
  49.700         64.17	     8.775
  49.720         69.17	     9.110
  49.740         55.00	     8.124
  49.760         68.33	     9.055
  49.780         71.67	     9.274
  49.800         67.50	     9.000
  49.820         73.33	     9.381
  49.840         73.33	     9.381
  49.860         78.33	     9.695
  49.880         73.33	     9.381
  49.900         78.33	     9.695
  49.920         71.67	     9.274
  49.940         92.50	    10.536
  49.960        110.00	    11.489
  49.980        143.33	    13.115
  50.000        240.00	    16.971
  50.020        273.33	    18.111
  50.040        322.50	    19.672
  50.060        365.83	    20.952
  50.080        303.33	    19.079
  50.100        214.17	    16.031
  50.120        167.50	    14.177
  50.140        161.67	    13.928
  50.160        191.67	    15.166
  50.180        184.17	    14.866
  50.200        217.50	    16.155
  50.220        153.33	    13.565
  50.240        114.17	    11.705
  50.260         83.33	    10.000
  50.280         76.67	     9.592
  50.300         61.67	     8.602
  50.320         70.83	     9.220
  50.340         60.83	     8.544
  50.360         71.67	     9.274
  50.380         57.50	     8.307
  50.400         63.33	     8.718
  50.420         55.83	     8.185
  50.440         70.83	     9.220
  50.460         70.00	     9.165
  50.480         86.67	    10.198
  50.500         87.50	    10.247
  50.520         90.00	    10.392
  50.540        100.83	    11.000
  50.560         79.17	     9.747
  50.580         82.50	     9.950
  50.600         84.17	    10.050
  50.620         81.67	     9.899
  50.640         90.00	    10.392
  50.660         80.00	     9.798
  50.680         84.17	    10.050
  50.700         84.17	    10.050
  50.720         80.00	     9.798
  50.740         57.50	     8.307
  50.760         70.00	     9.165
  50.780         56.67	     8.246
  50.800         67.50	     9.000
  50.820         62.50	     8.660
  50.840         56.67	     8.246
  50.860         51.67	     7.874
  50.880         50.83	     7.810
  50.900         61.67	     8.602
  50.920         50.00	     7.746
  50.940         49.17	     7.681
  50.960         53.33	     8.000
  50.980         59.17	     8.426
  51.000         48.33	     7.616
  51.020         65.00	     8.832
  51.040         85.83	    10.149
  51.060         75.00	     9.487
  51.080         83.33	    10.000
  51.100         65.83	     8.888
  51.120         52.50	     7.937
  51.140         59.17	     8.426
  51.160         55.00	     8.124
  51.180         57.50	     8.307
  51.200         63.33	     8.718
  51.220         68.33	     9.055
  51.240         49.17	     7.681
  51.260         55.00	     8.124
  51.280         51.67	     7.874
  51.300         44.17	     7.280
  51.320         40.83	     7.000
  51.340         40.00	     6.928
  51.360         32.50	     6.245
  51.380         41.67	     7.071
  51.400         36.67	     6.633
  51.420         35.83	     6.557
  51.440         27.50	     5.745
  51.460         39.17	     6.856
  51.480         29.17	     5.916
  51.500         34.17	     6.403
  51.520         40.00	     6.928
  51.540         26.67	     5.657
  51.560         42.50	     7.141
  51.580         34.17	     6.403
  51.600         25.83	     5.568
  51.620         42.50	     7.141
  51.640         39.17	     6.856
  51.660         39.17	     6.856
  51.680         48.33	     7.616
  51.700         37.50	     6.708
  51.720         35.83	     6.557
  51.740         32.50	     6.245
  51.760         33.33	     6.325
  51.780         36.67	     6.633
  51.800         31.67	     6.164
  51.820         43.33	     7.211
  51.840         43.33	     7.211
  51.860         36.67	     6.633
  51.880         45.83	     7.416
  51.900         63.33	     8.718
  51.920         67.50	     9.000
  51.940         70.83	     9.220
  51.960         70.83	     9.220
  51.980         55.83	     8.185
  52.000         73.33	     9.381
  52.020         80.00	     9.798
  52.040         65.83	     8.888
  52.060         80.00	     9.798
  52.080         69.17	     9.110
  52.100         79.17	     9.747
  52.120         62.50	     8.660
  52.140         55.00	     8.124
  52.160         62.50	     8.660
  52.180         45.83	     7.416
  52.200         62.50	     8.660
  52.220         52.50	     7.937
  52.240         53.33	     8.000
  52.260         46.67	     7.483
  52.280         37.50	     6.708
  52.300         56.67	     8.246
  52.320         58.33	     8.367
  52.340         54.17	     8.062
  52.360         57.50	     8.307
  52.380         89.17	    10.344
  52.400        107.50	    11.358
  52.420         94.17	    10.630
  52.440         72.50	     9.327
  52.460         69.17	     9.110
  52.480         67.50	     9.000
  52.500         51.67	     7.874
  52.520         56.67	     8.246
  52.540         61.67	     8.602
  52.560         54.17	     8.062
  52.580         47.50	     7.550
  52.600         48.33	     7.616
  52.620         51.67	     7.874
  52.640         37.50	     6.708
  52.660         35.00	     6.481
  52.680         37.50	     6.708
  52.700         39.17	     6.856
  52.720         40.83	     7.000
  52.740         46.67	     7.483
  52.760         45.00	     7.348
  52.780         46.67	     7.483
  52.800         41.67	     7.071
  52.820         45.00	     7.348
  52.840         39.17	     6.856
  52.860         50.83	     7.810
  52.880         34.17	     6.403
  52.900         39.17	     6.856
  52.920         37.50	     6.708
  52.940         34.17	     6.403
  52.960         50.00	     7.746
  52.980         50.83	     7.810
  53.000         36.67	     6.633
  53.020         45.83	     7.416
  53.040         40.83	     7.000
  53.060         55.83	     8.185
  53.080         51.67	     7.874
  53.100         42.50	     7.141
  53.120         42.50	     7.141
  53.140         53.33	     8.000
  53.160         39.17	     6.856
  53.180         52.50	     7.937
  53.200         40.00	     6.928
  53.220         65.00	     8.832
  53.240         62.50	     8.660
  53.260         70.00	     9.165
  53.280         69.17	     9.110
  53.300         40.83	     7.000
  53.320         50.00	     7.746
  53.340         34.17	     6.403
  53.360         47.50	     7.550
  53.380         45.83	     7.416
  53.400         55.00	     8.124
  53.420         36.67	     6.633
  53.440         35.83	     6.557
  53.460         49.17	     7.681
  53.480         30.00	     6.000
  53.500         36.67	     6.633
  53.520         41.67	     7.071
  53.540         38.33	     6.782
  53.560         46.67	     7.483
  53.580         36.67	     6.633
  53.600         43.33	     7.211
  53.620         51.67	     7.874
  53.640         36.67	     6.633
  53.660         34.17	     6.403
  53.680         39.17	     6.856
  53.700         37.50	     6.708
  53.720         48.33	     7.616
  53.740         42.50	     7.141
  53.760         45.83	     7.416
  53.780         46.67	     7.483
  53.800         41.67	     7.071
  53.820         45.00	     7.348
  53.840         41.67	     7.071
  53.860         46.67	     7.483
  53.880         40.00	     6.928
  53.900         40.00	     6.928
  53.920         39.17	     6.856
  53.940         49.17	     7.681
  53.960         55.00	     8.124
  53.980         44.17	     7.280
  54.000         44.17	     7.280
  54.020         34.17	     6.403
  54.040         39.17	     6.856
  54.060         45.00	     7.348
  54.080         34.17	     6.403
  54.100         38.33	     6.782
  54.120         40.83	     7.000
  54.140         35.00	     6.481
  54.160         45.83	     7.416
  54.180         44.17	     7.280
  54.200         38.33	     6.782
  54.220         45.00	     7.348
  54.240         50.83	     7.810
  54.260         58.33	     8.367
  54.280         40.00	     6.928
  54.300         61.67	     8.602
  54.320         40.83	     7.000
  54.340         50.00	     7.746
  54.360         44.17	     7.280
  54.380         50.00	     7.746
  54.400         43.33	     7.211
  54.420         58.33	     8.367
  54.440         50.00	     7.746
  54.460         46.67	     7.483
  54.480         38.33	     6.782
  54.500         51.67	     7.874
  54.520         45.83	     7.416
  54.540         51.67	     7.874
  54.560         53.33	     8.000
  54.580         52.50	     7.937
  54.600         46.67	     7.483
  54.620         52.50	     7.937
  54.640         60.00	     8.485
  54.660         62.50	     8.660
  54.680         72.50	     9.327
  54.700         74.17	     9.434
  54.720         96.67	    10.770
  54.740        119.17	    11.958
  54.760        137.50	    12.845
  54.780        149.17	    13.379
  54.800        158.33	    13.784
  54.820        122.50	    12.124
  54.840        101.67	    11.045
  54.860         69.17	     9.110
  54.880         98.33	    10.863
  54.900        108.33	    11.402
  54.920        115.00	    11.747
  54.940        112.50	    11.619
  54.960         94.17	    10.630
  54.980         92.50	    10.536
  55.000         55.83	     8.185
  55.020         55.00	     8.124
  55.040         52.50	     7.937
  55.060         50.00	     7.746
  55.080         54.17	     8.062
  55.100         49.17	     7.681
  55.120         50.00	     7.746
  55.140         60.00	     8.485
  55.160         59.17	     8.426
  55.180         75.83	     9.539
  55.200         78.33	     9.695
  55.220        104.17	    11.180
  55.240        112.50	    11.619
  55.260         97.50	    10.817
  55.280         78.33	     9.695
  55.300         83.33	    10.000
  55.320         68.33	     9.055
  55.340         55.83	     8.185
  55.360         69.17	     9.110
  55.380         75.83	     9.539
  55.400         77.50	     9.644
  55.420         72.50	     9.327
  55.440         68.33	     9.055
  55.460         65.83	     8.888
  55.480         65.00	     8.832
  55.500         58.33	     8.367
  55.520         60.00	     8.485
  55.540         54.17	     8.062
  55.560         61.67	     8.602
  55.580         60.00	     8.485
  55.600         60.83	     8.544
  55.620         63.33	     8.718
  55.640         58.33	     8.367
  55.660         60.00	     8.485
  55.680         73.33	     9.381
  55.700         63.33	     8.718
  55.720         77.50	     9.644
  55.740         70.83	     9.220
  55.760         72.50	     9.327
  55.780         81.67	     9.899
  55.800         65.83	     8.888
  55.820         63.33	     8.718
  55.840         59.17	     8.426
  55.860         74.17	     9.434
  55.880         62.50	     8.660
  55.900         53.33	     8.000
  55.920         45.00	     7.348
  55.940         46.67	     7.483
  55.960         60.83	     8.544
  55.980         50.00	     7.746
  56.000         42.50	     7.141
  56.020         50.83	     7.810
  56.040         82.50	     9.950
  56.060        106.67	    11.314
  56.080         79.17	     9.747
  56.100         71.67	     9.274
  56.120         39.17	     6.856
  56.140         41.67	     7.071
  56.160         45.00	     7.348
  56.180         48.33	     7.616
  56.200         65.83	     8.888
  56.220         73.33	     9.381
  56.240         58.33	     8.367
  56.260         36.67	     6.633
  56.280         45.00	     7.348
  56.300         38.33	     6.782
  56.320         34.17	     6.403
  56.340         36.67	     6.633
  56.360         37.50	     6.708
  56.380         34.17	     6.403
  56.400         38.33	     6.782
  56.420         39.17	     6.856
  56.440         36.67	     6.633
  56.460         38.33	     6.782
  56.480         39.17	     6.856
  56.500         46.67	     7.483
  56.520         34.17	     6.403
  56.540         43.33	     7.211
  56.560         45.00	     7.348
  56.580         34.17	     6.403
  56.600         36.67	     6.633
  56.620         47.50	     7.550
  56.640         42.50	     7.141
  56.660         43.33	     7.211
  56.680         38.33	     6.782
  56.700         39.17	     6.856
  56.720         41.67	     7.071
  56.740         46.67	     7.483
  56.760         45.00	     7.348
  56.780         33.33	     6.325
  56.800         27.50	     5.745
  56.820         39.17	     6.856
  56.840         36.67	     6.633
  56.860         44.17	     7.280
  56.880         42.50	     7.141
  56.900         50.83	     7.810
  56.920         40.00	     6.928
  56.940         36.67	     6.633
  56.960         40.83	     7.000
  56.980         31.67	     6.164
  57.000         38.33	     6.782
  57.020         47.50	     7.550
  57.040         31.67	     6.164
  57.060         34.17	     6.403
  57.080         38.33	     6.782
  57.100         37.50	     6.708
  57.120         43.33	     7.211
  57.140         46.67	     7.483
  57.160         54.17	     8.062
  57.180         45.83	     7.416
  57.200         45.83	     7.416
  57.220         42.50	     7.141
  57.240         30.83	     6.083
  57.260         31.67	     6.164
  57.280         36.67	     6.633
  57.300         37.50	     6.708
  57.320         40.83	     7.000
  57.340         40.83	     7.000
  57.360         35.83	     6.557
  57.380         29.17	     5.916
  57.400         40.00	     6.928
  57.420         37.50	     6.708
  57.440         35.00	     6.481
  57.460         49.17	     7.681
  57.480         61.67	     8.602
  57.500         60.00	     8.485
  57.520         63.33	     8.718
  57.540         43.33	     7.211
  57.560         40.83	     7.000
  57.580         40.83	     7.000
  57.600         43.33	     7.211
  57.620         50.83	     7.810
  57.640         45.00	     7.348
  57.660         53.33	     8.000
  57.680         55.83	     8.185
  57.700         30.00	     6.000
  57.720         44.17	     7.280
  57.740         30.83	     6.083
  57.760         36.67	     6.633
  57.780         38.33	     6.782
  57.800         43.33	     7.211
  57.820         32.50	     6.245
  57.840         31.67	     6.164
  57.860         38.33	     6.782
  57.880         33.33	     6.325
  57.900         40.83	     7.000
  57.920         36.67	     6.633
  57.940         40.00	     6.928
  57.960         41.67	     7.071
  57.980         29.17	     5.916
  58.000         34.17	     6.403
  58.020         27.50	     5.745
  58.040         35.83	     6.557
  58.060         43.33	     7.211
  58.080         46.67	     7.483
  58.100         30.00	     6.000
  58.120         36.67	     6.633
  58.140         39.17	     6.856
  58.160         41.67	     7.071
  58.180         41.67	     7.071
  58.200         39.17	     6.856
  58.220         35.83	     6.557
  58.240         50.00	     7.746
  58.260         40.00	     6.928
  58.280         33.33	     6.325
  58.300         48.33	     7.616
  58.320         40.83	     7.000
  58.340         43.33	     7.211
  58.360         47.50	     7.550
  58.380         48.33	     7.616
  58.400         49.17	     7.681
  58.420         77.50	     9.644
  58.440         55.00	     8.124
  58.460         55.83	     8.185
  58.480         57.50	     8.307
  58.500         56.67	     8.246
  58.520         50.83	     7.810
  58.540         53.33	     8.000
  58.560         55.00	     8.124
  58.580         54.17	     8.062
  58.600         56.67	     8.246
  58.620         43.33	     7.211
  58.640         51.67	     7.874
  58.660         56.67	     8.246
  58.680         56.67	     8.246
  58.700         54.17	     8.062
  58.720         50.00	     7.746
  58.740         58.33	     8.367
  58.760         45.83	     7.416
  58.780         37.50	     6.708
  58.800         50.83	     7.810
  58.820         52.50	     7.937
  58.840         45.83	     7.416
  58.860         50.83	     7.810
  58.880         45.83	     7.416
  58.900         40.83	     7.000
  58.920         56.67	     8.246
  58.940         39.17	     6.856
  58.960         46.67	     7.483
  58.980         46.67	     7.483
  59.000         54.17	     8.062
  59.020         46.67	     7.483
  59.040         64.17	     8.775
  59.060         54.17	     8.062
  59.080         73.33	     9.381
  59.100         56.67	     8.246
  59.120         69.17	     9.110
  59.140         62.50	     8.660
  59.160         51.67	     7.874
  59.180         62.50	     8.660
  59.200         41.67	     7.071
  59.220         50.83	     7.810
  59.240         51.67	     7.874
  59.260         44.17	     7.280
  59.280         41.67	     7.071
  59.300         39.17	     6.856
  59.320         37.50	     6.708
  59.340         55.83	     8.185
  59.360         41.67	     7.071
  59.380         49.17	     7.681
  59.400         36.67	     6.633
  59.420         52.50	     7.937
  59.440         44.17	     7.280
  59.460         49.17	     7.681
  59.480         50.00	     7.746
  59.500         51.67	     7.874
  59.520         40.00	     6.928
  59.540         46.67	     7.483
  59.560         43.33	     7.211
  59.580         45.00	     7.348
  59.600         47.50	     7.550
  59.620         46.67	     7.483
  59.640         45.83	     7.416
  59.660         39.17	     6.856
  59.680         44.17	     7.280
  59.700         48.33	     7.616
  59.720         70.00	     9.165
  59.740         72.50	     9.327
  59.760         87.50	    10.247
  59.780        105.00	    11.225
  59.800        102.50	    11.091
  59.820        143.33	    13.115
  59.840        173.33	    14.422
  59.860        226.67	    16.492
  59.880        232.50	    16.703
  59.900        230.00	    16.613
  59.920        165.83	    14.107
  59.940        146.67	    13.266
  59.960        100.83	    11.000
  59.980        112.50	    11.619
  60.000        118.33	    11.916
  60.020        130.83	    12.530
  60.040        165.83	    14.107
  60.060        142.50	    13.077
  60.080        136.67	    12.806
  60.100         91.67	    10.488
  60.120         69.17	     9.110
  60.140         78.33	     9.695
  60.160         50.83	     7.810
  60.180         52.50	     7.937
  60.200         39.17	     6.856
  60.220         59.17	     8.426
  60.240         58.33	     8.367
  60.260         50.83	     7.810
  60.280         47.50	     7.550
  60.300         53.33	     8.000
  60.320         50.83	     7.810
  60.340         66.67	     8.944
  60.360         47.50	     7.550
  60.380         50.83	     7.810
  60.400         58.33	     8.367
  60.420         53.33	     8.000
  60.440         45.83	     7.416
  60.460         47.50	     7.550
  60.480         38.33	     6.782
  60.500         56.67	     8.246
  60.520         54.17	     8.062
  60.540         53.33	     8.000
  60.560         59.17	     8.426
  60.580         47.50	     7.550
  60.600         47.50	     7.550
  60.620         50.00	     7.746
  60.640         40.83	     7.000
  60.660         57.50	     8.307
  60.680         52.50	     7.937
  60.700         50.00	     7.746
  60.720         55.00	     8.124
  60.740         60.00	     8.485
  60.760         60.00	     8.485
  60.780         64.17	     8.775
  60.800         58.33	     8.367
  60.820         64.17	     8.775
  60.840         54.17	     8.062
  60.860         58.33	     8.367
  60.880         58.33	     8.367
  60.900         60.83	     8.544
  60.920         61.67	     8.602
  60.940         55.83	     8.185
  60.960         60.83	     8.544
  60.980         53.33	     8.000
  61.000         50.83	     7.810
  61.020         40.83	     7.000
  61.040         58.33	     8.367
  61.060         49.17	     7.681
  61.080         52.50	     7.937
  61.100         53.33	     8.000
  61.120         40.83	     7.000
  61.140         38.33	     6.782
  61.160         46.67	     7.483
  61.180         48.33	     7.616
  61.200         50.83	     7.810
  61.220         37.50	     6.708
  61.240         50.83	     7.810
  61.260         43.33	     7.211
  61.280         51.67	     7.874
  61.300         61.67	     8.602
  61.320         60.00	     8.485
  61.340         68.33	     9.055
  61.360         57.50	     8.307
  61.380         58.33	     8.367
  61.400         77.50	     9.644
  61.420         55.83	     8.185
  61.440         77.50	     9.644
  61.460         69.17	     9.110
  61.480         65.83	     8.888
  61.500         64.17	     8.775
  61.520         77.50	     9.644
  61.540         84.17	    10.050
  61.560         65.00	     8.832
  61.580         71.67	     9.274
  61.600         71.67	     9.274
  61.620         75.83	     9.539
  61.640         63.33	     8.718
  61.660         84.17	    10.050
  61.680         78.33	     9.695
  61.700         73.33	     9.381
  61.720         68.33	     9.055
  61.740         63.33	     8.718
  61.760         62.50	     8.660
  61.780         60.83	     8.544
  61.800         90.83	    10.440
  61.820         63.33	     8.718
  61.840         64.17	     8.775
  61.860         54.17	     8.062
  61.880         57.50	     8.307
  61.900         70.00	     9.165
  61.920         45.83	     7.416
  61.940         54.17	     8.062
  61.960         54.17	     8.062
  61.980         45.00	     7.348
  62.000         42.50	     7.141
  62.020         55.00	     8.124
  62.040         49.17	     7.681
  62.060         40.83	     7.000
  62.080         47.50	     7.550
  62.100         45.83	     7.416
  62.120         56.67	     8.246
  62.140         41.67	     7.071
  62.160         45.83	     7.416
  62.180         46.67	     7.483
  62.200         39.17	     6.856
  62.220         34.17	     6.403
  62.240         32.50	     6.245
  62.260         35.83	     6.557
  62.280         40.00	     6.928
  62.300         40.00	     6.928
  62.320         37.50	     6.708
  62.340         41.67	     7.071
  62.360         40.00	     6.928
  62.380         36.67	     6.633
  62.400         30.00	     6.000
  62.420         25.83	     5.568
  62.440         46.67	     7.483
  62.460         52.50	     7.937
  62.480         45.83	     7.416
  62.500         47.50	     7.550
  62.520         45.83	     7.416
  62.540         55.00	     8.124
  62.560         49.17	     7.681
  62.580         60.00	     8.485
  62.600         50.00	     7.746
  62.620         39.17	     6.856
  62.640         46.67	     7.483
  62.660         50.00	     7.746
  62.680         36.67	     6.633
  62.700         35.83	     6.557
  62.720         40.00	     6.928
  62.740         37.50	     6.708
  62.760         45.00	     7.348
  62.780         40.83	     7.000
  62.800         35.83	     6.557
  62.820         42.50	     7.141
  62.840         44.17	     7.280
  62.860         50.83	     7.810
  62.880         32.50	     6.245
  62.900         33.33	     6.325
  62.920         37.50	     6.708
  62.940         40.00	     6.928
  62.960         32.50	     6.245
  62.980         37.50	     6.708
  63.000         37.50	     6.708
  63.020         37.50	     6.708
  63.040         35.83	     6.557
  63.060         39.17	     6.856
  63.080         28.33	     5.831
  63.100         40.00	     6.928
  63.120         39.17	     6.856
  63.140         53.33	     8.000
  63.160         40.83	     7.000
  63.180         34.17	     6.403
  63.200         35.00	     6.481
  63.220         37.50	     6.708
  63.240         42.50	     7.141
  63.260         41.67	     7.071
  63.280         40.00	     6.928
  63.300         49.17	     7.681
  63.320         38.33	     6.782
  63.340         40.00	     6.928
  63.360         38.33	     6.782
  63.380         44.17	     7.280
  63.400         39.17	     6.856
  63.420         49.17	     7.681
  63.440         46.67	     7.483
  63.460         49.17	     7.681
  63.480         46.67	     7.483
  63.500         57.50	     8.307
  63.520         43.33	     7.211
  63.540         43.33	     7.211
  63.560         42.50	     7.141
  63.580         50.00	     7.746
  63.600         59.17	     8.426
  63.620         55.00	     8.124
  63.640         54.17	     8.062
  63.660         55.83	     8.185
  63.680         48.33	     7.616
  63.700         43.33	     7.211
  63.720         48.33	     7.616
  63.740         40.83	     7.000
  63.760         46.67	     7.483
  63.780         52.50	     7.937
  63.800         36.67	     6.633
  63.820         49.17	     7.681
  63.840         56.67	     8.246
  63.860         55.00	     8.124
  63.880         60.83	     8.544
  63.900         80.00	     9.798
  63.920         91.67	    10.488
  63.940         90.00	    10.392
  63.960         90.00	    10.392
  63.980         90.83	    10.440
  64.000         72.50	     9.327
  64.020         72.50	     9.327
  64.040         65.00	     8.832
  64.060         66.67	     8.944
  64.080         66.67	     8.944
  64.100         70.83	     9.220
  64.120         74.17	     9.434
  64.140         82.50	     9.950
  64.160         72.50	     9.327
  64.180         60.83	     8.544
  64.200         49.17	     7.681
  64.220         56.67	     8.246
  64.240         65.83	     8.888
  64.260         55.00	     8.124
  64.280         56.67	     8.246
  64.300         60.00	     8.485
  64.320         40.00	     6.928
  64.340         30.00	     6.000
  64.360         41.67	     7.071
  64.380         56.67	     8.246
  64.400         49.17	     7.681
  64.420         52.50	     7.937
  64.440         47.50	     7.550
  64.460         50.00	     7.746
  64.480         44.17	     7.280
  64.500         37.50	     6.708
  64.520         40.83	     7.000
  64.540         54.17	     8.062
  64.560         62.50	     8.660
  64.580         58.33	     8.367
  64.600         50.00	     7.746
  64.620         70.83	     9.220
  64.640         61.67	     8.602
  64.660         54.17	     8.062
  64.680         55.83	     8.185
  64.700         50.00	     7.746
  64.720         70.83	     9.220
  64.740         56.67	     8.246
  64.760         53.33	     8.000
  64.780         49.17	     7.681
  64.800         54.17	     8.062
  64.820         50.00	     7.746
  64.840         48.33	     7.616
  64.860         47.50	     7.550
  64.880         57.50	     8.307
  64.900         50.83	     7.810
  64.920         60.00	     8.485
  64.940         55.83	     8.185
  64.960         54.17	     8.062
  64.980         60.00	     8.485
  65.000         65.83	     8.888
