
Filename:
	C:\Program Files\Thermo Electron\WinXRD\Datafiles\F_HERMAN\GEO\G59_RT.raw

File Created:
	February 19, 2020 - 10:54 PM

Specimen Id:
	G59_RT

Specimen Name:
	

Specimen Description:
	

Comment:
Scan Type: 2Theta Scan
Start Angle: 3 deg.
Stop Angle: 65 deg.
Num Points: 3101
Step Size: 0.02 deg.
Scan Rate: 1.000000
Scan Mode: Continuous
Wavelength: 1.540562
\Kalpha1: 1.540562	\Kalpha2: 1.544390	\Kbeta: 1.392218

Optics:
		Detector:
			 Type: Fixed Slits
		Tube: 
			 Type: Fixed Slits


Datas:
 Pos [deg]       Rate [CPS]      ESD [-]

Range 1 ---> Iteration 1
   3.000        408.33	    22.136
   3.020        457.50	    23.431
   3.040        420.00	    22.450
   3.060        413.33	    22.271
   3.080        445.83	    23.130
   3.100        399.17	    21.886
   3.120        402.50	    21.977
   3.140        386.67	    21.541
   3.160        389.17	    21.610
   3.180        407.50	    22.113
   3.200        422.50	    22.517
   3.220        393.33	    21.726
   3.240        396.67	    21.817
   3.260        401.67	    21.954
   3.280        382.50	    21.424
   3.300        375.83	    21.237
   3.320        393.33	    21.726
   3.340        378.33	    21.307
   3.360        350.00	    20.494
   3.380        311.67	    19.339
   3.400        360.00	    20.785
   3.420        370.83	    21.095
   3.440        358.33	    20.736
   3.460        357.50	    20.712
   3.480        364.17	    20.905
   3.500        359.17	    20.761
   3.520        361.67	    20.833
   3.540        350.00	    20.494
   3.560        352.50	    20.567
   3.580        354.17	    20.616
   3.600        354.17	    20.616
   3.620        329.17	    19.875
   3.640        361.67	    20.833
   3.660        374.17	    21.190
   3.680        323.33	    19.698
   3.700        353.33	    20.591
   3.720        315.00	    19.442
   3.740        325.83	    19.774
   3.760        328.33	    19.849
   3.780        327.50	    19.824
   3.800        364.17	    20.905
   3.820        339.17	    20.174
   3.840        331.67	    19.950
   3.860        316.67	    19.494
   3.880        337.50	    20.125
   3.900        322.50	    19.672
   3.920        342.50	    20.273
   3.940        315.00	    19.442
   3.960        305.00	    19.131
   3.980        325.83	    19.774
   4.000        331.67	    19.950
   4.020        305.00	    19.131
   4.040        300.83	    19.000
   4.060        296.67	    18.868
   4.080        325.00	    19.748
   4.100        315.00	    19.442
   4.120        294.17	    18.788
   4.140        280.00	    18.330
   4.160        319.17	    19.570
   4.180        299.17	    18.947
   4.200        303.33	    19.079
   4.220        301.67	    19.026
   4.240        280.00	    18.330
   4.260        319.17	    19.570
   4.280        328.33	    19.849
   4.300        299.17	    18.947
   4.320        286.67	    18.547
   4.340        329.17	    19.875
   4.360        288.33	    18.601
   4.380        285.83	    18.520
   4.400        297.50	    18.894
   4.420        304.17	    19.105
   4.440        290.00	    18.655
   4.460        285.83	    18.520
   4.480        271.67	    18.055
   4.500        298.33	    18.921
   4.520        285.00	    18.493
   4.540        265.83	    17.861
   4.560        305.00	    19.131
   4.580        241.67	    17.029
   4.600        255.00	    17.493
   4.620        298.33	    18.921
   4.640        279.17	    18.303
   4.660        287.50	    18.574
   4.680        270.00	    18.000
   4.700        291.67	    18.708
   4.720        251.67	    17.378
   4.740        267.50	    17.916
   4.760        253.33	    17.436
   4.780        251.67	    17.378
   4.800        250.00	    17.321
   4.820        276.67	    18.221
   4.840        267.50	    17.916
   4.860        275.83	    18.193
   4.880        244.17	    17.117
   4.900        221.67	    16.310
   4.920        255.83	    17.521
   4.940        250.00	    17.321
   4.960        254.17	    17.464
   4.980        255.83	    17.521
   5.000        260.83	    17.692
   5.020        250.00	    17.321
   5.040        263.33	    17.776
   5.060        257.50	    17.578
   5.080        250.00	    17.321
   5.100        259.17	    17.635
   5.120        249.17	    17.292
   5.140        223.33	    16.371
   5.160        240.83	    17.000
   5.180        205.83	    15.716
   5.200        234.17	    16.763
   5.220        230.00	    16.613
   5.240        239.17	    16.941
   5.260        242.50	    17.059
   5.280        223.33	    16.371
   5.300        246.67	    17.205
   5.320        217.50	    16.155
   5.340        220.83	    16.279
   5.360        235.83	    16.823
   5.380        203.33	    15.620
   5.400        215.83	    16.093
   5.420        181.67	    14.765
   5.440        214.17	    16.031
   5.460        248.33	    17.263
   5.480        200.83	    15.524
   5.500        205.00	    15.684
   5.520        219.17	    16.217
   5.540        231.67	    16.673
   5.560        232.50	    16.703
   5.580        205.83	    15.716
   5.600        213.33	    16.000
   5.620        211.67	    15.937
   5.640        201.67	    15.556
   5.660        222.50	    16.340
   5.680        233.33	    16.733
   5.700        215.00	    16.062
   5.720        223.33	    16.371
   5.740        212.50	    15.969
   5.760        223.33	    16.371
   5.780        204.17	    15.652
   5.800        195.00	    15.297
   5.820        244.17	    17.117
   5.840        228.33	    16.553
   5.860        191.67	    15.166
   5.880        213.33	    16.000
   5.900        205.00	    15.684
   5.920        211.67	    15.937
   5.940        218.33	    16.186
   5.960        186.67	    14.967
   5.980        197.50	    15.395
   6.000        220.83	    16.279
   6.020        215.83	    16.093
   6.040        221.67	    16.310
   6.060        214.17	    16.031
   6.080        222.50	    16.340
   6.100        225.00	    16.432
   6.120        214.17	    16.031
   6.140        227.50	    16.523
   6.160        210.00	    15.875
   6.180        224.17	    16.401
   6.200        188.33	    15.033
   6.220        204.17	    15.652
   6.240        194.17	    15.264
   6.260        193.33	    15.232
   6.280        196.67	    15.362
   6.300        187.50	    15.000
   6.320        201.67	    15.556
   6.340        187.50	    15.000
   6.360        200.00	    15.492
   6.380        181.67	    14.765
   6.400        185.83	    14.933
   6.420        183.33	    14.832
   6.440        169.17	    14.248
   6.460        188.33	    15.033
   6.480        163.33	    14.000
   6.500        187.50	    15.000
   6.520        205.83	    15.716
   6.540        188.33	    15.033
   6.560        171.67	    14.353
   6.580        185.00	    14.900
   6.600        207.50	    15.780
   6.620        175.00	    14.491
   6.640        180.83	    14.731
   6.660        171.67	    14.353
   6.680        160.83	    13.892
   6.700        181.67	    14.765
   6.720        173.33	    14.422
   6.740        188.33	    15.033
   6.760        185.83	    14.933
   6.780        192.50	    15.199
   6.800        159.17	    13.820
   6.820        180.83	    14.731
   6.840        189.17	    15.067
   6.860        190.83	    15.133
   6.880        171.67	    14.353
   6.900        151.67	    13.491
   6.920        167.50	    14.177
   6.940        160.00	    13.856
   6.960        184.17	    14.866
   6.980        175.83	    14.526
   7.000        187.50	    15.000
   7.020        185.00	    14.900
   7.040        183.33	    14.832
   7.060        190.00	    15.100
   7.080        165.83	    14.107
   7.100        140.83	    13.000
   7.120        172.50	    14.387
   7.140        168.33	    14.213
   7.160        169.17	    14.248
   7.180        165.83	    14.107
   7.200        178.33	    14.629
   7.220        161.67	    13.928
   7.240        168.33	    14.213
   7.260        185.83	    14.933
   7.280        162.50	    13.964
   7.300        174.17	    14.457
   7.320        171.67	    14.353
   7.340        184.17	    14.866
   7.360        165.83	    14.107
   7.380        162.50	    13.964
   7.400        169.17	    14.248
   7.420        172.50	    14.387
   7.440        159.17	    13.820
   7.460        184.17	    14.866
   7.480        160.00	    13.856
   7.500        159.17	    13.820
   7.520        168.33	    14.213
   7.540        162.50	    13.964
   7.560        159.17	    13.820
   7.580        145.00	    13.191
   7.600        145.00	    13.191
   7.620        181.67	    14.765
   7.640        168.33	    14.213
   7.660        165.83	    14.107
   7.680        155.00	    13.638
   7.700        168.33	    14.213
   7.720        155.00	    13.638
   7.740        137.50	    12.845
   7.760        152.50	    13.528
   7.780        161.67	    13.928
   7.800        160.83	    13.892
   7.820        165.83	    14.107
   7.840        135.83	    12.767
   7.860        166.67	    14.142
   7.880        145.83	    13.229
   7.900        150.83	    13.454
   7.920        157.50	    13.748
   7.940        151.67	    13.491
   7.960        155.83	    13.675
   7.980        140.83	    13.000
   8.000        147.50	    13.304
   8.020        150.00	    13.416
   8.040        155.00	    13.638
   8.060        128.33	    12.410
   8.080        140.83	    13.000
   8.100        127.50	    12.369
   8.120        146.67	    13.266
   8.140        135.83	    12.767
   8.160        116.67	    11.832
   8.180        141.67	    13.038
   8.200        154.17	    13.601
   8.220        169.17	    14.248
   8.240        150.00	    13.416
   8.260        153.33	    13.565
   8.280        146.67	    13.266
   8.300        140.83	    13.000
   8.320        146.67	    13.266
   8.340        156.67	    13.711
   8.360        147.50	    13.304
   8.380        159.17	    13.820
   8.400        131.67	    12.570
   8.420        122.50	    12.124
   8.440        146.67	    13.266
   8.460        131.67	    12.570
   8.480        150.83	    13.454
   8.500        165.00	    14.071
   8.520        150.83	    13.454
   8.540        146.67	    13.266
   8.560        165.83	    14.107
   8.580        188.33	    15.033
   8.600        170.83	    14.318
   8.620        175.00	    14.491
   8.640        190.83	    15.133
   8.660        217.50	    16.155
   8.680        285.83	    18.520
   8.700        304.17	    19.105
   8.720        250.00	    17.321
   8.740        202.50	    15.588
   8.760        265.00	    17.833
   8.780        316.67	    19.494
   8.800        341.67	    20.248
   8.820        267.50	    17.916
   8.840        175.00	    14.491
   8.860        163.33	    14.000
   8.880        165.00	    14.071
   8.900        134.17	    12.689
   8.920        141.67	    13.038
   8.940        119.17	    11.958
   8.960        143.33	    13.115
   8.980        119.17	    11.958
   9.000        129.17	    12.450
   9.020        141.67	    13.038
   9.040        133.33	    12.649
   9.060        128.33	    12.410
   9.080        120.83	    12.042
   9.100        151.67	    13.491
   9.120        130.00	    12.490
   9.140        131.67	    12.570
   9.160        130.83	    12.530
   9.180        137.50	    12.845
   9.200        139.17	    12.923
   9.220        119.17	    11.958
   9.240        130.00	    12.490
   9.260        128.33	    12.410
   9.280        104.17	    11.180
   9.300        135.83	    12.767
   9.320        134.17	    12.689
   9.340        125.00	    12.247
   9.360        128.33	    12.410
   9.380        122.50	    12.124
   9.400        123.33	    12.166
   9.420        120.00	    12.000
   9.440        122.50	    12.124
   9.460        139.17	    12.923
   9.480        120.00	    12.000
   9.500        123.33	    12.166
   9.520        117.50	    11.874
   9.540        111.67	    11.576
   9.560        108.33	    11.402
   9.580         98.33	    10.863
   9.600        121.67	    12.083
   9.620        104.17	    11.180
   9.640        109.17	    11.446
   9.660         97.50	    10.817
   9.680        135.00	    12.728
   9.700        118.33	    11.916
   9.720        131.67	    12.570
   9.740        121.67	    12.083
   9.760        120.83	    12.042
   9.780        125.83	    12.288
   9.800        110.83	    11.533
   9.820        117.50	    11.874
   9.840        118.33	    11.916
   9.860        124.17	    12.207
   9.880        128.33	    12.410
   9.900         98.33	    10.863
   9.920        120.83	    12.042
   9.940        120.83	    12.042
   9.960        121.67	    12.083
   9.980        120.00	    12.000
  10.000        113.33	    11.662
  10.020        121.67	    12.083
  10.040        110.83	    11.533
  10.060        121.67	    12.083
  10.080        123.33	    12.166
  10.100        124.17	    12.207
  10.120         99.17	    10.909
  10.140        112.50	    11.619
  10.160        116.67	    11.832
  10.180        114.17	    11.705
  10.200        120.00	    12.000
  10.220        108.33	    11.402
  10.240        123.33	    12.166
  10.260        108.33	    11.402
  10.280        107.50	    11.358
  10.300        103.33	    11.136
  10.320        119.17	    11.958
  10.340        120.00	    12.000
  10.360        115.83	    11.790
  10.380        120.00	    12.000
  10.400        170.83	    14.318
  10.420        161.67	    13.928
  10.440        220.00	    16.248
  10.460        253.33	    17.436
  10.480        262.50	    17.748
  10.500        178.33	    14.629
  10.520        127.50	    12.369
  10.540        120.00	    12.000
  10.560        102.50	    11.091
  10.580        102.50	    11.091
  10.600        115.00	    11.747
  10.620        114.17	    11.705
  10.640        100.83	    11.000
  10.660        125.83	    12.288
  10.680        106.67	    11.314
  10.700        105.00	    11.225
  10.720        110.83	    11.533
  10.740         99.17	    10.909
  10.760         91.67	    10.488
  10.780        109.17	    11.446
  10.800        104.17	    11.180
  10.820        110.83	    11.533
  10.840        110.83	    11.533
  10.860         91.67	    10.488
  10.880         96.67	    10.770
  10.900        108.33	    11.402
  10.920        114.17	    11.705
  10.940        100.00	    10.954
  10.960        108.33	    11.402
  10.980        123.33	    12.166
  11.000        106.67	    11.314
  11.020         95.00	    10.677
  11.040        118.33	    11.916
  11.060        110.83	    11.533
  11.080        117.50	    11.874
  11.100         97.50	    10.817
  11.120        101.67	    11.045
  11.140        107.50	    11.358
  11.160         94.17	    10.630
  11.180         81.67	     9.899
  11.200         84.17	    10.050
  11.220         94.17	    10.630
  11.240         97.50	    10.817
  11.260         80.83	     9.849
  11.280        109.17	    11.446
  11.300        110.00	    11.489
  11.320         98.33	    10.863
  11.340         96.67	    10.770
  11.360         93.33	    10.583
  11.380         95.00	    10.677
  11.400         93.33	    10.583
  11.420         95.83	    10.724
  11.440         99.17	    10.909
  11.460         96.67	    10.770
  11.480         98.33	    10.863
  11.500         87.50	    10.247
  11.520        110.83	    11.533
  11.540        102.50	    11.091
  11.560         90.00	    10.392
  11.580         88.33	    10.296
  11.600         97.50	    10.817
  11.620        108.33	    11.402
  11.640        110.83	    11.533
  11.660        114.17	    11.705
  11.680         90.83	    10.440
  11.700         95.83	    10.724
  11.720        104.17	    11.180
  11.740         86.67	    10.198
  11.760        107.50	    11.358
  11.780         96.67	    10.770
  11.800         90.00	    10.392
  11.820        106.67	    11.314
  11.840         93.33	    10.583
  11.860        117.50	    11.874
  11.880         93.33	    10.583
  11.900        121.67	    12.083
  11.920        105.83	    11.269
  11.940        115.83	    11.790
  11.960        139.17	    12.923
  11.980        120.00	    12.000
  12.000        111.67	    11.576
  12.020        135.00	    12.728
  12.040        170.83	    14.318
  12.060        225.83	    16.462
  12.080        265.83	    17.861
  12.100        404.17	    22.023
  12.120        435.00	    22.847
  12.140        335.83	    20.075
  12.160        239.17	    16.941
  12.180        161.67	    13.928
  12.200        132.50	    12.610
  12.220        139.17	    12.923
  12.240        154.17	    13.601
  12.260        150.00	    13.416
  12.280        135.00	    12.728
  12.300        169.17	    14.248
  12.320        133.33	    12.649
  12.340        163.33	    14.000
  12.360        152.50	    13.528
  12.380        183.33	    14.832
  12.400        196.67	    15.362
  12.420        192.50	    15.199
  12.440        180.00	    14.697
  12.460        126.67	    12.329
  12.480        109.17	    11.446
  12.500         97.50	    10.817
  12.520        109.17	    11.446
  12.540         99.17	    10.909
  12.560        100.83	    11.000
  12.580         90.83	    10.440
  12.600        104.17	    11.180
  12.620         85.00	    10.100
  12.640        107.50	    11.358
  12.660         88.33	    10.296
  12.680         87.50	    10.247
  12.700         96.67	    10.770
  12.720         97.50	    10.817
  12.740        100.00	    10.954
  12.760         96.67	    10.770
  12.780         89.17	    10.344
  12.800         96.67	    10.770
  12.820         75.00	     9.487
  12.840         96.67	    10.770
  12.860         81.67	     9.899
  12.880         85.00	    10.100
  12.900         87.50	    10.247
  12.920         77.50	     9.644
  12.940         77.50	     9.644
  12.960        107.50	    11.358
  12.980         90.00	    10.392
  13.000         94.17	    10.630
  13.020         81.67	     9.899
  13.040         87.50	    10.247
  13.060        106.67	    11.314
  13.080         83.33	    10.000
  13.100         90.00	    10.392
  13.120         88.33	    10.296
  13.140         92.50	    10.536
  13.160         96.67	    10.770
  13.180         96.67	    10.770
  13.200         79.17	     9.747
  13.220         87.50	    10.247
  13.240         80.00	     9.798
  13.260         80.83	     9.849
  13.280         79.17	     9.747
  13.300         82.50	     9.950
  13.320         93.33	    10.583
  13.340         85.00	    10.100
  13.360         85.83	    10.149
  13.380         88.33	    10.296
  13.400         76.67	     9.592
  13.420         81.67	     9.899
  13.440         88.33	    10.296
  13.460         93.33	    10.583
  13.480         94.17	    10.630
  13.500         95.00	    10.677
  13.520         86.67	    10.198
  13.540         90.00	    10.392
  13.560         97.50	    10.817
  13.580        117.50	    11.874
  13.600         90.83	    10.440
  13.620        100.00	    10.954
  13.640         86.67	    10.198
  13.660         90.83	    10.440
  13.680         78.33	     9.695
  13.700        100.83	    11.000
  13.720         92.50	    10.536
  13.740        108.33	    11.402
  13.760        104.17	    11.180
  13.780        100.83	    11.000
  13.800        110.00	    11.489
  13.820         86.67	    10.198
  13.840         90.00	    10.392
  13.860         95.83	    10.724
  13.880         97.50	    10.817
  13.900         79.17	     9.747
  13.920         94.17	    10.630
  13.940         83.33	    10.000
  13.960         83.33	    10.000
  13.980         94.17	    10.630
  14.000         76.67	     9.592
  14.020         71.67	     9.274
  14.040         83.33	    10.000
  14.060         86.67	    10.198
  14.080         82.50	     9.950
  14.100         81.67	     9.899
  14.120         82.50	     9.950
  14.140         72.50	     9.327
  14.160         79.17	     9.747
  14.180         87.50	    10.247
  14.200         60.83	     8.544
  14.220         80.83	     9.849
  14.240         93.33	    10.583
  14.260         90.00	    10.392
  14.280         90.83	    10.440
  14.300         92.50	    10.536
  14.320         81.67	     9.899
  14.340         72.50	     9.327
  14.360         73.33	     9.381
  14.380         81.67	     9.899
  14.400         89.17	    10.344
  14.420         99.17	    10.909
  14.440         76.67	     9.592
  14.460         92.50	    10.536
  14.480         71.67	     9.274
  14.500         82.50	     9.950
  14.520         86.67	    10.198
  14.540         85.83	    10.149
  14.560         64.17	     8.775
  14.580         69.17	     9.110
  14.600         83.33	    10.000
  14.620         88.33	    10.296
  14.640         85.00	    10.100
  14.660         70.00	     9.165
  14.680         78.33	     9.695
  14.700         72.50	     9.327
  14.720         80.00	     9.798
  14.740         75.83	     9.539
  14.760         83.33	    10.000
  14.780         63.33	     8.718
  14.800         91.67	    10.488
  14.820         87.50	    10.247
  14.840         78.33	     9.695
  14.860        102.50	    11.091
  14.880         92.50	    10.536
  14.900         69.17	     9.110
  14.920         95.83	    10.724
  14.940         85.00	    10.100
  14.960         85.83	    10.149
  14.980         70.83	     9.220
  15.000         72.50	     9.327
  15.020         74.17	     9.434
  15.040         79.17	     9.747
  15.060         69.17	     9.110
  15.080         85.00	    10.100
  15.100         80.00	     9.798
  15.120         75.83	     9.539
  15.140         77.50	     9.644
  15.160         66.67	     8.944
  15.180         75.00	     9.487
  15.200         70.00	     9.165
  15.220         73.33	     9.381
  15.240         78.33	     9.695
  15.260         70.00	     9.165
  15.280         87.50	    10.247
  15.300         74.17	     9.434
  15.320         67.50	     9.000
  15.340         59.17	     8.426
  15.360         59.17	     8.426
  15.380         73.33	     9.381
  15.400         79.17	     9.747
  15.420         92.50	    10.536
  15.440         67.50	     9.000
  15.460         80.83	     9.849
  15.480         69.17	     9.110
  15.500         73.33	     9.381
  15.520         77.50	     9.644
  15.540         84.17	    10.050
  15.560         61.67	     8.602
  15.580         62.50	     8.660
  15.600         87.50	    10.247
  15.620         65.83	     8.888
  15.640         79.17	     9.747
  15.660         75.00	     9.487
  15.680         81.67	     9.899
  15.700         71.67	     9.274
  15.720         78.33	     9.695
  15.740         91.67	    10.488
  15.760         75.00	     9.487
  15.780         62.50	     8.660
  15.800         75.00	     9.487
  15.820         72.50	     9.327
  15.840         66.67	     8.944
  15.860         65.83	     8.888
  15.880         77.50	     9.644
  15.900         79.17	     9.747
  15.920         75.00	     9.487
  15.940         74.17	     9.434
  15.960         71.67	     9.274
  15.980         80.00	     9.798
  16.000         70.83	     9.220
  16.020         78.33	     9.695
  16.040         69.17	     9.110
  16.060         78.33	     9.695
  16.080         70.00	     9.165
  16.100         67.50	     9.000
  16.120         58.33	     8.367
  16.140         82.50	     9.950
  16.160         84.17	    10.050
  16.180         86.67	    10.198
  16.200         58.33	     8.367
  16.220         81.67	     9.899
  16.240         74.17	     9.434
  16.260         68.33	     9.055
  16.280         76.67	     9.592
  16.300         71.67	     9.274
  16.320         62.50	     8.660
  16.340         72.50	     9.327
  16.360         75.00	     9.487
  16.380         59.17	     8.426
  16.400         85.00	    10.100
  16.420         67.50	     9.000
  16.440         64.17	     8.775
  16.460         71.67	     9.274
  16.480         64.17	     8.775
  16.500         63.33	     8.718
  16.520         60.83	     8.544
  16.540         74.17	     9.434
  16.560         76.67	     9.592
  16.580         65.83	     8.888
  16.600         65.83	     8.888
  16.620         60.83	     8.544
  16.640         75.00	     9.487
  16.660         71.67	     9.274
  16.680         70.00	     9.165
  16.700         50.83	     7.810
  16.720         73.33	     9.381
  16.740         72.50	     9.327
  16.760         76.67	     9.592
  16.780         64.17	     8.775
  16.800         79.17	     9.747
  16.820         56.67	     8.246
  16.840         64.17	     8.775
  16.860         47.50	     7.550
  16.880         63.33	     8.718
  16.900         70.00	     9.165
  16.920         68.33	     9.055
  16.940         79.17	     9.747
  16.960         58.33	     8.367
  16.980         66.67	     8.944
  17.000         65.00	     8.832
  17.020         60.83	     8.544
  17.040         64.17	     8.775
  17.060         67.50	     9.000
  17.080         70.83	     9.220
  17.100         71.67	     9.274
  17.120         71.67	     9.274
  17.140         66.67	     8.944
  17.160         66.67	     8.944
  17.180         67.50	     9.000
  17.200         65.00	     8.832
  17.220         72.50	     9.327
  17.240         88.33	    10.296
  17.260         70.83	     9.220
  17.280         87.50	    10.247
  17.300         76.67	     9.592
  17.320         70.83	     9.220
  17.340         60.83	     8.544
  17.360         76.67	     9.592
  17.380         70.83	     9.220
  17.400         64.17	     8.775
  17.420         66.67	     8.944
  17.440         65.83	     8.888
  17.460         73.33	     9.381
  17.480         79.17	     9.747
  17.500         60.83	     8.544
  17.520         74.17	     9.434
  17.540         71.67	     9.274
  17.560         96.67	    10.770
  17.580         72.50	     9.327
  17.600         87.50	    10.247
  17.620         72.50	     9.327
  17.640         76.67	     9.592
  17.660         95.83	    10.724
  17.680         85.00	    10.100
  17.700        115.00	    11.747
  17.720        120.83	    12.042
  17.740        125.00	    12.247
  17.760        125.83	    12.288
  17.780         94.17	    10.630
  17.800         93.33	    10.583
  17.820         70.00	     9.165
  17.840         76.67	     9.592
  17.860         75.83	     9.539
  17.880         55.00	     8.124
  17.900         66.67	     8.944
  17.920         66.67	     8.944
  17.940         74.17	     9.434
  17.960         67.50	     9.000
  17.980         58.33	     8.367
  18.000         63.33	     8.718
  18.020         66.67	     8.944
  18.040         66.67	     8.944
  18.060         55.83	     8.185
  18.080         55.83	     8.185
  18.100         65.00	     8.832
  18.120         68.33	     9.055
  18.140         70.00	     9.165
  18.160         71.67	     9.274
  18.180         58.33	     8.367
  18.200         65.83	     8.888
  18.220         57.50	     8.307
  18.240         65.00	     8.832
  18.260         62.50	     8.660
  18.280         71.67	     9.274
  18.300         75.83	     9.539
  18.320         71.67	     9.274
  18.340         79.17	     9.747
  18.360         71.67	     9.274
  18.380         80.00	     9.798
  18.400         55.00	     8.124
  18.420         61.67	     8.602
  18.440         60.00	     8.485
  18.460         85.83	    10.149
  18.480         86.67	    10.198
  18.500         76.67	     9.592
  18.520         73.33	     9.381
  18.540         63.33	     8.718
  18.560         73.33	     9.381
  18.580         70.83	     9.220
  18.600         75.00	     9.487
  18.620         77.50	     9.644
  18.640         93.33	    10.583
  18.660         80.00	     9.798
  18.680        106.67	    11.314
  18.700        100.83	    11.000
  18.720         90.00	    10.392
  18.740        115.83	    11.790
  18.760         81.67	     9.899
  18.780         82.50	     9.950
  18.800         76.67	     9.592
  18.820         76.67	     9.592
  18.840         66.67	     8.944
  18.860         73.33	     9.381
  18.880         67.50	     9.000
  18.900         66.67	     8.944
  18.920         77.50	     9.644
  18.940         64.17	     8.775
  18.960         58.33	     8.367
  18.980         69.17	     9.110
  19.000         69.17	     9.110
  19.020         59.17	     8.426
  19.040         72.50	     9.327
  19.060         67.50	     9.000
  19.080         60.00	     8.485
  19.100         88.33	    10.296
  19.120         75.00	     9.487
  19.140         78.33	     9.695
  19.160         74.17	     9.434
  19.180         65.83	     8.888
  19.200         75.83	     9.539
  19.220         83.33	    10.000
  19.240         80.00	     9.798
  19.260         89.17	    10.344
  19.280         73.33	     9.381
  19.300         85.00	    10.100
  19.320         61.67	     8.602
  19.340         77.50	     9.644
  19.360         64.17	     8.775
  19.380         62.50	     8.660
  19.400         75.00	     9.487
  19.420         71.67	     9.274
  19.440         72.50	     9.327
  19.460         70.83	     9.220
  19.480         68.33	     9.055
  19.500         72.50	     9.327
  19.520         88.33	    10.296
  19.540         76.67	     9.592
  19.560         71.67	     9.274
  19.580         65.83	     8.888
  19.600         75.00	     9.487
  19.620         80.00	     9.798
  19.640         86.67	    10.198
  19.660         78.33	     9.695
  19.680         87.50	    10.247
  19.700         85.83	    10.149
  19.720        100.00	    10.954
  19.740        101.67	    11.045
  19.760        102.50	    11.091
  19.780        107.50	    11.358
  19.800         93.33	    10.583
  19.820         79.17	     9.747
  19.840         75.83	     9.539
  19.860         66.67	     8.944
  19.880         75.83	     9.539
  19.900         83.33	    10.000
  19.920         72.50	     9.327
  19.940         75.83	     9.539
  19.960         79.17	     9.747
  19.980         71.67	     9.274
  20.000         72.50	     9.327
  20.020         80.00	     9.798
  20.040         69.17	     9.110
  20.060         72.50	     9.327
  20.080         62.50	     8.660
  20.100         73.33	     9.381
  20.120         60.00	     8.485
  20.140         53.33	     8.000
  20.160         65.83	     8.888
  20.180         50.00	     7.746
  20.200         69.17	     9.110
  20.220         72.50	     9.327
  20.240         65.83	     8.888
  20.260         69.17	     9.110
  20.280         55.83	     8.185
  20.300         68.33	     9.055
  20.320         51.67	     7.874
  20.340         66.67	     8.944
  20.360         61.67	     8.602
  20.380         59.17	     8.426
  20.400         68.33	     9.055
  20.420         55.00	     8.124
  20.440         66.67	     8.944
  20.460         68.33	     9.055
  20.480         78.33	     9.695
  20.500         70.00	     9.165
  20.520         69.17	     9.110
  20.540         80.00	     9.798
  20.560         80.00	     9.798
  20.580         73.33	     9.381
  20.600         85.83	    10.149
  20.620         94.17	    10.630
  20.640         71.67	     9.274
  20.660        104.17	    11.180
  20.680        140.83	    13.000
  20.700        162.50	    13.964
  20.720        244.17	    17.117
  20.740        313.33	    19.391
  20.760        379.17	    21.331
  20.780        342.50	    20.273
  20.800        265.00	    17.833
  20.820        207.50	    15.780
  20.840        163.33	    14.000
  20.860        127.50	    12.369
  20.880        114.17	    11.705
  20.900        106.67	    11.314
  20.920        105.00	    11.225
  20.940        100.00	    10.954
  20.960         98.33	    10.863
  20.980         85.83	    10.149
  21.000         84.17	    10.050
  21.020         76.67	     9.592
  21.040         73.33	     9.381
  21.060         69.17	     9.110
  21.080         84.17	    10.050
  21.100         72.50	     9.327
  21.120         71.67	     9.274
  21.140         70.00	     9.165
  21.160         51.67	     7.874
  21.180         62.50	     8.660
  21.200         55.83	     8.185
  21.220         65.83	     8.888
  21.240         67.50	     9.000
  21.260         54.17	     8.062
  21.280         63.33	     8.718
  21.300         65.00	     8.832
  21.320         65.00	     8.832
  21.340         59.17	     8.426
  21.360         60.00	     8.485
  21.380         65.00	     8.832
  21.400         66.67	     8.944
  21.420         75.83	     9.539
  21.440         51.67	     7.874
  21.460         69.17	     9.110
  21.480         73.33	     9.381
  21.500         76.67	     9.592
  21.520         73.33	     9.381
  21.540         60.83	     8.544
  21.560         60.83	     8.544
  21.580         65.83	     8.888
  21.600         62.50	     8.660
  21.620         60.00	     8.485
  21.640         55.83	     8.185
  21.660         67.50	     9.000
  21.680         59.17	     8.426
  21.700         57.50	     8.307
  21.720         65.83	     8.888
  21.740         75.83	     9.539
  21.760         61.67	     8.602
  21.780         58.33	     8.367
  21.800         77.50	     9.644
  21.820         70.00	     9.165
  21.840         80.83	     9.849
  21.860         90.00	    10.392
  21.880        110.83	    11.533
  21.900        125.00	    12.247
  21.920        131.67	    12.570
  21.940        140.00	    12.961
  21.960        149.17	    13.379
  21.980        112.50	    11.619
  22.000        121.67	    12.083
  22.020         93.33	    10.583
  22.040         77.50	     9.644
  22.060         70.83	     9.220
  22.080         71.67	     9.274
  22.100         58.33	     8.367
  22.120         69.17	     9.110
  22.140         56.67	     8.246
  22.160         71.67	     9.274
  22.180         63.33	     8.718
  22.200         80.83	     9.849
  22.220         70.00	     9.165
  22.240         80.00	     9.798
  22.260         62.50	     8.660
  22.280         75.83	     9.539
  22.300         68.33	     9.055
  22.320         61.67	     8.602
  22.340         69.17	     9.110
  22.360         65.00	     8.832
  22.380         61.67	     8.602
  22.400         79.17	     9.747
  22.420         81.67	     9.899
  22.440         80.00	     9.798
  22.460         65.83	     8.888
  22.480         70.00	     9.165
  22.500         61.67	     8.602
  22.520         59.17	     8.426
  22.540         70.00	     9.165
  22.560         63.33	     8.718
  22.580         65.83	     8.888
  22.600         53.33	     8.000
  22.620         55.00	     8.124
  22.640         56.67	     8.246
  22.660         57.50	     8.307
  22.680         66.67	     8.944
  22.700         60.00	     8.485
  22.720         67.50	     9.000
  22.740         81.67	     9.899
  22.760         77.50	     9.644
  22.780         63.33	     8.718
  22.800         65.00	     8.832
  22.820         81.67	     9.899
  22.840         70.00	     9.165
  22.860         72.50	     9.327
  22.880         88.33	    10.296
  22.900         78.33	     9.695
  22.920         73.33	     9.381
  22.940         91.67	    10.488
  22.960         76.67	     9.592
  22.980         72.50	     9.327
  23.000         84.17	    10.050
  23.020         60.83	     8.544
  23.040         71.67	     9.274
  23.060         60.83	     8.544
  23.080         75.00	     9.487
  23.100         49.17	     7.681
  23.120         57.50	     8.307
  23.140         65.83	     8.888
  23.160         60.00	     8.485
  23.180         65.83	     8.888
  23.200         57.50	     8.307
  23.220         63.33	     8.718
  23.240         54.17	     8.062
  23.260         55.83	     8.185
  23.280         62.50	     8.660
  23.300         72.50	     9.327
  23.320         61.67	     8.602
  23.340         75.00	     9.487
  23.360         76.67	     9.592
  23.380         89.17	    10.344
  23.400         95.00	    10.677
  23.420        124.17	    12.207
  23.440        118.33	    11.916
  23.460        115.83	    11.790
  23.480        126.67	    12.329
  23.500        104.17	    11.180
  23.520         97.50	    10.817
  23.540         86.67	    10.198
  23.560         88.33	    10.296
  23.580         70.83	     9.220
  23.600         65.00	     8.832
  23.620         65.83	     8.888
  23.640         71.67	     9.274
  23.660         78.33	     9.695
  23.680         83.33	    10.000
  23.700         84.17	    10.050
  23.720         68.33	     9.055
  23.740         75.00	     9.487
  23.760         84.17	    10.050
  23.780         75.83	     9.539
  23.800         74.17	     9.434
  23.820         76.67	     9.592
  23.840         71.67	     9.274
  23.860         67.50	     9.000
  23.880         63.33	     8.718
  23.900         73.33	     9.381
  23.920         84.17	    10.050
  23.940         60.00	     8.485
  23.960         76.67	     9.592
  23.980         67.50	     9.000
  24.000         70.83	     9.220
  24.020         85.83	    10.149
  24.040         75.83	     9.539
  24.060         84.17	    10.050
  24.080         89.17	    10.344
  24.100        100.00	    10.954
  24.120         99.17	    10.909
  24.140        102.50	    11.091
  24.160        111.67	    11.576
  24.180        119.17	    11.958
  24.200        110.83	    11.533
  24.220        107.50	    11.358
  24.240        105.00	    11.225
  24.260         95.83	    10.724
  24.280         90.00	    10.392
  24.300         78.33	     9.695
  24.320         75.83	     9.539
  24.340         75.00	     9.487
  24.360         74.17	     9.434
  24.380         60.83	     8.544
  24.400         82.50	     9.950
  24.420        119.17	    11.958
  24.440        126.67	    12.329
  24.460        153.33	    13.565
  24.480        195.83	    15.330
  24.500        174.17	    14.457
  24.520        189.17	    15.067
  24.540        203.33	    15.620
  24.560        175.83	    14.526
  24.580        137.50	    12.845
  24.600        113.33	    11.662
  24.620        131.67	    12.570
  24.640         91.67	    10.488
  24.660         89.17	    10.344
  24.680         88.33	    10.296
  24.700         67.50	     9.000
  24.720        100.00	    10.954
  24.740         75.83	     9.539
  24.760         92.50	    10.536
  24.780         96.67	    10.770
  24.800         94.17	    10.630
  24.820         78.33	     9.695
  24.840         78.33	     9.695
  24.860         80.83	     9.849
  24.880         93.33	    10.583
  24.900         80.00	     9.798
  24.920         60.00	     8.485
  24.940         85.00	    10.100
  24.960         78.33	     9.695
  24.980        106.67	    11.314
  25.000         97.50	    10.817
  25.020        122.50	    12.124
  25.040        145.00	    13.191
  25.060        141.67	    13.038
  25.080        144.17	    13.153
  25.100        134.17	    12.689
  25.120        113.33	    11.662
  25.140        110.00	    11.489
  25.160        107.50	    11.358
  25.180         85.00	    10.100
  25.200         73.33	     9.381
  25.220         95.00	    10.677
  25.240         85.00	    10.100
  25.260         72.50	     9.327
  25.280         95.83	    10.724
  25.300         95.00	    10.677
  25.320        105.83	    11.269
  25.340        112.50	    11.619
  25.360        110.83	    11.533
  25.380        115.00	    11.747
  25.400        118.33	    11.916
  25.420        127.50	    12.369
  25.440        128.33	    12.410
  25.460        120.00	    12.000
  25.480         95.00	    10.677
  25.500        116.67	    11.832
  25.520         89.17	    10.344
  25.540         99.17	    10.909
  25.560        111.67	    11.576
  25.580        115.00	    11.747
  25.600        101.67	    11.045
  25.620         96.67	    10.770
  25.640         91.67	    10.488
  25.660         70.00	     9.165
  25.680         78.33	     9.695
  25.700         62.50	     8.660
  25.720         58.33	     8.367
  25.740         60.83	     8.544
  25.760         67.50	     9.000
  25.780         48.33	     7.616
  25.800         65.00	     8.832
  25.820         60.83	     8.544
  25.840         56.67	     8.246
  25.860         58.33	     8.367
  25.880         54.17	     8.062
  25.900         65.83	     8.888
  25.920         62.50	     8.660
  25.940         68.33	     9.055
  25.960         52.50	     7.937
  25.980         66.67	     8.944
  26.000         61.67	     8.602
  26.020         63.33	     8.718
  26.040         72.50	     9.327
  26.060         60.00	     8.485
  26.080         64.17	     8.775
  26.100         70.00	     9.165
  26.120         60.00	     8.485
  26.140         85.00	    10.100
  26.160         72.50	     9.327
  26.180         88.33	    10.296
  26.200        115.00	    11.747
  26.220         89.17	    10.344
  26.240        112.50	    11.619
  26.260        105.83	    11.269
  26.280        125.00	    12.247
  26.300        135.83	    12.767
  26.320        181.67	    14.765
  26.340        185.00	    14.900
  26.360        172.50	    14.387
  26.380        196.67	    15.362
  26.400        245.00	    17.146
  26.420        227.50	    16.523
  26.440        273.33	    18.111
  26.460        383.33	    21.448
  26.480        550.00	    25.690
  26.500        677.50	    28.513
  26.520       1069.17	    35.819
  26.540       1482.50	    42.178
  26.560       1258.33	    38.859
  26.580        894.17	    32.757
  26.600        810.00	    31.177
  26.620        705.83	    29.103
  26.640        465.00	    23.622
  26.660        274.17	    18.138
  26.680        187.50	    15.000
  26.700        191.67	    15.166
  26.720        223.33	    16.371
  26.740        216.67	    16.125
  26.760        216.67	    16.125
  26.780        220.83	    16.279
  26.800        205.00	    15.684
  26.820        235.83	    16.823
  26.840        203.33	    15.620
  26.860        171.67	    14.353
  26.880        125.83	    12.288
  26.900        128.33	    12.410
  26.920         81.67	     9.899
  26.940        103.33	    11.136
  26.960        110.00	    11.489
  26.980        105.00	    11.225
  27.000        105.83	    11.269
  27.020         90.83	    10.440
  27.040         85.83	    10.149
  27.060         81.67	     9.899
  27.080         85.83	    10.149
  27.100         79.17	     9.747
  27.120         74.17	     9.434
  27.140         60.00	     8.485
  27.160         57.50	     8.307
  27.180         97.50	    10.817
  27.200         70.00	     9.165
  27.220         83.33	    10.000
  27.240         82.50	     9.950
  27.260         80.00	     9.798
  27.280         70.00	     9.165
  27.300         89.17	    10.344
  27.320         85.83	    10.149
  27.340        102.50	    11.091
  27.360        140.00	    12.961
  27.380        181.67	    14.765
  27.400        247.50	    17.234
  27.420        376.67	    21.260
  27.440        397.50	    21.840
  27.460        270.00	    18.000
  27.480        253.33	    17.436
  27.500        270.00	    18.000
  27.520        232.50	    16.703
  27.540        158.33	    13.784
  27.560        151.67	    13.491
  27.580        149.17	    13.379
  27.600        190.00	    15.100
  27.620        201.67	    15.556
  27.640        299.17	    18.947
  27.660        275.83	    18.193
  27.680        224.17	    16.401
  27.700        246.67	    17.205
  27.720        231.67	    16.673
  27.740        187.50	    15.000
  27.760        177.50	    14.595
  27.780        230.00	    16.613
  27.800        255.00	    17.493
  27.820        234.17	    16.763
  27.840        250.00	    17.321
  27.860        245.83	    17.176
  27.880        253.33	    17.436
  27.900        212.50	    15.969
  27.920        194.17	    15.264
  27.940        160.83	    13.892
  27.960        125.00	    12.247
  27.980        118.33	    11.916
  28.000        132.50	    12.610
  28.020        139.17	    12.923
  28.040        120.00	    12.000
  28.060        130.83	    12.530
  28.080        127.50	    12.369
  28.100        109.17	    11.446
  28.120        103.33	    11.136
  28.140        104.17	    11.180
  28.160         96.67	    10.770
  28.180        106.67	    11.314
  28.200        109.17	    11.446
  28.220        106.67	    11.314
  28.240         90.83	    10.440
  28.260         91.67	    10.488
  28.280         83.33	    10.000
  28.300         77.50	     9.644
  28.320         75.83	     9.539
  28.340         57.50	     8.307
  28.360         70.83	     9.220
  28.380         73.33	     9.381
  28.400         60.83	     8.544
  28.420         71.67	     9.274
  28.440         69.17	     9.110
  28.460        105.00	    11.225
  28.480        115.83	    11.790
  28.500        117.50	    11.874
  28.520        103.33	    11.136
  28.540        108.33	    11.402
  28.560        114.17	    11.705
  28.580         96.67	    10.770
  28.600         82.50	     9.950
  28.620         54.17	     8.062
  28.640         73.33	     9.381
  28.660         67.50	     9.000
  28.680         58.33	     8.367
  28.700         58.33	     8.367
  28.720         56.67	     8.246
  28.740         53.33	     8.000
  28.760         45.83	     7.416
  28.780         50.83	     7.810
  28.800         50.00	     7.746
  28.820         43.33	     7.211
  28.840         63.33	     8.718
  28.860         66.67	     8.944
  28.880         53.33	     8.000
  28.900         43.33	     7.211
  28.920         43.33	     7.211
  28.940         54.17	     8.062
  28.960         49.17	     7.681
  28.980         53.33	     8.000
  29.000         56.67	     8.246
  29.020         55.83	     8.185
  29.040         51.67	     7.874
  29.060         46.67	     7.483
  29.080         54.17	     8.062
  29.100         55.83	     8.185
  29.120         49.17	     7.681
  29.140         35.00	     6.481
  29.160         52.50	     7.937
  29.180         40.83	     7.000
  29.200         56.67	     8.246
  29.220         44.17	     7.280
  29.240         40.83	     7.000
  29.260         49.17	     7.681
  29.280         53.33	     8.000
  29.300         50.00	     7.746
  29.320         36.67	     6.633
  29.340         42.50	     7.141
  29.360         55.83	     8.185
  29.380         66.67	     8.944
  29.400         58.33	     8.367
  29.420         60.00	     8.485
  29.440         53.33	     8.000
  29.460         47.50	     7.550
  29.480         58.33	     8.367
  29.500         55.00	     8.124
  29.520         68.33	     9.055
  29.540         65.00	     8.832
  29.560         60.83	     8.544
  29.580         70.83	     9.220
  29.600         80.00	     9.798
  29.620         72.50	     9.327
  29.640         70.00	     9.165
  29.660         70.00	     9.165
  29.680         80.83	     9.849
  29.700        105.00	    11.225
  29.720         96.67	    10.770
  29.740        110.83	    11.533
  29.760         93.33	    10.583
  29.780        107.50	    11.358
  29.800         91.67	    10.488
  29.820         99.17	    10.909
  29.840         80.00	     9.798
  29.860         85.00	    10.100
  29.880         70.83	     9.220
  29.900         61.67	     8.602
  29.920         78.33	     9.695
  29.940         78.33	     9.695
  29.960         79.17	     9.747
  29.980         87.50	    10.247
  30.000         80.83	     9.849
  30.020         70.00	     9.165
  30.040         85.83	    10.149
  30.060         74.17	     9.434
  30.080         67.50	     9.000
  30.100         76.67	     9.592
  30.120         67.50	     9.000
  30.140         82.50	     9.950
  30.160         78.33	     9.695
  30.180         80.00	     9.798
  30.200         80.00	     9.798
  30.220         75.83	     9.539
  30.240         80.83	     9.849
  30.260         72.50	     9.327
  30.280         90.00	    10.392
  30.300         80.00	     9.798
  30.320         96.67	    10.770
  30.340         98.33	    10.863
  30.360        100.00	    10.954
  30.380         94.17	    10.630
  30.400         98.33	    10.863
  30.420        100.83	    11.000
  30.440         85.00	    10.100
  30.460         79.17	     9.747
  30.480         61.67	     8.602
  30.500         77.50	     9.644
  30.520         58.33	     8.367
  30.540         53.33	     8.000
  30.560         57.50	     8.307
  30.580         45.00	     7.348
  30.600         55.83	     8.185
  30.620         61.67	     8.602
  30.640         52.50	     7.937
  30.660         66.67	     8.944
  30.680         65.00	     8.832
  30.700         65.00	     8.832
  30.720         73.33	     9.381
  30.740         67.50	     9.000
  30.760         55.00	     8.124
  30.780         60.83	     8.544
  30.800         47.50	     7.550
  30.820         50.83	     7.810
  30.840         54.17	     8.062
  30.860         50.00	     7.746
  30.880         52.50	     7.937
  30.900         45.00	     7.348
  30.920         57.50	     8.307
  30.940         54.17	     8.062
  30.960         63.33	     8.718
  30.980         59.17	     8.426
  31.000         55.83	     8.185
  31.020         65.00	     8.832
  31.040         64.17	     8.775
  31.060         70.00	     9.165
  31.080         66.67	     8.944
  31.100         74.17	     9.434
  31.120         80.00	     9.798
  31.140         70.00	     9.165
  31.160         75.00	     9.487
  31.180         77.50	     9.644
  31.200         74.17	     9.434
  31.220         83.33	    10.000
  31.240         60.83	     8.544
  31.260         67.50	     9.000
  31.280         51.67	     7.874
  31.300         62.50	     8.660
  31.320         56.67	     8.246
  31.340         56.67	     8.246
  31.360         58.33	     8.367
  31.380         65.00	     8.832
  31.400         45.83	     7.416
  31.420         48.33	     7.616
  31.440         49.17	     7.681
  31.460         59.17	     8.426
  31.480         65.00	     8.832
  31.500         41.67	     7.071
  31.520         50.00	     7.746
  31.540         45.83	     7.416
  31.560         55.83	     8.185
  31.580         47.50	     7.550
  31.600         51.67	     7.874
  31.620         38.33	     6.782
  31.640         58.33	     8.367
  31.660         50.00	     7.746
  31.680         48.33	     7.616
  31.700         45.83	     7.416
  31.720         49.17	     7.681
  31.740         60.00	     8.485
  31.760         60.00	     8.485
  31.780         60.83	     8.544
  31.800         66.67	     8.944
  31.820         58.33	     8.367
  31.840         53.33	     8.000
  31.860         64.17	     8.775
  31.880         75.83	     9.539
  31.900         62.50	     8.660
  31.920         66.67	     8.944
  31.940         75.00	     9.487
  31.960         67.50	     9.000
  31.980         80.00	     9.798
  32.000         69.17	     9.110
  32.020         70.83	     9.220
  32.040         83.33	    10.000
  32.060         71.67	     9.274
  32.080         55.83	     8.185
  32.100         63.33	     8.718
  32.120         63.33	     8.718
  32.140         54.17	     8.062
  32.160         69.17	     9.110
  32.180         58.33	     8.367
  32.200         77.50	     9.644
  32.220         66.67	     8.944
  32.240         57.50	     8.307
  32.260         55.00	     8.124
  32.280         56.67	     8.246
  32.300         60.83	     8.544
  32.320         48.33	     7.616
  32.340         48.33	     7.616
  32.360         42.50	     7.141
  32.380         56.67	     8.246
  32.400         51.67	     7.874
  32.420         41.67	     7.071
  32.440         43.33	     7.211
  32.460         37.50	     6.708
  32.480         35.83	     6.557
  32.500         30.00	     6.000
  32.520         35.83	     6.557
  32.540         50.83	     7.810
  32.560         40.83	     7.000
  32.580         39.17	     6.856
  32.600         35.83	     6.557
  32.620         40.83	     7.000
  32.640         49.17	     7.681
  32.660         46.67	     7.483
  32.680         41.67	     7.071
  32.700         45.83	     7.416
  32.720         35.83	     6.557
  32.740         45.00	     7.348
  32.760         45.83	     7.416
  32.780         44.17	     7.280
  32.800         50.00	     7.746
  32.820         53.33	     8.000
  32.840         52.50	     7.937
  32.860         45.00	     7.348
  32.880         46.67	     7.483
  32.900         53.33	     8.000
  32.920         65.00	     8.832
  32.940         71.67	     9.274
  32.960         77.50	     9.644
  32.980         80.83	     9.849
  33.000         87.50	    10.247
  33.020         67.50	     9.000
  33.040         66.67	     8.944
  33.060         58.33	     8.367
  33.080         53.33	     8.000
  33.100         56.67	     8.246
  33.120         60.83	     8.544
  33.140         43.33	     7.211
  33.160         46.67	     7.483
  33.180         45.00	     7.348
  33.200         55.00	     8.124
  33.220         52.50	     7.937
  33.240         59.17	     8.426
  33.260         45.00	     7.348
  33.280         55.00	     8.124
  33.300         35.83	     6.557
  33.320         45.83	     7.416
  33.340         46.67	     7.483
  33.360         40.83	     7.000
  33.380         39.17	     6.856
  33.400         55.83	     8.185
  33.420         63.33	     8.718
  33.440         45.83	     7.416
  33.460         55.00	     8.124
  33.480         56.67	     8.246
  33.500         59.17	     8.426
  33.520         49.17	     7.681
  33.540         45.83	     7.416
  33.560         49.17	     7.681
  33.580         49.17	     7.681
  33.600         42.50	     7.141
  33.620         37.50	     6.708
  33.640         40.83	     7.000
  33.660         52.50	     7.937
  33.680         56.67	     8.246
  33.700         44.17	     7.280
  33.720         57.50	     8.307
  33.740         45.83	     7.416
  33.760         51.67	     7.874
  33.780         52.50	     7.937
  33.800         67.50	     9.000
  33.820         70.00	     9.165
  33.840        112.50	    11.619
  33.860        130.00	    12.490
  33.880        112.50	    11.619
  33.900         85.83	    10.149
  33.920         71.67	     9.274
  33.940        103.33	    11.136
  33.960         91.67	    10.488
  33.980         61.67	     8.602
  34.000         64.17	     8.775
  34.020         54.17	     8.062
  34.040         57.50	     8.307
  34.060         65.00	     8.832
  34.080         56.67	     8.246
  34.100         46.67	     7.483
  34.120         45.00	     7.348
  34.140         70.00	     9.165
  34.160         50.83	     7.810
  34.180         55.83	     8.185
  34.200         56.67	     8.246
  34.220         61.67	     8.602
  34.240         55.00	     8.124
  34.260         65.00	     8.832
  34.280         60.83	     8.544
  34.300         69.17	     9.110
  34.320         64.17	     8.775
  34.340         81.67	     9.899
  34.360         96.67	    10.770
  34.380         65.83	     8.888
  34.400         86.67	    10.198
  34.420         89.17	    10.344
  34.440         91.67	    10.488
  34.460         89.17	    10.344
  34.480         79.17	     9.747
  34.500         95.00	    10.677
  34.520         95.00	    10.677
  34.540         97.50	    10.817
  34.560         80.00	     9.798
  34.580         85.83	    10.149
  34.600         75.00	     9.487
  34.620         96.67	    10.770
  34.640         65.83	     8.888
  34.660         89.17	    10.344
  34.680         85.83	    10.149
  34.700         90.83	    10.440
  34.720        104.17	    11.180
  34.740        111.67	    11.576
  34.760        154.17	    13.601
  34.780        132.50	    12.610
  34.800        123.33	    12.166
  34.820        141.67	    13.038
  34.840        154.17	    13.601
  34.860        137.50	    12.845
  34.880        119.17	    11.958
  34.900        120.00	    12.000
  34.920        100.83	    11.000
  34.940        105.83	    11.269
  34.960        109.17	    11.446
  34.980         76.67	     9.592
  35.000         85.00	    10.100
  35.020         86.67	    10.198
  35.040         77.50	     9.644
  35.060         92.50	    10.536
  35.080         71.67	     9.274
  35.100         72.50	     9.327
  35.120         81.67	     9.899
  35.140         83.33	    10.000
  35.160         72.50	     9.327
  35.180         87.50	    10.247
  35.200         85.83	    10.149
  35.220         76.67	     9.592
  35.240         79.17	     9.747
  35.260         80.00	     9.798
  35.280         94.17	    10.630
  35.300         70.83	     9.220
  35.320         79.17	     9.747
  35.340         80.00	     9.798
  35.360         91.67	    10.488
  35.380        106.67	    11.314
  35.400        120.83	    12.042
  35.420        142.50	    13.077
  35.440        140.83	    13.000
  35.460        131.67	    12.570
  35.480        127.50	    12.369
  35.500        144.17	    13.153
  35.520        130.00	    12.490
  35.540         98.33	    10.863
  35.560        103.33	    11.136
  35.580         72.50	     9.327
  35.600         69.17	     9.110
  35.620         69.17	     9.110
  35.640         67.50	     9.000
  35.660         49.17	     7.681
  35.680         55.83	     8.185
  35.700         66.67	     8.944
  35.720         65.00	     8.832
  35.740         67.50	     9.000
  35.760         60.00	     8.485
  35.780         71.67	     9.274
  35.800         68.33	     9.055
  35.820         60.83	     8.544
  35.840         51.67	     7.874
  35.860         68.33	     9.055
  35.880         73.33	     9.381
  35.900         69.17	     9.110
  35.920         64.17	     8.775
  35.940         73.33	     9.381
  35.960         50.83	     7.810
  35.980         61.67	     8.602
  36.000         57.50	     8.307
  36.020         56.67	     8.246
  36.040         55.83	     8.185
  36.060         42.50	     7.141
  36.080         58.33	     8.367
  36.100         51.67	     7.874
  36.120         55.00	     8.124
  36.140         65.83	     8.888
  36.160         53.33	     8.000
  36.180         54.17	     8.062
  36.200         51.67	     7.874
  36.220         63.33	     8.718
  36.240         57.50	     8.307
  36.260         59.17	     8.426
  36.280         80.00	     9.798
  36.300         57.50	     8.307
  36.320         76.67	     9.592
  36.340        107.50	    11.358
  36.360         95.83	    10.724
  36.380        110.00	    11.489
  36.400        140.00	    12.961
  36.420        204.17	    15.652
  36.440        273.33	    18.111
  36.460        317.50	    19.519
  36.480        267.50	    17.916
  36.500        195.00	    15.297
  36.520        175.83	    14.526
  36.540        230.83	    16.643
  36.560        196.67	    15.362
  36.580        161.67	    13.928
  36.600        110.00	    11.489
  36.620         85.83	    10.149
  36.640         83.33	    10.000
  36.660         88.33	    10.296
  36.680         82.50	     9.950
  36.700         75.83	     9.539
  36.720         56.67	     8.246
  36.740         65.83	     8.888
  36.760         70.83	     9.220
  36.780         65.00	     8.832
  36.800         75.00	     9.487
  36.820         50.83	     7.810
  36.840         44.17	     7.280
  36.860         69.17	     9.110
  36.880         59.17	     8.426
  36.900         56.67	     8.246
  36.920         55.83	     8.185
  36.940         50.00	     7.746
  36.960         64.17	     8.775
  36.980         50.83	     7.810
  37.000         54.17	     8.062
  37.020         54.17	     8.062
  37.040         66.67	     8.944
  37.060         54.17	     8.062
  37.080         50.83	     7.810
  37.100         60.83	     8.544
  37.120         53.33	     8.000
  37.140         55.83	     8.185
  37.160         55.00	     8.124
  37.180         62.50	     8.660
  37.200         60.00	     8.485
  37.220         53.33	     8.000
  37.240         55.83	     8.185
  37.260         78.33	     9.695
  37.280         66.67	     8.944
  37.300         52.50	     7.937
  37.320         61.67	     8.602
  37.340         70.83	     9.220
  37.360         75.83	     9.539
  37.380         71.67	     9.274
  37.400         65.83	     8.888
  37.420         61.67	     8.602
  37.440         72.50	     9.327
  37.460         65.00	     8.832
  37.480         61.67	     8.602
  37.500         66.67	     8.944
  37.520         79.17	     9.747
  37.540         62.50	     8.660
  37.560         99.17	    10.909
  37.580         80.83	     9.849
  37.600         70.83	     9.220
  37.620         75.83	     9.539
  37.640         74.17	     9.434
  37.660         72.50	     9.327
  37.680         65.83	     8.888
  37.700         53.33	     8.000
  37.720         55.00	     8.124
  37.740         54.17	     8.062
  37.760         39.17	     6.856
  37.780         58.33	     8.367
  37.800         50.83	     7.810
  37.820         47.50	     7.550
  37.840         40.00	     6.928
  37.860         48.33	     7.616
  37.880         40.83	     7.000
  37.900         30.83	     6.083
  37.920         35.00	     6.481
  37.940         31.67	     6.164
  37.960         46.67	     7.483
  37.980         34.17	     6.403
  38.000         45.83	     7.416
  38.020         33.33	     6.325
  38.040         35.00	     6.481
  38.060         34.17	     6.403
  38.080         43.33	     7.211
  38.100         41.67	     7.071
  38.120         51.67	     7.874
  38.140         49.17	     7.681
  38.160         36.67	     6.633
  38.180         32.50	     6.245
  38.200         29.17	     5.916
  38.220         40.83	     7.000
  38.240         42.50	     7.141
  38.260         38.33	     6.782
  38.280         37.50	     6.708
  38.300         30.00	     6.000
  38.320         38.33	     6.782
  38.340         34.17	     6.403
  38.360         40.83	     7.000
  38.380         38.33	     6.782
  38.400         44.17	     7.280
  38.420         47.50	     7.550
  38.440         40.83	     7.000
  38.460         50.83	     7.810
  38.480         44.17	     7.280
  38.500         55.83	     8.185
  38.520         57.50	     8.307
  38.540         43.33	     7.211
  38.560         54.17	     8.062
  38.580         45.00	     7.348
  38.600         39.17	     6.856
  38.620         43.33	     7.211
  38.640         40.83	     7.000
  38.660         56.67	     8.246
  38.680         56.67	     8.246
  38.700         57.50	     8.307
  38.720         68.33	     9.055
  38.740         66.67	     8.944
  38.760         50.83	     7.810
  38.780         57.50	     8.307
  38.800         57.50	     8.307
  38.820         40.83	     7.000
  38.840         55.00	     8.124
  38.860         45.00	     7.348
  38.880         41.67	     7.071
  38.900         47.50	     7.550
  38.920         44.17	     7.280
  38.940         48.33	     7.616
  38.960         45.83	     7.416
  38.980         53.33	     8.000
  39.000         51.67	     7.874
  39.020         46.67	     7.483
  39.040         63.33	     8.718
  39.060         58.33	     8.367
  39.080         40.00	     6.928
  39.100         65.00	     8.832
  39.120         41.67	     7.071
  39.140         57.50	     8.307
  39.160         47.50	     7.550
  39.180         60.83	     8.544
  39.200         62.50	     8.660
  39.220         61.67	     8.602
  39.240         67.50	     9.000
  39.260         67.50	     9.000
  39.280         64.17	     8.775
  39.300        103.33	    11.136
  39.320        113.33	    11.662
  39.340        145.00	    13.191
  39.360        161.67	    13.928
  39.380        206.67	    15.748
  39.400        184.17	    14.866
  39.420        162.50	    13.964
  39.440        128.33	    12.410
  39.460        143.33	    13.115
  39.480        115.83	    11.790
  39.500        138.33	    12.884
  39.520         94.17	    10.630
  39.540         59.17	     8.426
  39.560         73.33	     9.381
  39.580         65.83	     8.888
  39.600         51.67	     7.874
  39.620         69.17	     9.110
  39.640         63.33	     8.718
  39.660         70.83	     9.220
  39.680         64.17	     8.775
  39.700         66.67	     8.944
  39.720         66.67	     8.944
  39.740         40.83	     7.000
  39.760         55.00	     8.124
  39.780         69.17	     9.110
  39.800         55.83	     8.185
  39.820         52.50	     7.937
  39.840         53.33	     8.000
  39.860         35.83	     6.557
  39.880         62.50	     8.660
  39.900         53.33	     8.000
  39.920         54.17	     8.062
  39.940         50.00	     7.746
  39.960         51.67	     7.874
  39.980         50.83	     7.810
  40.000         50.83	     7.810
  40.020         49.17	     7.681
  40.040         46.67	     7.483
  40.060         39.17	     6.856
  40.080         46.67	     7.483
  40.100         64.17	     8.775
  40.120         58.33	     8.367
  40.140         75.00	     9.487
  40.160         76.67	     9.592
  40.180        115.00	    11.747
  40.200        124.17	    12.207
  40.220         86.67	    10.198
  40.240         65.83	     8.888
  40.260         84.17	    10.050
  40.280         80.83	     9.849
  40.300         63.33	     8.718
  40.320         80.83	     9.849
  40.340         62.50	     8.660
  40.360         50.00	     7.746
  40.380         48.33	     7.616
  40.400         42.50	     7.141
  40.420         37.50	     6.708
  40.440         60.00	     8.485
  40.460         51.67	     7.874
  40.480         45.00	     7.348
  40.500         44.17	     7.280
  40.520         47.50	     7.550
  40.540         47.50	     7.550
  40.560         50.00	     7.746
  40.580         53.33	     8.000
  40.600         36.67	     6.633
  40.620         43.33	     7.211
  40.640         50.83	     7.810
  40.660         45.83	     7.416
  40.680         55.83	     8.185
  40.700         43.33	     7.211
  40.720         45.00	     7.348
  40.740         45.83	     7.416
  40.760         63.33	     8.718
  40.780         44.17	     7.280
  40.800         50.83	     7.810
  40.820         58.33	     8.367
  40.840         60.00	     8.485
  40.860         40.00	     6.928
  40.880         34.17	     6.403
  40.900         50.83	     7.810
  40.920         51.67	     7.874
  40.940         45.83	     7.416
  40.960         44.17	     7.280
  40.980         58.33	     8.367
  41.000         50.83	     7.810
  41.020         50.83	     7.810
  41.040         45.83	     7.416
  41.060         60.00	     8.485
  41.080         54.17	     8.062
  41.100         59.17	     8.426
  41.120         50.83	     7.810
  41.140         57.50	     8.307
  41.160         55.83	     8.185
  41.180         58.33	     8.367
  41.200         50.00	     7.746
  41.220         55.83	     8.185
  41.240         50.00	     7.746
  41.260         51.67	     7.874
  41.280         63.33	     8.718
  41.300         59.17	     8.426
  41.320         47.50	     7.550
  41.340         46.67	     7.483
  41.360         65.83	     8.888
  41.380         50.83	     7.810
  41.400         60.83	     8.544
  41.420         50.00	     7.746
  41.440         42.50	     7.141
  41.460         76.67	     9.592
  41.480         71.67	     9.274
  41.500         60.83	     8.544
  41.520         61.67	     8.602
  41.540         71.67	     9.274
  41.560         90.00	    10.392
  41.580         92.50	    10.536
  41.600        103.33	    11.136
  41.620        117.50	    11.874
  41.640        148.33	    13.342
  41.660        115.00	    11.747
  41.680         87.50	    10.247
  41.700         70.00	     9.165
  41.720         96.67	    10.770
  41.740         89.17	    10.344
  41.760         96.67	    10.770
  41.780         82.50	     9.950
  41.800         75.83	     9.539
  41.820         89.17	    10.344
  41.840         70.00	     9.165
  41.860         65.83	     8.888
  41.880         70.83	     9.220
  41.900         70.00	     9.165
  41.920         63.33	     8.718
  41.940         63.33	     8.718
  41.960         65.83	     8.888
  41.980         54.17	     8.062
  42.000         65.83	     8.888
  42.020         61.67	     8.602
  42.040         61.67	     8.602
  42.060         59.17	     8.426
  42.080         55.00	     8.124
  42.100         63.33	     8.718
  42.120         55.83	     8.185
  42.140         71.67	     9.274
  42.160         65.83	     8.888
  42.180         66.67	     8.944
  42.200         63.33	     8.718
  42.220         81.67	     9.899
  42.240         82.50	     9.950
  42.260         99.17	    10.909
  42.280         80.00	     9.798
  42.300         96.67	    10.770
  42.320        147.50	    13.304
  42.340        155.00	    13.638
  42.360        174.17	    14.457
  42.380        139.17	    12.923
  42.400        115.00	    11.747
  42.420         99.17	    10.909
  42.440        105.83	    11.269
  42.460        136.67	    12.806
  42.480        130.83	    12.530
  42.500        120.00	    12.000
  42.520         91.67	    10.488
  42.540         67.50	     9.000
  42.560         78.33	     9.695
  42.580         79.17	     9.747
  42.600         74.17	     9.434
  42.620         80.83	     9.849
  42.640         75.83	     9.539
  42.660         59.17	     8.426
  42.680         54.17	     8.062
  42.700         60.00	     8.485
  42.720         69.17	     9.110
  42.740         71.67	     9.274
  42.760         79.17	     9.747
  42.780         73.33	     9.381
  42.800         73.33	     9.381
  42.820         75.83	     9.539
  42.840         57.50	     8.307
  42.860         75.00	     9.487
  42.880         77.50	     9.644
  42.900         90.83	    10.440
  42.920         75.83	     9.539
  42.940         76.67	     9.592
  42.960         75.00	     9.487
  42.980        110.00	    11.489
  43.000         83.33	    10.000
  43.020         99.17	    10.909
  43.040         97.50	    10.817
  43.060         94.17	    10.630
  43.080        107.50	    11.358
  43.100        120.00	    12.000
  43.120        110.83	    11.533
  43.140        112.50	    11.619
  43.160        127.50	    12.369
  43.180        145.00	    13.191
  43.200        130.83	    12.530
  43.220        153.33	    13.565
  43.240        159.17	    13.820
  43.260        188.33	    15.033
  43.280        200.83	    15.524
  43.300        195.83	    15.330
  43.320        219.17	    16.217
  43.340        225.83	    16.462
  43.360        256.67	    17.550
  43.380        254.17	    17.464
  43.400        236.67	    16.852
  43.420        290.83	    18.682
  43.440        239.17	    16.941
  43.460        243.33	    17.088
  43.480        238.33	    16.912
  43.500        273.33	    18.111
  43.520        229.17	    16.583
  43.540        242.50	    17.059
  43.560        230.83	    16.643
  43.580        204.17	    15.652
  43.600        225.83	    16.462
  43.620        207.50	    15.780
  43.640        188.33	    15.033
  43.660        155.83	    13.675
  43.680        174.17	    14.457
  43.700        163.33	    14.000
  43.720        117.50	    11.874
  43.740        136.67	    12.806
  43.760        134.17	    12.689
  43.780        140.00	    12.961
  43.800        128.33	    12.410
  43.820         98.33	    10.863
  43.840        100.00	    10.954
  43.860         89.17	    10.344
  43.880         91.67	    10.488
  43.900         85.00	    10.100
  43.920         89.17	    10.344
  43.940         93.33	    10.583
  43.960         93.33	    10.583
  43.980         75.00	     9.487
  44.000         71.67	     9.274
  44.020         71.67	     9.274
  44.040         80.00	     9.798
  44.060         85.83	    10.149
  44.080         69.17	     9.110
  44.100         77.50	     9.644
  44.120         70.83	     9.220
  44.140         64.17	     8.775
  44.160         85.00	    10.100
  44.180         39.17	     6.856
  44.200         50.83	     7.810
  44.220         52.50	     7.937
  44.240         60.83	     8.544
  44.260         62.50	     8.660
  44.280         48.33	     7.616
  44.300         58.33	     8.367
  44.320         55.00	     8.124
  44.340         49.17	     7.681
  44.360         56.67	     8.246
  44.380         48.33	     7.616
  44.400         59.17	     8.426
  44.420         42.50	     7.141
  44.440         46.67	     7.483
  44.460         48.33	     7.616
  44.480         51.67	     7.874
  44.500         54.17	     8.062
  44.520         47.50	     7.550
  44.540         44.17	     7.280
  44.560         37.50	     6.708
  44.580         44.17	     7.280
  44.600         55.83	     8.185
  44.620         41.67	     7.071
  44.640         55.00	     8.124
  44.660         55.00	     8.124
  44.680         54.17	     8.062
  44.700         50.83	     7.810
  44.720         70.83	     9.220
  44.740         75.83	     9.539
  44.760         63.33	     8.718
  44.780         73.33	     9.381
  44.800         49.17	     7.681
  44.820         68.33	     9.055
  44.840         69.17	     9.110
  44.860         81.67	     9.899
  44.880         66.67	     8.944
  44.900         74.17	     9.434
  44.920         58.33	     8.367
  44.940         62.50	     8.660
  44.960         58.33	     8.367
  44.980         61.67	     8.602
  45.000         59.17	     8.426
  45.020         67.50	     9.000
  45.040         65.00	     8.832
  45.060         57.50	     8.307
  45.080         70.83	     9.220
  45.100         47.50	     7.550
  45.120         65.83	     8.888
  45.140         44.17	     7.280
  45.160         57.50	     8.307
  45.180         72.50	     9.327
  45.200         65.00	     8.832
  45.220         58.33	     8.367
  45.240         56.67	     8.246
  45.260         69.17	     9.110
  45.280         52.50	     7.937
  45.300         58.33	     8.367
  45.320         68.33	     9.055
  45.340         65.83	     8.888
  45.360         86.67	    10.198
  45.380         80.00	     9.798
  45.400         95.00	    10.677
  45.420         72.50	     9.327
  45.440         99.17	    10.909
  45.460         89.17	    10.344
  45.480         96.67	    10.770
  45.500         97.50	    10.817
  45.520         85.83	    10.149
  45.540        101.67	    11.045
  45.560         86.67	    10.198
  45.580         87.50	    10.247
  45.600         96.67	    10.770
  45.620         80.83	     9.849
  45.640         90.83	    10.440
  45.660        120.00	    12.000
  45.680        110.83	    11.533
  45.700        141.67	    13.038
  45.720        138.33	    12.884
  45.740        100.83	    11.000
  45.760         85.83	    10.149
  45.780         85.83	    10.149
  45.800         96.67	    10.770
  45.820         99.17	    10.909
  45.840         87.50	    10.247
  45.860         76.67	     9.592
  45.880         90.00	    10.392
  45.900         86.67	    10.198
  45.920         71.67	     9.274
  45.940         71.67	     9.274
  45.960         62.50	     8.660
  45.980         69.17	     9.110
  46.000         55.00	     8.124
  46.020         70.83	     9.220
  46.040         57.50	     8.307
  46.060         55.00	     8.124
  46.080         53.33	     8.000
  46.100         50.00	     7.746
  46.120         45.00	     7.348
  46.140         36.67	     6.633
  46.160         46.67	     7.483
  46.180         43.33	     7.211
  46.200         43.33	     7.211
  46.220         37.50	     6.708
  46.240         26.67	     5.657
  46.260         37.50	     6.708
  46.280         36.67	     6.633
  46.300         36.67	     6.633
  46.320         36.67	     6.633
  46.340         39.17	     6.856
  46.360         36.67	     6.633
  46.380         50.83	     7.810
  46.400         46.67	     7.483
  46.420         43.33	     7.211
  46.440         38.33	     6.782
  46.460         45.83	     7.416
  46.480         50.83	     7.810
  46.500         33.33	     6.325
  46.520         41.67	     7.071
  46.540         38.33	     6.782
  46.560         35.00	     6.481
  46.580         51.67	     7.874
  46.600         40.00	     6.928
  46.620         41.67	     7.071
  46.640         34.17	     6.403
  46.660         30.00	     6.000
  46.680         34.17	     6.403
  46.700         33.33	     6.325
  46.720         31.67	     6.164
  46.740         27.50	     5.745
  46.760         40.83	     7.000
  46.780         38.33	     6.782
  46.800         44.17	     7.280
  46.820         43.33	     7.211
  46.840         45.83	     7.416
  46.860         31.67	     6.164
  46.880         45.83	     7.416
  46.900         30.00	     6.000
  46.920         40.83	     7.000
  46.940         48.33	     7.616
  46.960         47.50	     7.550
  46.980         43.33	     7.211
  47.000         44.17	     7.280
  47.020         42.50	     7.141
  47.040         41.67	     7.071
  47.060         48.33	     7.616
  47.080         43.33	     7.211
  47.100         42.50	     7.141
  47.120         32.50	     6.245
  47.140         38.33	     6.782
  47.160         30.00	     6.000
  47.180         37.50	     6.708
  47.200         38.33	     6.782
  47.220         34.17	     6.403
  47.240         35.83	     6.557
  47.260         26.67	     5.657
  47.280         40.00	     6.928
  47.300         32.50	     6.245
  47.320         41.67	     7.071
  47.340         40.00	     6.928
  47.360         27.50	     5.745
  47.380         35.00	     6.481
  47.400         38.33	     6.782
  47.420         37.50	     6.708
  47.440         35.83	     6.557
  47.460         45.00	     7.348
  47.480         52.50	     7.937
  47.500         50.00	     7.746
  47.520         48.33	     7.616
  47.540         41.67	     7.071
  47.560         41.67	     7.071
  47.580         27.50	     5.745
  47.600         38.33	     6.782
  47.620         33.33	     6.325
  47.640         46.67	     7.483
  47.660         50.00	     7.746
  47.680         44.17	     7.280
  47.700         31.67	     6.164
  47.720         40.00	     6.928
  47.740         49.17	     7.681
  47.760         37.50	     6.708
  47.780         45.00	     7.348
  47.800         55.00	     8.124
  47.820         50.00	     7.746
  47.840         55.83	     8.185
  47.860         57.50	     8.307
  47.880         52.50	     7.937
  47.900         63.33	     8.718
  47.920         60.83	     8.544
  47.940         48.33	     7.616
  47.960         50.00	     7.746
  47.980         47.50	     7.550
  48.000         40.00	     6.928
  48.020         47.50	     7.550
  48.040         55.00	     8.124
  48.060         75.00	     9.487
  48.080         48.33	     7.616
  48.100         45.83	     7.416
  48.120         52.50	     7.937
  48.140         45.83	     7.416
  48.160         30.83	     6.083
  48.180         51.67	     7.874
  48.200         51.67	     7.874
  48.220         35.83	     6.557
  48.240         53.33	     8.000
  48.260         37.50	     6.708
  48.280         48.33	     7.616
  48.300         50.00	     7.746
  48.320         45.00	     7.348
  48.340         57.50	     8.307
  48.360         42.50	     7.141
  48.380         46.67	     7.483
  48.400         49.17	     7.681
  48.420         48.33	     7.616
  48.440         55.00	     8.124
  48.460         40.00	     6.928
  48.480         43.33	     7.211
  48.500         48.33	     7.616
  48.520         44.17	     7.280
  48.540         49.17	     7.681
  48.560         45.00	     7.348
  48.580         48.33	     7.616
  48.600         40.00	     6.928
  48.620         49.17	     7.681
  48.640         50.00	     7.746
  48.660         44.17	     7.280
  48.680         41.67	     7.071
  48.700         46.67	     7.483
  48.720         30.83	     6.083
  48.740         42.50	     7.141
  48.760         34.17	     6.403
  48.780         38.33	     6.782
  48.800         31.67	     6.164
  48.820         34.17	     6.403
  48.840         25.83	     5.568
  48.860         31.67	     6.164
  48.880         34.17	     6.403
  48.900         40.83	     7.000
  48.920         34.17	     6.403
  48.940         43.33	     7.211
  48.960         37.50	     6.708
  48.980         46.67	     7.483
  49.000         55.00	     8.124
  49.020         51.67	     7.874
  49.040         40.83	     7.000
  49.060         51.67	     7.874
  49.080         53.33	     8.000
  49.100         54.17	     8.062
  49.120         49.17	     7.681
  49.140         51.67	     7.874
  49.160         51.67	     7.874
  49.180         44.17	     7.280
  49.200         55.83	     8.185
  49.220         58.33	     8.367
  49.240         40.83	     7.000
  49.260         50.83	     7.810
  49.280         42.50	     7.141
  49.300         38.33	     6.782
  49.320         44.17	     7.280
  49.340         50.83	     7.810
  49.360         55.00	     8.124
  49.380         56.67	     8.246
  49.400         57.50	     8.307
  49.420         52.50	     7.937
  49.440         46.67	     7.483
  49.460         55.00	     8.124
  49.480         52.50	     7.937
  49.500         53.33	     8.000
  49.520         50.83	     7.810
  49.540         49.17	     7.681
  49.560         64.17	     8.775
  49.580         55.83	     8.185
  49.600         61.67	     8.602
  49.620         51.67	     7.874
  49.640         58.33	     8.367
  49.660         60.00	     8.485
  49.680         70.00	     9.165
  49.700         67.50	     9.000
  49.720         84.17	    10.050
  49.740         67.50	     9.000
  49.760         75.00	     9.487
  49.780         75.83	     9.539
  49.800         74.17	     9.434
  49.820         80.00	     9.798
  49.840         93.33	    10.583
  49.860         92.50	    10.536
  49.880         84.17	    10.050
  49.900        103.33	    11.136
  49.920        112.50	    11.619
  49.940        110.83	    11.533
  49.960        150.83	    13.454
  49.980        126.67	    12.329
  50.000        168.33	    14.213
  50.020        186.67	    14.967
  50.040        205.83	    15.716
  50.060        163.33	    14.000
  50.080        161.67	    13.928
  50.100        138.33	    12.884
  50.120        129.17	    12.450
  50.140        140.00	    12.961
  50.160        135.00	    12.728
  50.180        142.50	    13.077
  50.200        118.33	    11.916
  50.220        102.50	    11.091
  50.240         98.33	    10.863
  50.260         90.83	    10.440
  50.280         80.00	     9.798
  50.300         80.83	     9.849
  50.320         85.83	    10.149
  50.340         78.33	     9.695
  50.360         80.83	     9.849
  50.380         86.67	    10.198
  50.400         88.33	    10.296
  50.420         64.17	     8.775
  50.440         97.50	    10.817
  50.460         96.67	    10.770
  50.480         93.33	    10.583
  50.500         86.67	    10.198
  50.520         96.67	    10.770
  50.540         95.00	    10.677
  50.560         88.33	    10.296
  50.580         83.33	    10.000
  50.600         85.83	    10.149
  50.620         92.50	    10.536
  50.640         96.67	    10.770
  50.660         85.83	    10.149
  50.680         82.50	     9.950
  50.700         74.17	     9.434
  50.720         60.83	     8.544
  50.740         60.00	     8.485
  50.760         57.50	     8.307
  50.780         57.50	     8.307
  50.800         60.83	     8.544
  50.820         82.50	     9.950
  50.840         75.83	     9.539
  50.860         70.83	     9.220
  50.880         60.00	     8.485
  50.900         57.50	     8.307
  50.920         59.17	     8.426
  50.940         55.83	     8.185
  50.960         47.50	     7.550
  50.980         55.83	     8.185
  51.000         69.17	     9.110
  51.020         63.33	     8.718
  51.040         70.00	     9.165
  51.060         75.83	     9.539
  51.080         58.33	     8.367
  51.100         68.33	     9.055
  51.120         75.00	     9.487
  51.140         57.50	     8.307
  51.160         43.33	     7.211
  51.180         54.17	     8.062
  51.200         62.50	     8.660
  51.220         48.33	     7.616
  51.240         48.33	     7.616
  51.260         46.67	     7.483
  51.280         40.00	     6.928
  51.300         38.33	     6.782
  51.320         35.83	     6.557
  51.340         38.33	     6.782
  51.360         25.00	     5.477
  51.380         40.83	     7.000
  51.400         32.50	     6.245
  51.420         37.50	     6.708
  51.440         40.00	     6.928
  51.460         40.00	     6.928
  51.480         40.83	     7.000
  51.500         40.83	     7.000
  51.520         35.00	     6.481
  51.540         26.67	     5.657
  51.560         39.17	     6.856
  51.580         37.50	     6.708
  51.600         39.17	     6.856
  51.620         33.33	     6.325
  51.640         35.83	     6.557
  51.660         27.50	     5.745
  51.680         40.00	     6.928
  51.700         40.00	     6.928
  51.720         40.83	     7.000
  51.740         36.67	     6.633
  51.760         39.17	     6.856
  51.780         30.00	     6.000
  51.800         28.33	     5.831
  51.820         43.33	     7.211
  51.840         27.50	     5.745
  51.860         50.83	     7.810
  51.880         64.17	     8.775
  51.900        114.17	    11.705
  51.920        216.67	    16.125
  51.940        205.83	    15.716
  51.960        110.00	    11.489
  51.980         66.67	     8.944
  52.000         52.50	     7.937
  52.020         67.50	     9.000
  52.040         85.83	    10.149
  52.060        141.67	    13.038
  52.080        111.67	    11.576
  52.100         77.50	     9.644
  52.120         60.83	     8.544
  52.140         45.00	     7.348
  52.160         60.83	     8.544
  52.180         51.67	     7.874
  52.200         34.17	     6.403
  52.220         42.50	     7.141
  52.240         29.17	     5.916
  52.260         50.83	     7.810
  52.280         50.00	     7.746
  52.300         43.33	     7.211
  52.320         45.83	     7.416
  52.340         52.50	     7.937
  52.360         50.83	     7.810
  52.380         48.33	     7.616
  52.400         62.50	     8.660
  52.420         53.33	     8.000
  52.440         44.17	     7.280
  52.460         54.17	     8.062
  52.480         54.17	     8.062
  52.500         42.50	     7.141
  52.520         50.00	     7.746
  52.540         59.17	     8.426
  52.560         42.50	     7.141
  52.580         49.17	     7.681
  52.600         38.33	     6.782
  52.620         35.00	     6.481
  52.640         45.83	     7.416
  52.660         39.17	     6.856
  52.680         44.17	     7.280
  52.700         39.17	     6.856
  52.720         42.50	     7.141
  52.740         44.17	     7.280
  52.760         41.67	     7.071
  52.780         42.50	     7.141
  52.800         27.50	     5.745
  52.820         30.00	     6.000
  52.840         38.33	     6.782
  52.860         43.33	     7.211
  52.880         42.50	     7.141
  52.900         40.00	     6.928
  52.920         46.67	     7.483
  52.940         33.33	     6.325
  52.960         45.00	     7.348
  52.980         38.33	     6.782
  53.000         40.00	     6.928
  53.020         38.33	     6.782
  53.040         54.17	     8.062
  53.060         35.83	     6.557
  53.080         44.17	     7.280
  53.100         49.17	     7.681
  53.120         39.17	     6.856
  53.140         36.67	     6.633
  53.160         51.67	     7.874
  53.180         47.50	     7.550
  53.200         47.50	     7.550
  53.220         37.50	     6.708
  53.240         43.33	     7.211
  53.260         40.83	     7.000
  53.280         31.67	     6.164
  53.300         33.33	     6.325
  53.320         49.17	     7.681
  53.340         40.00	     6.928
  53.360         42.50	     7.141
  53.380         30.83	     6.083
  53.400         39.17	     6.856
  53.420         57.50	     8.307
  53.440         32.50	     6.245
  53.460         33.33	     6.325
  53.480         30.83	     6.083
  53.500         40.00	     6.928
  53.520         42.50	     7.141
  53.540         38.33	     6.782
  53.560         29.17	     5.916
  53.580         34.17	     6.403
  53.600         45.83	     7.416
  53.620         33.33	     6.325
  53.640         32.50	     6.245
  53.660         33.33	     6.325
  53.680         33.33	     6.325
  53.700         23.33	     5.292
  53.720         39.17	     6.856
  53.740         31.67	     6.164
  53.760         35.83	     6.557
  53.780         36.67	     6.633
  53.800         45.83	     7.416
  53.820         39.17	     6.856
  53.840         33.33	     6.325
  53.860         40.83	     7.000
  53.880         37.50	     6.708
  53.900         39.17	     6.856
  53.920         32.50	     6.245
  53.940         39.17	     6.856
  53.960         30.83	     6.083
  53.980         35.00	     6.481
  54.000         40.83	     7.000
  54.020         30.83	     6.083
  54.040         51.67	     7.874
  54.060         38.33	     6.782
  54.080         34.17	     6.403
  54.100         30.83	     6.083
  54.120         43.33	     7.211
  54.140         42.50	     7.141
  54.160         30.00	     6.000
  54.180         48.33	     7.616
  54.200         38.33	     6.782
  54.220         42.50	     7.141
  54.240         48.33	     7.616
  54.260         49.17	     7.681
  54.280         38.33	     6.782
  54.300         37.50	     6.708
  54.320         38.33	     6.782
  54.340         42.50	     7.141
  54.360         41.67	     7.071
  54.380         46.67	     7.483
  54.400         43.33	     7.211
  54.420         45.83	     7.416
  54.440         44.17	     7.280
  54.460         41.67	     7.071
  54.480         41.67	     7.071
  54.500         37.50	     6.708
  54.520         49.17	     7.681
  54.540         45.83	     7.416
  54.560         50.83	     7.810
  54.580         39.17	     6.856
  54.600         38.33	     6.782
  54.620         55.00	     8.124
  54.640         50.00	     7.746
  54.660         52.50	     7.937
  54.680         69.17	     9.110
  54.700         60.00	     8.485
  54.720         75.00	     9.487
  54.740         80.83	     9.849
  54.760         84.17	    10.050
  54.780         75.83	     9.539
  54.800         88.33	    10.296
  54.820         60.83	     8.544
  54.840         51.67	     7.874
  54.860         52.50	     7.937
  54.880         81.67	     9.899
  54.900         58.33	     8.367
  54.920         67.50	     9.000
  54.940         61.67	     8.602
  54.960         52.50	     7.937
  54.980         42.50	     7.141
  55.000         46.67	     7.483
  55.020         54.17	     8.062
  55.040         37.50	     6.708
  55.060         47.50	     7.550
  55.080         53.33	     8.000
  55.100         38.33	     6.782
  55.120         60.83	     8.544
  55.140         52.50	     7.937
  55.160         55.00	     8.124
  55.180         55.83	     8.185
  55.200         63.33	     8.718
  55.220         70.00	     9.165
  55.240         68.33	     9.055
  55.260         53.33	     8.000
  55.280         44.17	     7.280
  55.300         43.33	     7.211
  55.320         48.33	     7.616
  55.340         58.33	     8.367
  55.360         53.33	     8.000
  55.380         53.33	     8.000
  55.400         51.67	     7.874
  55.420         53.33	     8.000
  55.440         41.67	     7.071
  55.460         46.67	     7.483
  55.480         45.00	     7.348
  55.500         50.00	     7.746
  55.520         42.50	     7.141
  55.540         55.00	     8.124
  55.560         59.17	     8.426
  55.580         48.33	     7.616
  55.600         53.33	     8.000
  55.620         59.17	     8.426
  55.640         54.17	     8.062
  55.660         77.50	     9.644
  55.680         72.50	     9.327
  55.700         96.67	    10.770
  55.720        122.50	    12.124
  55.740        130.83	    12.530
  55.760         78.33	     9.695
  55.780         54.17	     8.062
  55.800         60.83	     8.544
  55.820         72.50	     9.327
  55.840         69.17	     9.110
  55.860         65.83	     8.888
  55.880         78.33	     9.695
  55.900         75.83	     9.539
  55.920         58.33	     8.367
  55.940         45.00	     7.348
  55.960         48.33	     7.616
  55.980         40.00	     6.928
  56.000         45.00	     7.348
  56.020         36.67	     6.633
  56.040         46.67	     7.483
  56.060         52.50	     7.937
  56.080         51.67	     7.874
  56.100         41.67	     7.071
  56.120         49.17	     7.681
  56.140         52.50	     7.937
  56.160         29.17	     5.916
  56.180         45.00	     7.348
  56.200         48.33	     7.616
  56.220         48.33	     7.616
  56.240         34.17	     6.403
  56.260         38.33	     6.782
  56.280         33.33	     6.325
  56.300         31.67	     6.164
  56.320         50.83	     7.810
  56.340         35.83	     6.557
  56.360         40.00	     6.928
  56.380         34.17	     6.403
  56.400         45.83	     7.416
  56.420         47.50	     7.550
  56.440         45.83	     7.416
  56.460         36.67	     6.633
  56.480         48.33	     7.616
  56.500         36.67	     6.633
  56.520         35.00	     6.481
  56.540         38.33	     6.782
  56.560         34.17	     6.403
  56.580         39.17	     6.856
  56.600         38.33	     6.782
  56.620         45.83	     7.416
  56.640         43.33	     7.211
  56.660         30.00	     6.000
  56.680         39.17	     6.856
  56.700         38.33	     6.782
  56.720         44.17	     7.280
  56.740         45.83	     7.416
  56.760         44.17	     7.280
  56.780         35.00	     6.481
  56.800         37.50	     6.708
  56.820         43.33	     7.211
  56.840         56.67	     8.246
  56.860         52.50	     7.937
  56.880         50.00	     7.746
  56.900         65.83	     8.888
  56.920         49.17	     7.681
  56.940         58.33	     8.367
  56.960         70.00	     9.165
  56.980         67.50	     9.000
  57.000         76.67	     9.592
  57.020         67.50	     9.000
  57.040         50.00	     7.746
  57.060         50.83	     7.810
  57.080         50.00	     7.746
  57.100         45.83	     7.416
  57.120         45.00	     7.348
  57.140         55.83	     8.185
  57.160         50.83	     7.810
  57.180         55.83	     8.185
  57.200         38.33	     6.782
  57.220         45.00	     7.348
  57.240         31.67	     6.164
  57.260         32.50	     6.245
  57.280         38.33	     6.782
  57.300         44.17	     7.280
  57.320         31.67	     6.164
  57.340         35.83	     6.557
  57.360         35.00	     6.481
  57.380         22.50	     5.196
  57.400         35.83	     6.557
  57.420         40.00	     6.928
  57.440         35.83	     6.557
  57.460         31.67	     6.164
  57.480         32.50	     6.245
  57.500         30.83	     6.083
  57.520         36.67	     6.633
  57.540         32.50	     6.245
  57.560         40.00	     6.928
  57.580         40.83	     7.000
  57.600         30.00	     6.000
  57.620         44.17	     7.280
  57.640         46.67	     7.483
  57.660         35.83	     6.557
  57.680         36.67	     6.633
  57.700         36.67	     6.633
  57.720         31.67	     6.164
  57.740         27.50	     5.745
  57.760         30.83	     6.083
  57.780         25.83	     5.568
  57.800         40.00	     6.928
  57.820         39.17	     6.856
  57.840         39.17	     6.856
  57.860         42.50	     7.141
  57.880         39.17	     6.856
  57.900         35.00	     6.481
  57.920         34.17	     6.403
  57.940         38.33	     6.782
  57.960         33.33	     6.325
  57.980         35.00	     6.481
  58.000         39.17	     6.856
  58.020         32.50	     6.245
  58.040         28.33	     5.831
  58.060         45.00	     7.348
  58.080         45.83	     7.416
  58.100         36.67	     6.633
  58.120         41.67	     7.071
  58.140         30.83	     6.083
  58.160         38.33	     6.782
  58.180         34.17	     6.403
  58.200         44.17	     7.280
  58.220         27.50	     5.745
  58.240         33.33	     6.325
  58.260         42.50	     7.141
  58.280         40.83	     7.000
  58.300         45.83	     7.416
  58.320         30.83	     6.083
  58.340         53.33	     8.000
  58.360         40.00	     6.928
  58.380         43.33	     7.211
  58.400         45.83	     7.416
  58.420         39.17	     6.856
  58.440         37.50	     6.708
  58.460         50.00	     7.746
  58.480         52.50	     7.937
  58.500         49.17	     7.681
  58.520         48.33	     7.616
  58.540         42.50	     7.141
  58.560         54.17	     8.062
  58.580         48.33	     7.616
  58.600         63.33	     8.718
  58.620         54.17	     8.062
  58.640         52.50	     7.937
  58.660         45.00	     7.348
  58.680         47.50	     7.550
  58.700         51.67	     7.874
  58.720         45.83	     7.416
  58.740         50.83	     7.810
  58.760         33.33	     6.325
  58.780         54.17	     8.062
  58.800         50.00	     7.746
  58.820         40.00	     6.928
  58.840         36.67	     6.633
  58.860         42.50	     7.141
  58.880         47.50	     7.550
  58.900         38.33	     6.782
  58.920         37.50	     6.708
  58.940         42.50	     7.141
  58.960         49.17	     7.681
  58.980         56.67	     8.246
  59.000         46.67	     7.483
  59.020         55.83	     8.185
  59.040         51.67	     7.874
  59.060         47.50	     7.550
  59.080         68.33	     9.055
  59.100         62.50	     8.660
  59.120         58.33	     8.367
  59.140         51.67	     7.874
  59.160         46.67	     7.483
  59.180         40.83	     7.000
  59.200         44.17	     7.280
  59.220         45.83	     7.416
  59.240         45.83	     7.416
  59.260         45.00	     7.348
  59.280         41.67	     7.071
  59.300         48.33	     7.616
  59.320         50.83	     7.810
  59.340         42.50	     7.141
  59.360         39.17	     6.856
  59.380         42.50	     7.141
  59.400         40.83	     7.000
  59.420         37.50	     6.708
  59.440         43.33	     7.211
  59.460         38.33	     6.782
  59.480         45.00	     7.348
  59.500         41.67	     7.071
  59.520         39.17	     6.856
  59.540         43.33	     7.211
  59.560         49.17	     7.681
  59.580         55.83	     8.185
  59.600         49.17	     7.681
  59.620         60.00	     8.485
  59.640         62.50	     8.660
  59.660         51.67	     7.874
  59.680         71.67	     9.274
  59.700         83.33	    10.000
  59.720        101.67	    11.045
  59.740        111.67	    11.576
  59.760        105.00	    11.225
  59.780        130.83	    12.530
  59.800        133.33	    12.649
  59.820        165.00	    14.071
  59.840        213.33	    16.000
  59.860        229.17	    16.583
  59.880        195.83	    15.330
  59.900        173.33	    14.422
  59.920        131.67	    12.570
  59.940        110.83	    11.533
  59.960        103.33	    11.136
  59.980        116.67	    11.832
  60.000        130.00	    12.490
  60.020        136.67	    12.806
  60.040        130.00	    12.490
  60.060        115.83	    11.790
  60.080         76.67	     9.592
  60.100         76.67	     9.592
  60.120         69.17	     9.110
  60.140         50.83	     7.810
  60.160         43.33	     7.211
  60.180         58.33	     8.367
  60.200         54.17	     8.062
  60.220         51.67	     7.874
  60.240         59.17	     8.426
  60.260         53.33	     8.000
  60.280         50.00	     7.746
  60.300         58.33	     8.367
  60.320         58.33	     8.367
  60.340         55.83	     8.185
  60.360         63.33	     8.718
  60.380         68.33	     9.055
  60.400         52.50	     7.937
  60.420         55.00	     8.124
  60.440         56.67	     8.246
  60.460         45.83	     7.416
  60.480         47.50	     7.550
  60.500         45.83	     7.416
  60.520         50.83	     7.810
  60.540         53.33	     8.000
  60.560         41.67	     7.071
  60.580         47.50	     7.550
  60.600         43.33	     7.211
  60.620         53.33	     8.000
  60.640         58.33	     8.367
  60.660         47.50	     7.550
  60.680         49.17	     7.681
  60.700         68.33	     9.055
  60.720         45.00	     7.348
  60.740         51.67	     7.874
  60.760         50.83	     7.810
  60.780         54.17	     8.062
  60.800         50.00	     7.746
  60.820         51.67	     7.874
  60.840         46.67	     7.483
  60.860         59.17	     8.426
  60.880         39.17	     6.856
  60.900         52.50	     7.937
  60.920         54.17	     8.062
  60.940         48.33	     7.616
  60.960         49.17	     7.681
  60.980         44.17	     7.280
  61.000         49.17	     7.681
  61.020         48.33	     7.616
  61.040         37.50	     6.708
  61.060         50.83	     7.810
  61.080         45.83	     7.416
  61.100         46.67	     7.483
  61.120         41.67	     7.071
  61.140         44.17	     7.280
  61.160         45.00	     7.348
  61.180         43.33	     7.211
  61.200         45.83	     7.416
  61.220         40.83	     7.000
  61.240         54.17	     8.062
  61.260         64.17	     8.775
  61.280         60.00	     8.485
  61.300         51.67	     7.874
  61.320         59.17	     8.426
  61.340         71.67	     9.274
  61.360         75.83	     9.539
  61.380         63.33	     8.718
  61.400         63.33	     8.718
  61.420         69.17	     9.110
  61.440         62.50	     8.660
  61.460         82.50	     9.950
  61.480         81.67	     9.899
  61.500         74.17	     9.434
  61.520         70.00	     9.165
  61.540         60.83	     8.544
  61.560         78.33	     9.695
  61.580         64.17	     8.775
  61.600         57.50	     8.307
  61.620         60.83	     8.544
  61.640         78.33	     9.695
  61.660         66.67	     8.944
  61.680         63.33	     8.718
  61.700         75.00	     9.487
  61.720         55.00	     8.124
  61.740         60.83	     8.544
  61.760         57.50	     8.307
  61.780         55.00	     8.124
  61.800         49.17	     7.681
  61.820         52.50	     7.937
  61.840         43.33	     7.211
  61.860         40.83	     7.000
  61.880         46.67	     7.483
  61.900         41.67	     7.071
  61.920         50.00	     7.746
  61.940         43.33	     7.211
  61.960         34.17	     6.403
  61.980         39.17	     6.856
  62.000         46.67	     7.483
  62.020         45.00	     7.348
  62.040         53.33	     8.000
  62.060         45.83	     7.416
  62.080         43.33	     7.211
  62.100         45.00	     7.348
  62.120         53.33	     8.000
  62.140         44.17	     7.280
  62.160         40.00	     6.928
  62.180         40.00	     6.928
  62.200         45.83	     7.416
  62.220         40.83	     7.000
  62.240         51.67	     7.874
  62.260         36.67	     6.633
  62.280         39.17	     6.856
  62.300         39.17	     6.856
  62.320         24.17	     5.385
  62.340         38.33	     6.782
  62.360         43.33	     7.211
  62.380         40.00	     6.928
  62.400         32.50	     6.245
  62.420         41.67	     7.071
  62.440         36.67	     6.633
  62.460         42.50	     7.141
  62.480         35.00	     6.481
  62.500         49.17	     7.681
  62.520         43.33	     7.211
  62.540         34.17	     6.403
  62.560         44.17	     7.280
  62.580         46.67	     7.483
  62.600         40.00	     6.928
  62.620         44.17	     7.280
  62.640         35.00	     6.481
  62.660         35.83	     6.557
  62.680         39.17	     6.856
  62.700         42.50	     7.141
  62.720         38.33	     6.782
  62.740         44.17	     7.280
  62.760         50.00	     7.746
  62.780         37.50	     6.708
  62.800         43.33	     7.211
  62.820         22.50	     5.196
  62.840         41.67	     7.071
  62.860         43.33	     7.211
  62.880         35.83	     6.557
  62.900         38.33	     6.782
  62.920         40.00	     6.928
  62.940         33.33	     6.325
  62.960         30.00	     6.000
  62.980         37.50	     6.708
  63.000         29.17	     5.916
  63.020         35.83	     6.557
  63.040         35.83	     6.557
  63.060         25.83	     5.568
  63.080         42.50	     7.141
  63.100         50.00	     7.746
  63.120         31.67	     6.164
  63.140         38.33	     6.782
  63.160         27.50	     5.745
  63.180         44.17	     7.280
  63.200         33.33	     6.325
  63.220         43.33	     7.211
  63.240         42.50	     7.141
  63.260         48.33	     7.616
  63.280         32.50	     6.245
  63.300         35.83	     6.557
  63.320         50.83	     7.810
  63.340         40.00	     6.928
  63.360         44.17	     7.280
  63.380         38.33	     6.782
  63.400         42.50	     7.141
  63.420         30.83	     6.083
  63.440         43.33	     7.211
  63.460         45.00	     7.348
  63.480         51.67	     7.874
  63.500         40.83	     7.000
  63.520         50.83	     7.810
  63.540         49.17	     7.681
  63.560         38.33	     6.782
  63.580         45.00	     7.348
  63.600         40.00	     6.928
  63.620         40.83	     7.000
  63.640         53.33	     8.000
  63.660         45.83	     7.416
  63.680         50.83	     7.810
  63.700         55.83	     8.185
  63.720         60.00	     8.485
  63.740         40.83	     7.000
  63.760         49.17	     7.681
  63.780         68.33	     9.055
  63.800         59.17	     8.426
  63.820         50.00	     7.746
  63.840         63.33	     8.718
  63.860         37.50	     6.708
  63.880         63.33	     8.718
  63.900         68.33	     9.055
  63.920         65.00	     8.832
  63.940         90.00	    10.392
  63.960         90.00	    10.392
  63.980         80.00	     9.798
  64.000         58.33	     8.367
  64.020         58.33	     8.367
  64.040         52.50	     7.937
  64.060         57.50	     8.307
  64.080         56.67	     8.246
  64.100         58.33	     8.367
  64.120         55.00	     8.124
  64.140         56.67	     8.246
  64.160         50.00	     7.746
  64.180         40.00	     6.928
  64.200         46.67	     7.483
  64.220         36.67	     6.633
  64.240         38.33	     6.782
  64.260         40.83	     7.000
  64.280         35.00	     6.481
  64.300         26.67	     5.657
  64.320         27.50	     5.745
  64.340         32.50	     6.245
  64.360         31.67	     6.164
  64.380         35.83	     6.557
  64.400         24.17	     5.385
  64.420         32.50	     6.245
  64.440         30.00	     6.000
  64.460         30.00	     6.000
  64.480         29.17	     5.916
  64.500         32.50	     6.245
  64.520         33.33	     6.325
  64.540         43.33	     7.211
  64.560         24.17	     5.385
  64.580         25.83	     5.568
  64.600         27.50	     5.745
  64.620         52.50	     7.937
  64.640         41.67	     7.071
  64.660         47.50	     7.550
  64.680         42.50	     7.141
  64.700         51.67	     7.874
  64.720         53.33	     8.000
  64.740         43.33	     7.211
  64.760         30.00	     6.000
  64.780         47.50	     7.550
  64.800         50.00	     7.746
  64.820         48.33	     7.616
  64.840         50.83	     7.810
  64.860         51.67	     7.874
  64.880         40.00	     6.928
  64.900         43.33	     7.211
  64.920         50.00	     7.746
  64.940         50.00	     7.746
  64.960         45.00	     7.348
  64.980         46.67	     7.483
  65.000         39.17	     6.856
