
Filename:
	C:\Program Files\Thermo Electron\WinXRD\Datafiles\F_HERMAN\GEO\G60_RT.raw

File Created:
	February 20, 2020 - 09:04 PM

Specimen Id:
	G60_RT

Specimen Name:
	

Specimen Description:
	

Comment:
Scan Type: 2Theta Scan
Start Angle: 3 deg.
Stop Angle: 65 deg.
Num Points: 3101
Step Size: 0.02 deg.
Scan Rate: 1.000000
Scan Mode: Continuous
Wavelength: 1.540562
\Kalpha1: 1.540562	\Kalpha2: 1.544390	\Kbeta: 1.392218

Optics:
		Detector:
			 Type: Fixed Slits
		Tube: 
			 Type: Fixed Slits


Datas:
 Pos [deg]       Rate [CPS]      ESD [-]

Range 1 ---> Iteration 1
   3.000        440.83	    23.000
   3.020        435.00	    22.847
   3.040        411.67	    22.226
   3.060        448.33	    23.195
   3.080        420.83	    22.472
   3.100        465.83	    23.643
   3.120        420.00	    22.450
   3.140        429.17	    22.694
   3.160        406.67	    22.091
   3.180        417.50	    22.383
   3.200        388.33	    21.587
   3.220        425.00	    22.583
   3.240        379.17	    21.331
   3.260        389.17	    21.610
   3.280        424.17	    22.561
   3.300        396.67	    21.817
   3.320        363.33	    20.881
   3.340        367.50	    21.000
   3.360        383.33	    21.448
   3.380        376.67	    21.260
   3.400        390.00	    21.633
   3.420        402.50	    21.977
   3.440        402.50	    21.977
   3.460        376.67	    21.260
   3.480        364.17	    20.905
   3.500        339.17	    20.174
   3.520        383.33	    21.448
   3.540        358.33	    20.736
   3.560        350.00	    20.494
   3.580        365.00	    20.928
   3.600        352.50	    20.567
   3.620        345.00	    20.347
   3.640        350.83	    20.518
   3.660        335.83	    20.075
   3.680        355.83	    20.664
   3.700        339.17	    20.174
   3.720        339.17	    20.174
   3.740        341.67	    20.248
   3.760        360.83	    20.809
   3.780        324.17	    19.723
   3.800        315.00	    19.442
   3.820        351.67	    20.543
   3.840        326.67	    19.799
   3.860        328.33	    19.849
   3.880        340.83	    20.224
   3.900        313.33	    19.391
   3.920        359.17	    20.761
   3.940        312.50	    19.365
   3.960        325.83	    19.774
   3.980        308.33	    19.235
   4.000        325.83	    19.774
   4.020        370.00	    21.071
   4.040        320.83	    19.621
   4.060        305.83	    19.157
   4.080        329.17	    19.875
   4.100        298.33	    18.921
   4.120        314.17	    19.416
   4.140        306.67	    19.183
   4.160        276.67	    18.221
   4.180        270.83	    18.028
   4.200        315.00	    19.442
   4.220        310.83	    19.313
   4.240        275.00	    18.166
   4.260        291.67	    18.708
   4.280        290.00	    18.655
   4.300        299.17	    18.947
   4.320        264.17	    17.804
   4.340        308.33	    19.235
   4.360        260.83	    17.692
   4.380        277.50	    18.248
   4.400        275.83	    18.193
   4.420        285.00	    18.493
   4.440        269.17	    17.972
   4.460        257.50	    17.578
   4.480        270.83	    18.028
   4.500        266.67	    17.889
   4.520        272.50	    18.083
   4.540        270.00	    18.000
   4.560        257.50	    17.578
   4.580        261.67	    17.720
   4.600        255.83	    17.521
   4.620        249.17	    17.292
   4.640        279.17	    18.303
   4.660        261.67	    17.720
   4.680        262.50	    17.748
   4.700        284.17	    18.466
   4.720        250.00	    17.321
   4.740        232.50	    16.703
   4.760        235.00	    16.793
   4.780        241.67	    17.029
   4.800        244.17	    17.117
   4.820        260.83	    17.692
   4.840        235.83	    16.823
   4.860        255.00	    17.493
   4.880        260.00	    17.664
   4.900        239.17	    16.941
   4.920        239.17	    16.941
   4.940        270.00	    18.000
   4.960        274.17	    18.138
   4.980        214.17	    16.031
   5.000        229.17	    16.583
   5.020        240.00	    16.971
   5.040        220.00	    16.248
   5.060        241.67	    17.029
   5.080        244.17	    17.117
   5.100        277.50	    18.248
   5.120        256.67	    17.550
   5.140        230.00	    16.613
   5.160        247.50	    17.234
   5.180        230.00	    16.613
   5.200        216.67	    16.125
   5.220        228.33	    16.553
   5.240        235.83	    16.823
   5.260        231.67	    16.673
   5.280        239.17	    16.941
   5.300        226.67	    16.492
   5.320        224.17	    16.401
   5.340        216.67	    16.125
   5.360        207.50	    15.780
   5.380        216.67	    16.125
   5.400        224.17	    16.401
   5.420        222.50	    16.340
   5.440        241.67	    17.029
   5.460        218.33	    16.186
   5.480        210.00	    15.875
   5.500        203.33	    15.620
   5.520        220.83	    16.279
   5.540        215.83	    16.093
   5.560        233.33	    16.733
   5.580        210.83	    15.906
   5.600        200.00	    15.492
   5.620        200.00	    15.492
   5.640        190.00	    15.100
   5.660        217.50	    16.155
   5.680        199.17	    15.460
   5.700        210.83	    15.906
   5.720        189.17	    15.067
   5.740        197.50	    15.395
   5.760        209.17	    15.843
   5.780        212.50	    15.969
   5.800        215.00	    16.062
   5.820        206.67	    15.748
   5.840        219.17	    16.217
   5.860        191.67	    15.166
   5.880        185.00	    14.900
   5.900        167.50	    14.177
   5.920        220.00	    16.248
   5.940        217.50	    16.155
   5.960        226.67	    16.492
   5.980        218.33	    16.186
   6.000        225.83	    16.462
   6.020        214.17	    16.031
   6.040        225.00	    16.432
   6.060        233.33	    16.733
   6.080        245.00	    17.146
   6.100        235.00	    16.793
   6.120        250.00	    17.321
   6.140        285.83	    18.520
   6.160        246.67	    17.205
   6.180        231.67	    16.673
   6.200        211.67	    15.937
   6.220        231.67	    16.673
   6.240        212.50	    15.969
   6.260        185.83	    14.933
   6.280        190.00	    15.100
   6.300        190.00	    15.100
   6.320        183.33	    14.832
   6.340        190.83	    15.133
   6.360        190.83	    15.133
   6.380        192.50	    15.199
   6.400        172.50	    14.387
   6.420        203.33	    15.620
   6.440        184.17	    14.866
   6.460        190.83	    15.133
   6.480        197.50	    15.395
   6.500        190.00	    15.100
   6.520        196.67	    15.362
   6.540        183.33	    14.832
   6.560        198.33	    15.427
   6.580        214.17	    16.031
   6.600        199.17	    15.460
   6.620        190.00	    15.100
   6.640        178.33	    14.629
   6.660        168.33	    14.213
   6.680        170.00	    14.283
   6.700        172.50	    14.387
   6.720        180.83	    14.731
   6.740        175.83	    14.526
   6.760        192.50	    15.199
   6.780        192.50	    15.199
   6.800        190.00	    15.100
   6.820        176.67	    14.560
   6.840        171.67	    14.353
   6.860        171.67	    14.353
   6.880        186.67	    14.967
   6.900        167.50	    14.177
   6.920        174.17	    14.457
   6.940        179.17	    14.663
   6.960        159.17	    13.820
   6.980        170.00	    14.283
   7.000        157.50	    13.748
   7.020        174.17	    14.457
   7.040        164.17	    14.036
   7.060        170.00	    14.283
   7.080        185.83	    14.933
   7.100        183.33	    14.832
   7.120        169.17	    14.248
   7.140        181.67	    14.765
   7.160        151.67	    13.491
   7.180        155.83	    13.675
   7.200        166.67	    14.142
   7.220        160.00	    13.856
   7.240        164.17	    14.036
   7.260        150.00	    13.416
   7.280        190.83	    15.133
   7.300        163.33	    14.000
   7.320        175.83	    14.526
   7.340        179.17	    14.663
   7.360        158.33	    13.784
   7.380        156.67	    13.711
   7.400        163.33	    14.000
   7.420        159.17	    13.820
   7.440        157.50	    13.748
   7.460        159.17	    13.820
   7.480        167.50	    14.177
   7.500        151.67	    13.491
   7.520        157.50	    13.748
   7.540        151.67	    13.491
   7.560        145.83	    13.229
   7.580        138.33	    12.884
   7.600        142.50	    13.077
   7.620        159.17	    13.820
   7.640        165.00	    14.071
   7.660        165.83	    14.107
   7.680        171.67	    14.353
   7.700        147.50	    13.304
   7.720        135.00	    12.728
   7.740        140.00	    12.961
   7.760        136.67	    12.806
   7.780        152.50	    13.528
   7.800        131.67	    12.570
   7.820        158.33	    13.784
   7.840        135.00	    12.728
   7.860        171.67	    14.353
   7.880        145.83	    13.229
   7.900        163.33	    14.000
   7.920        146.67	    13.266
   7.940        148.33	    13.342
   7.960        124.17	    12.207
   7.980        160.83	    13.892
   8.000        157.50	    13.748
   8.020        145.00	    13.191
   8.040        141.67	    13.038
   8.060        138.33	    12.884
   8.080        147.50	    13.304
   8.100        155.00	    13.638
   8.120        141.67	    13.038
   8.140        159.17	    13.820
   8.160        137.50	    12.845
   8.180        144.17	    13.153
   8.200        137.50	    12.845
   8.220        152.50	    13.528
   8.240        136.67	    12.806
   8.260        132.50	    12.610
   8.280        120.83	    12.042
   8.300        125.83	    12.288
   8.320        135.83	    12.767
   8.340        138.33	    12.884
   8.360        135.00	    12.728
   8.380        144.17	    13.153
   8.400        144.17	    13.153
   8.420        150.83	    13.454
   8.440        151.67	    13.491
   8.460        150.00	    13.416
   8.480        158.33	    13.784
   8.500        159.17	    13.820
   8.520        140.00	    12.961
   8.540        147.50	    13.304
   8.560        160.00	    13.856
   8.580        176.67	    14.560
   8.600        192.50	    15.199
   8.620        184.17	    14.866
   8.640        190.83	    15.133
   8.660        224.17	    16.401
   8.680        211.67	    15.937
   8.700        238.33	    16.912
   8.720        260.00	    17.664
   8.740        303.33	    19.079
   8.760        402.50	    21.977
   8.780        465.00	    23.622
   8.800        463.33	    23.580
   8.820        365.83	    20.952
   8.840        289.17	    18.628
   8.860        216.67	    16.125
   8.880        194.17	    15.264
   8.900        155.83	    13.675
   8.920        155.00	    13.638
   8.940        139.17	    12.923
   8.960        145.00	    13.191
   8.980        140.00	    12.961
   9.000        135.00	    12.728
   9.020        104.17	    11.180
   9.040        130.00	    12.490
   9.060        145.83	    13.229
   9.080        135.83	    12.767
   9.100        140.83	    13.000
   9.120        111.67	    11.576
   9.140        110.00	    11.489
   9.160        120.00	    12.000
   9.180        129.17	    12.450
   9.200        131.67	    12.570
   9.220        110.83	    11.533
   9.240        140.00	    12.961
   9.260        122.50	    12.124
   9.280        130.83	    12.530
   9.300        135.83	    12.767
   9.320        125.00	    12.247
   9.340        165.83	    14.107
   9.360        139.17	    12.923
   9.380        133.33	    12.649
   9.400        134.17	    12.689
   9.420        141.67	    13.038
   9.440        128.33	    12.410
   9.460        120.83	    12.042
   9.480        106.67	    11.314
   9.500        112.50	    11.619
   9.520        121.67	    12.083
   9.540        133.33	    12.649
   9.560        123.33	    12.166
   9.580        119.17	    11.958
   9.600         99.17	    10.909
   9.620        115.83	    11.790
   9.640         81.67	     9.899
   9.660        125.00	    12.247
   9.680        106.67	    11.314
   9.700        111.67	    11.576
   9.720        115.00	    11.747
   9.740        121.67	    12.083
   9.760        119.17	    11.958
   9.780        107.50	    11.358
   9.800        122.50	    12.124
   9.820        109.17	    11.446
   9.840        121.67	    12.083
   9.860        116.67	    11.832
   9.880        111.67	    11.576
   9.900        107.50	    11.358
   9.920        106.67	    11.314
   9.940        118.33	    11.916
   9.960        102.50	    11.091
   9.980        110.00	    11.489
  10.000        100.83	    11.000
  10.020        105.83	    11.269
  10.040        109.17	    11.446
  10.060         93.33	    10.583
  10.080        111.67	    11.576
  10.100        110.83	    11.533
  10.120        105.83	    11.269
  10.140         87.50	    10.247
  10.160         96.67	    10.770
  10.180         99.17	    10.909
  10.200        113.33	    11.662
  10.220        114.17	    11.705
  10.240        101.67	    11.045
  10.260        109.17	    11.446
  10.280         95.83	    10.724
  10.300        100.83	    11.000
  10.320        142.50	    13.077
  10.340        117.50	    11.874
  10.360        124.17	    12.207
  10.380        106.67	    11.314
  10.400        115.83	    11.790
  10.420        133.33	    12.649
  10.440        148.33	    13.342
  10.460        116.67	    11.832
  10.480        128.33	    12.410
  10.500        107.50	    11.358
  10.520        106.67	    11.314
  10.540        106.67	    11.314
  10.560         95.00	    10.677
  10.580         90.83	    10.440
  10.600        111.67	    11.576
  10.620         84.17	    10.050
  10.640        112.50	    11.619
  10.660         84.17	    10.050
  10.680        105.83	    11.269
  10.700        105.00	    11.225
  10.720         88.33	    10.296
  10.740         97.50	    10.817
  10.760        103.33	    11.136
  10.780         98.33	    10.863
  10.800        100.00	    10.954
  10.820        100.00	    10.954
  10.840         94.17	    10.630
  10.860         95.83	    10.724
  10.880         77.50	     9.644
  10.900         96.67	    10.770
  10.920        117.50	    11.874
  10.940         95.83	    10.724
  10.960        105.83	    11.269
  10.980        110.83	    11.533
  11.000         95.83	    10.724
  11.020        104.17	    11.180
  11.040        106.67	    11.314
  11.060        105.83	    11.269
  11.080         79.17	     9.747
  11.100        105.00	    11.225
  11.120         95.00	    10.677
  11.140         99.17	    10.909
  11.160         80.00	     9.798
  11.180        100.00	    10.954
  11.200         93.33	    10.583
  11.220         95.00	    10.677
  11.240        100.83	    11.000
  11.260         98.33	    10.863
  11.280         86.67	    10.198
  11.300         97.50	    10.817
  11.320         88.33	    10.296
  11.340         76.67	     9.592
  11.360         83.33	    10.000
  11.380        100.83	    11.000
  11.400         75.83	     9.539
  11.420        107.50	    11.358
  11.440         96.67	    10.770
  11.460         86.67	    10.198
  11.480        101.67	    11.045
  11.500         91.67	    10.488
  11.520        105.83	    11.269
  11.540         97.50	    10.817
  11.560         83.33	    10.000
  11.580         80.83	     9.849
  11.600         92.50	    10.536
  11.620         97.50	    10.817
  11.640         88.33	    10.296
  11.660         95.00	    10.677
  11.680         80.00	     9.798
  11.700         90.00	    10.392
  11.720         89.17	    10.344
  11.740         85.83	    10.149
  11.760        100.00	    10.954
  11.780         89.17	    10.344
  11.800        100.00	    10.954
  11.820         85.00	    10.100
  11.840         98.33	    10.863
  11.860         81.67	     9.899
  11.880        104.17	    11.180
  11.900         95.00	    10.677
  11.920        100.00	    10.954
  11.940         92.50	    10.536
  11.960        103.33	    11.136
  11.980        110.00	    11.489
  12.000        127.50	    12.369
  12.020        163.33	    14.000
  12.040        130.00	    12.490
  12.060        155.00	    13.638
  12.080        203.33	    15.620
  12.100        227.50	    16.523
  12.120        246.67	    17.205
  12.140        216.67	    16.125
  12.160        155.00	    13.638
  12.180        145.00	    13.191
  12.200        139.17	    12.923
  12.220        136.67	    12.806
  12.240        128.33	    12.410
  12.260        153.33	    13.565
  12.280        157.50	    13.748
  12.300        145.83	    13.229
  12.320        142.50	    13.077
  12.340        182.50	    14.799
  12.360        206.67	    15.748
  12.380        234.17	    16.763
  12.400        270.00	    18.000
  12.420        290.83	    18.682
  12.440        214.17	    16.031
  12.460        153.33	    13.565
  12.480        140.83	    13.000
  12.500        101.67	    11.045
  12.520        120.00	    12.000
  12.540         89.17	    10.344
  12.560        104.17	    11.180
  12.580         86.67	    10.198
  12.600         85.00	    10.100
  12.620         96.67	    10.770
  12.640         90.00	    10.392
  12.660         94.17	    10.630
  12.680         86.67	    10.198
  12.700         67.50	     9.000
  12.720         76.67	     9.592
  12.740         82.50	     9.950
  12.760         60.00	     8.485
  12.780         88.33	    10.296
  12.800         60.83	     8.544
  12.820         78.33	     9.695
  12.840         54.17	     8.062
  12.860         65.83	     8.888
  12.880         66.67	     8.944
  12.900         80.00	     9.798
  12.920         81.67	     9.899
  12.940         85.00	    10.100
  12.960         74.17	     9.434
  12.980         79.17	     9.747
  13.000         68.33	     9.055
  13.020         81.67	     9.899
  13.040         77.50	     9.644
  13.060         70.83	     9.220
  13.080         73.33	     9.381
  13.100         82.50	     9.950
  13.120         89.17	    10.344
  13.140         74.17	     9.434
  13.160         79.17	     9.747
  13.180         71.67	     9.274
  13.200         84.17	    10.050
  13.220         75.00	     9.487
  13.240         79.17	     9.747
  13.260         85.83	    10.149
  13.280         79.17	     9.747
  13.300         72.50	     9.327
  13.320         84.17	    10.050
  13.340         86.67	    10.198
  13.360         74.17	     9.434
  13.380         58.33	     8.367
  13.400         78.33	     9.695
  13.420         83.33	    10.000
  13.440         80.83	     9.849
  13.460         84.17	    10.050
  13.480         69.17	     9.110
  13.500         62.50	     8.660
  13.520         84.17	    10.050
  13.540         80.00	     9.798
  13.560        103.33	    11.136
  13.580         87.50	    10.247
  13.600         90.83	    10.440
  13.620         70.00	     9.165
  13.640         75.83	     9.539
  13.660         75.00	     9.487
  13.680         94.17	    10.630
  13.700         81.67	     9.899
  13.720         92.50	    10.536
  13.740         87.50	    10.247
  13.760         97.50	    10.817
  13.780         95.83	    10.724
  13.800         86.67	    10.198
  13.820         77.50	     9.644
  13.840         90.00	    10.392
  13.860         65.00	     8.832
  13.880         68.33	     9.055
  13.900         80.83	     9.849
  13.920         65.83	     8.888
  13.940         82.50	     9.950
  13.960         65.83	     8.888
  13.980         81.67	     9.899
  14.000         69.17	     9.110
  14.020         65.00	     8.832
  14.040         63.33	     8.718
  14.060         66.67	     8.944
  14.080         68.33	     9.055
  14.100         70.83	     9.220
  14.120         77.50	     9.644
  14.140         71.67	     9.274
  14.160         74.17	     9.434
  14.180         82.50	     9.950
  14.200         66.67	     8.944
  14.220         67.50	     9.000
  14.240         66.67	     8.944
  14.260         65.83	     8.888
  14.280         70.83	     9.220
  14.300         69.17	     9.110
  14.320         82.50	     9.950
  14.340         66.67	     8.944
  14.360         74.17	     9.434
  14.380         80.83	     9.849
  14.400         61.67	     8.602
  14.420         71.67	     9.274
  14.440         83.33	    10.000
  14.460         64.17	     8.775
  14.480         67.50	     9.000
  14.500         75.00	     9.487
  14.520         64.17	     8.775
  14.540         64.17	     8.775
  14.560         60.83	     8.544
  14.580         60.00	     8.485
  14.600         67.50	     9.000
  14.620         66.67	     8.944
  14.640         72.50	     9.327
  14.660         68.33	     9.055
  14.680         57.50	     8.307
  14.700         75.83	     9.539
  14.720         79.17	     9.747
  14.740         64.17	     8.775
  14.760         64.17	     8.775
  14.780         65.00	     8.832
  14.800         55.83	     8.185
  14.820         63.33	     8.718
  14.840         63.33	     8.718
  14.860         54.17	     8.062
  14.880         80.83	     9.849
  14.900         74.17	     9.434
  14.920         83.33	    10.000
  14.940         78.33	     9.695
  14.960         77.50	     9.644
  14.980         64.17	     8.775
  15.000         69.17	     9.110
  15.020         73.33	     9.381
  15.040         68.33	     9.055
  15.060         76.67	     9.592
  15.080         62.50	     8.660
  15.100         59.17	     8.426
  15.120         57.50	     8.307
  15.140         73.33	     9.381
  15.160         67.50	     9.000
  15.180         67.50	     9.000
  15.200         56.67	     8.246
  15.220         75.00	     9.487
  15.240         67.50	     9.000
  15.260         74.17	     9.434
  15.280         67.50	     9.000
  15.300         68.33	     9.055
  15.320         64.17	     8.775
  15.340         45.83	     7.416
  15.360         63.33	     8.718
  15.380         65.83	     8.888
  15.400         70.83	     9.220
  15.420         65.00	     8.832
  15.440         64.17	     8.775
  15.460         70.83	     9.220
  15.480         59.17	     8.426
  15.500         74.17	     9.434
  15.520         60.83	     8.544
  15.540         70.83	     9.220
  15.560         60.83	     8.544
  15.580         72.50	     9.327
  15.600         59.17	     8.426
  15.620         66.67	     8.944
  15.640         62.50	     8.660
  15.660         54.17	     8.062
  15.680         58.33	     8.367
  15.700         78.33	     9.695
  15.720         51.67	     7.874
  15.740         55.83	     8.185
  15.760         63.33	     8.718
  15.780         63.33	     8.718
  15.800         68.33	     9.055
  15.820         65.83	     8.888
  15.840         56.67	     8.246
  15.860         66.67	     8.944
  15.880         65.00	     8.832
  15.900         70.83	     9.220
  15.920         63.33	     8.718
  15.940         58.33	     8.367
  15.960         52.50	     7.937
  15.980         62.50	     8.660
  16.000         50.00	     7.746
  16.020         67.50	     9.000
  16.040         66.67	     8.944
  16.060         55.83	     8.185
  16.080         64.17	     8.775
  16.100         62.50	     8.660
  16.120         55.83	     8.185
  16.140         51.67	     7.874
  16.160         54.17	     8.062
  16.180         65.83	     8.888
  16.200         63.33	     8.718
  16.220         50.83	     7.810
  16.240         56.67	     8.246
  16.260         64.17	     8.775
  16.280         50.83	     7.810
  16.300         60.00	     8.485
  16.320         56.67	     8.246
  16.340         64.17	     8.775
  16.360         62.50	     8.660
  16.380         60.83	     8.544
  16.400         54.17	     8.062
  16.420         53.33	     8.000
  16.440         80.00	     9.798
  16.460         55.00	     8.124
  16.480         62.50	     8.660
  16.500         65.83	     8.888
  16.520         60.00	     8.485
  16.540         58.33	     8.367
  16.560         57.50	     8.307
  16.580         72.50	     9.327
  16.600         60.83	     8.544
  16.620         67.50	     9.000
  16.640         56.67	     8.246
  16.660         62.50	     8.660
  16.680         55.00	     8.124
  16.700         69.17	     9.110
  16.720         50.83	     7.810
  16.740         69.17	     9.110
  16.760         58.33	     8.367
  16.780         61.67	     8.602
  16.800         65.83	     8.888
  16.820         62.50	     8.660
  16.840         63.33	     8.718
  16.860         55.83	     8.185
  16.880         65.00	     8.832
  16.900         85.83	    10.149
  16.920         59.17	     8.426
  16.940         72.50	     9.327
  16.960         60.00	     8.485
  16.980         60.00	     8.485
  17.000         53.33	     8.000
  17.020         50.83	     7.810
  17.040         67.50	     9.000
  17.060         65.83	     8.888
  17.080         63.33	     8.718
  17.100         54.17	     8.062
  17.120         64.17	     8.775
  17.140         57.50	     8.307
  17.160         61.67	     8.602
  17.180         55.00	     8.124
  17.200         65.83	     8.888
  17.220         60.83	     8.544
  17.240         57.50	     8.307
  17.260         57.50	     8.307
  17.280         67.50	     9.000
  17.300         67.50	     9.000
  17.320         53.33	     8.000
  17.340         65.83	     8.888
  17.360         70.00	     9.165
  17.380         56.67	     8.246
  17.400         80.83	     9.849
  17.420         57.50	     8.307
  17.440         69.17	     9.110
  17.460         59.17	     8.426
  17.480         58.33	     8.367
  17.500         70.00	     9.165
  17.520         60.83	     8.544
  17.540         83.33	    10.000
  17.560         59.17	     8.426
  17.580         79.17	     9.747
  17.600         78.33	     9.695
  17.620         73.33	     9.381
  17.640        102.50	    11.091
  17.660         96.67	    10.770
  17.680        110.83	    11.533
  17.700        133.33	    12.649
  17.720        167.50	    14.177
  17.740        163.33	    14.000
  17.760        147.50	    13.304
  17.780        146.67	    13.266
  17.800        101.67	    11.045
  17.820         91.67	    10.488
  17.840         68.33	     9.055
  17.860         60.83	     8.544
  17.880         61.67	     8.602
  17.900         59.17	     8.426
  17.920         82.50	     9.950
  17.940         60.83	     8.544
  17.960         62.50	     8.660
  17.980         66.67	     8.944
  18.000         58.33	     8.367
  18.020         48.33	     7.616
  18.040         55.83	     8.185
  18.060         55.00	     8.124
  18.080         51.67	     7.874
  18.100         57.50	     8.307
  18.120         50.83	     7.810
  18.140         70.00	     9.165
  18.160         61.67	     8.602
  18.180         60.00	     8.485
  18.200         62.50	     8.660
  18.220         55.83	     8.185
  18.240         60.83	     8.544
  18.260         69.17	     9.110
  18.280         63.33	     8.718
  18.300         60.83	     8.544
  18.320         50.00	     7.746
  18.340         63.33	     8.718
  18.360         76.67	     9.592
  18.380         77.50	     9.644
  18.400         78.33	     9.695
  18.420         72.50	     9.327
  18.440         72.50	     9.327
  18.460        110.83	    11.533
  18.480         80.83	     9.849
  18.500         82.50	     9.950
  18.520         81.67	     9.899
  18.540         80.83	     9.849
  18.560         85.83	    10.149
  18.580         71.67	     9.274
  18.600         80.00	     9.798
  18.620         78.33	     9.695
  18.640         90.83	    10.440
  18.660        105.83	    11.269
  18.680        132.50	    12.610
  18.700        128.33	    12.410
  18.720        135.83	    12.767
  18.740        117.50	    11.874
  18.760        108.33	    11.402
  18.780         86.67	    10.198
  18.800         70.00	     9.165
  18.820         85.83	    10.149
  18.840         58.33	     8.367
  18.860         58.33	     8.367
  18.880         65.00	     8.832
  18.900         68.33	     9.055
  18.920         65.00	     8.832
  18.940         51.67	     7.874
  18.960         65.00	     8.832
  18.980         53.33	     8.000
  19.000         65.00	     8.832
  19.020         50.00	     7.746
  19.040         70.83	     9.220
  19.060         50.00	     7.746
  19.080         67.50	     9.000
  19.100         80.00	     9.798
  19.120         70.00	     9.165
  19.140         69.17	     9.110
  19.160         75.00	     9.487
  19.180         75.00	     9.487
  19.200         59.17	     8.426
  19.220         55.83	     8.185
  19.240         68.33	     9.055
  19.260         71.67	     9.274
  19.280         65.83	     8.888
  19.300         68.33	     9.055
  19.320         58.33	     8.367
  19.340         57.50	     8.307
  19.360         53.33	     8.000
  19.380         65.83	     8.888
  19.400         60.83	     8.544
  19.420         61.67	     8.602
  19.440         67.50	     9.000
  19.460         61.67	     8.602
  19.480         67.50	     9.000
  19.500         66.67	     8.944
  19.520         65.83	     8.888
  19.540        106.67	    11.314
  19.560        188.33	    15.033
  19.580        126.67	    12.329
  19.600        128.33	    12.410
  19.620        143.33	    13.115
  19.640         93.33	    10.583
  19.660         92.50	    10.536
  19.680        103.33	    11.136
  19.700         83.33	    10.000
  19.720        101.67	    11.045
  19.740        115.83	    11.790
  19.760        105.00	    11.225
  19.780        112.50	    11.619
  19.800         91.67	    10.488
  19.820         98.33	    10.863
  19.840         94.17	    10.630
  19.860         85.83	    10.149
  19.880         75.83	     9.539
  19.900         74.17	     9.434
  19.920         60.00	     8.485
  19.940         65.00	     8.832
  19.960         63.33	     8.718
  19.980         65.00	     8.832
  20.000         60.00	     8.485
  20.020         55.00	     8.124
  20.040         65.83	     8.888
  20.060         65.00	     8.832
  20.080         57.50	     8.307
  20.100         55.00	     8.124
  20.120         68.33	     9.055
  20.140         70.00	     9.165
  20.160         57.50	     8.307
  20.180         56.67	     8.246
  20.200         59.17	     8.426
  20.220         56.67	     8.246
  20.240         64.17	     8.775
  20.260         80.00	     9.798
  20.280         45.83	     7.416
  20.300         56.67	     8.246
  20.320         58.33	     8.367
  20.340         44.17	     7.280
  20.360         54.17	     8.062
  20.380         50.83	     7.810
  20.400         55.83	     8.185
  20.420         60.00	     8.485
  20.440         54.17	     8.062
  20.460         55.83	     8.185
  20.480         63.33	     8.718
  20.500         65.83	     8.888
  20.520         58.33	     8.367
  20.540         61.67	     8.602
  20.560         66.67	     8.944
  20.580         72.50	     9.327
  20.600         72.50	     9.327
  20.620         74.17	     9.434
  20.640         78.33	     9.695
  20.660         83.33	    10.000
  20.680         92.50	    10.536
  20.700        130.83	    12.530
  20.720        184.17	    14.866
  20.740        282.50	    18.412
  20.760        292.50	    18.735
  20.780        332.50	    19.975
  20.800        283.33	    18.439
  20.820        209.17	    15.843
  20.840        158.33	    13.784
  20.860        138.33	    12.884
  20.880        133.33	    12.649
  20.900        116.67	    11.832
  20.920        110.83	    11.533
  20.940        100.83	    11.000
  20.960         80.00	     9.798
  20.980         92.50	    10.536
  21.000         79.17	     9.747
  21.020         55.83	     8.185
  21.040         53.33	     8.000
  21.060         65.00	     8.832
  21.080         60.83	     8.544
  21.100         69.17	     9.110
  21.120         55.00	     8.124
  21.140         53.33	     8.000
  21.160         55.00	     8.124
  21.180         55.00	     8.124
  21.200         60.00	     8.485
  21.220         52.50	     7.937
  21.240         55.00	     8.124
  21.260         56.67	     8.246
  21.280         49.17	     7.681
  21.300         60.83	     8.544
  21.320         64.17	     8.775
  21.340         59.17	     8.426
  21.360         44.17	     7.280
  21.380         61.67	     8.602
  21.400         51.67	     7.874
  21.420         45.00	     7.348
  21.440         52.50	     7.937
  21.460         50.83	     7.810
  21.480         56.67	     8.246
  21.500         75.83	     9.539
  21.520         70.00	     9.165
  21.540         62.50	     8.660
  21.560         59.17	     8.426
  21.580         58.33	     8.367
  21.600         56.67	     8.246
  21.620         63.33	     8.718
  21.640         45.83	     7.416
  21.660         62.50	     8.660
  21.680         51.67	     7.874
  21.700         58.33	     8.367
  21.720         65.83	     8.888
  21.740         45.83	     7.416
  21.760         54.17	     8.062
  21.780         67.50	     9.000
  21.800         63.33	     8.718
  21.820         67.50	     9.000
  21.840         70.83	     9.220
  21.860         81.67	     9.899
  21.880         85.00	    10.100
  21.900        120.83	    12.042
  21.920        142.50	    13.077
  21.940        171.67	    14.353
  21.960        160.83	    13.892
  21.980        171.67	    14.353
  22.000        130.00	    12.490
  22.020         91.67	    10.488
  22.040         70.00	     9.165
  22.060         70.00	     9.165
  22.080         55.83	     8.185
  22.100         68.33	     9.055
  22.120         73.33	     9.381
  22.140         53.33	     8.000
  22.160         55.83	     8.185
  22.180         63.33	     8.718
  22.200         61.67	     8.602
  22.220         58.33	     8.367
  22.240         50.00	     7.746
  22.260         70.83	     9.220
  22.280         65.83	     8.888
  22.300         60.83	     8.544
  22.320         59.17	     8.426
  22.340         60.83	     8.544
  22.360         61.67	     8.602
  22.380         68.33	     9.055
  22.400         44.17	     7.280
  22.420         55.83	     8.185
  22.440         59.17	     8.426
  22.460         70.00	     9.165
  22.480         53.33	     8.000
  22.500         55.00	     8.124
  22.520         60.00	     8.485
  22.540         50.83	     7.810
  22.560         64.17	     8.775
  22.580         60.83	     8.544
  22.600         49.17	     7.681
  22.620         52.50	     7.937
  22.640         47.50	     7.550
  22.660         57.50	     8.307
  22.680         45.83	     7.416
  22.700         74.17	     9.434
  22.720         67.50	     9.000
  22.740         74.17	     9.434
  22.760         84.17	    10.050
  22.780        101.67	    11.045
  22.800         80.00	     9.798
  22.820         94.17	    10.630
  22.840         81.67	     9.899
  22.860         81.67	     9.899
  22.880         83.33	    10.000
  22.900         75.83	     9.539
  22.920         84.17	    10.050
  22.940         77.50	     9.644
  22.960        109.17	    11.446
  22.980         86.67	    10.198
  23.000         91.67	    10.488
  23.020         77.50	     9.644
  23.040         83.33	    10.000
  23.060         69.17	     9.110
  23.080         58.33	     8.367
  23.100         60.83	     8.544
  23.120         66.67	     8.944
  23.140         54.17	     8.062
  23.160         63.33	     8.718
  23.180         71.67	     9.274
  23.200         65.00	     8.832
  23.220         48.33	     7.616
  23.240         60.00	     8.485
  23.260         66.67	     8.944
  23.280         64.17	     8.775
  23.300         55.83	     8.185
  23.320         74.17	     9.434
  23.340         68.33	     9.055
  23.360         82.50	     9.950
  23.380         89.17	    10.344
  23.400        118.33	    11.916
  23.420        135.00	    12.728
  23.440        164.17	    14.036
  23.460        152.50	    13.528
  23.480        155.83	    13.675
  23.500        135.83	    12.767
  23.520        117.50	    11.874
  23.540        120.00	    12.000
  23.560         89.17	    10.344
  23.580         94.17	    10.630
  23.600         85.83	    10.149
  23.620         68.33	     9.055
  23.640         74.17	     9.434
  23.660         85.83	    10.149
  23.680         85.00	    10.100
  23.700         85.83	    10.149
  23.720         85.83	    10.149
  23.740         82.50	     9.950
  23.760         88.33	    10.296
  23.780         60.83	     8.544
  23.800         77.50	     9.644
  23.820         64.17	     8.775
  23.840         60.00	     8.485
  23.860         75.00	     9.487
  23.880         61.67	     8.602
  23.900         57.50	     8.307
  23.920         68.33	     9.055
  23.940         89.17	    10.344
  23.960         74.17	     9.434
  23.980         86.67	    10.198
  24.000         95.00	    10.677
  24.020         98.33	    10.863
  24.040         96.67	    10.770
  24.060        117.50	    11.874
  24.080        100.83	    11.000
  24.100        103.33	    11.136
  24.120        129.17	    12.450
  24.140        160.83	    13.892
  24.160        146.67	    13.266
  24.180        152.50	    13.528
  24.200        140.00	    12.961
  24.220        149.17	    13.379
  24.240        129.17	    12.450
  24.260        133.33	    12.649
  24.280         90.83	    10.440
  24.300         87.50	    10.247
  24.320         95.83	    10.724
  24.340         88.33	    10.296
  24.360         78.33	     9.695
  24.380         82.50	     9.950
  24.400         95.00	    10.677
  24.420         91.67	    10.488
  24.440        119.17	    11.958
  24.460        148.33	    13.342
  24.480        140.83	    13.000
  24.500        187.50	    15.000
  24.520        159.17	    13.820
  24.540        181.67	    14.765
  24.560        138.33	    12.884
  24.580        141.67	    13.038
  24.600        108.33	    11.402
  24.620        114.17	    11.705
  24.640        105.00	    11.225
  24.660         97.50	    10.817
  24.680         97.50	    10.817
  24.700         99.17	    10.909
  24.720        120.00	    12.000
  24.740         85.00	    10.100
  24.760        100.00	    10.954
  24.780         97.50	    10.817
  24.800        106.67	    11.314
  24.820         95.00	    10.677
  24.840         73.33	     9.381
  24.860         99.17	    10.909
  24.880         80.00	     9.798
  24.900         75.00	     9.487
  24.920         91.67	    10.488
  24.940         97.50	    10.817
  24.960         96.67	    10.770
  24.980        118.33	    11.916
  25.000        136.67	    12.806
  25.020        160.83	    13.892
  25.040        196.67	    15.362
  25.060        194.17	    15.264
  25.080        221.67	    16.310
  25.100        205.00	    15.684
  25.120        123.33	    12.166
  25.140        153.33	    13.565
  25.160        127.50	    12.369
  25.180        103.33	    11.136
  25.200         80.00	     9.798
  25.220         90.83	    10.440
  25.240         88.33	    10.296
  25.260         87.50	    10.247
  25.280        105.00	    11.225
  25.300         89.17	    10.344
  25.320        134.17	    12.689
  25.340        125.83	    12.288
  25.360        140.00	    12.961
  25.380        120.83	    12.042
  25.400        159.17	    13.820
  25.420        141.67	    13.038
  25.440        150.00	    13.416
  25.460        145.00	    13.191
  25.480        170.83	    14.318
  25.500        143.33	    13.115
  25.520        157.50	    13.748
  25.540        145.00	    13.191
  25.560        136.67	    12.806
  25.580        116.67	    11.832
  25.600         96.67	    10.770
  25.620        100.83	    11.000
  25.640         76.67	     9.592
  25.660         67.50	     9.000
  25.680         81.67	     9.899
  25.700         67.50	     9.000
  25.720         73.33	     9.381
  25.740         68.33	     9.055
  25.760         68.33	     9.055
  25.780         67.50	     9.000
  25.800         66.67	     8.944
  25.820         61.67	     8.602
  25.840         72.50	     9.327
  25.860         61.67	     8.602
  25.880         65.00	     8.832
  25.900         46.67	     7.483
  25.920         67.50	     9.000
  25.940         60.83	     8.544
  25.960         75.00	     9.487
  25.980         69.17	     9.110
  26.000         65.00	     8.832
  26.020         64.17	     8.775
  26.040         75.00	     9.487
  26.060         70.83	     9.220
  26.080         71.67	     9.274
  26.100         65.83	     8.888
  26.120         75.83	     9.539
  26.140         75.83	     9.539
  26.160         57.50	     8.307
  26.180         99.17	    10.909
  26.200         87.50	    10.247
  26.220         90.83	    10.440
  26.240        103.33	    11.136
  26.260         81.67	     9.899
  26.280        108.33	    11.402
  26.300        145.83	    13.229
  26.320        172.50	    14.387
  26.340        175.00	    14.491
  26.360        154.17	    13.601
  26.380        172.50	    14.387
  26.400        196.67	    15.362
  26.420        235.00	    16.793
  26.440        248.33	    17.263
  26.460        373.33	    21.166
  26.480        616.67	    27.203
  26.500       1184.17	    37.696
  26.520       1978.33	    48.724
  26.540       2856.67	    58.549
  26.560       2635.83	    56.241
  26.580       1941.67	    48.270
  26.600       1979.17	    48.734
  26.620       1691.67	    45.056
  26.640       1032.50	    35.199
  26.660        676.67	    28.496
  26.680        455.00	    23.367
  26.700        400.83	    21.932
  26.720        379.17	    21.331
  26.740        429.17	    22.694
  26.760        393.33	    21.726
  26.780        393.33	    21.726
  26.800        368.33	    21.024
  26.820        331.67	    19.950
  26.840        290.83	    18.682
  26.860        213.33	    16.000
  26.880        183.33	    14.832
  26.900        155.00	    13.638
  26.920        168.33	    14.213
  26.940        185.00	    14.900
  26.960        219.17	    16.217
  26.980        237.50	    16.882
  27.000        236.67	    16.852
  27.020        192.50	    15.199
  27.040        153.33	    13.565
  27.060        170.00	    14.283
  27.080        147.50	    13.304
  27.100        105.83	    11.269
  27.120        102.50	    11.091
  27.140         87.50	    10.247
  27.160         91.67	    10.488
  27.180         90.83	    10.440
  27.200         87.50	    10.247
  27.220         98.33	    10.863
  27.240         86.67	    10.198
  27.260         92.50	    10.536
  27.280        120.83	    12.042
  27.300        145.83	    13.229
  27.320        140.83	    13.000
  27.340        135.83	    12.767
  27.360        161.67	    13.928
  27.380        176.67	    14.560
  27.400        209.17	    15.843
  27.420        191.67	    15.166
  27.440        177.50	    14.595
  27.460        152.50	    13.528
  27.480        123.33	    12.166
  27.500        125.00	    12.247
  27.520        112.50	    11.619
  27.540         91.67	    10.488
  27.560        100.00	    10.954
  27.580        122.50	    12.124
  27.600        148.33	    13.342
  27.620        216.67	    16.125
  27.640        197.50	    15.395
  27.660        192.50	    15.199
  27.680        197.50	    15.395
  27.700        187.50	    15.000
  27.720        214.17	    16.031
  27.740        225.00	    16.432
  27.760        262.50	    17.748
  27.780        344.17	    20.322
  27.800        359.17	    20.761
  27.820        390.83	    21.656
  27.840        428.33	    22.672
  27.860        368.33	    21.024
  27.880        323.33	    19.698
  27.900        310.00	    19.287
  27.920        237.50	    16.882
  27.940        200.00	    15.492
  27.960        155.00	    13.638
  27.980        145.83	    13.229
  28.000        135.00	    12.728
  28.020        149.17	    13.379
  28.040        128.33	    12.410
  28.060        149.17	    13.379
  28.080        160.00	    13.856
  28.100        131.67	    12.570
  28.120         98.33	    10.863
  28.140        110.00	    11.489
  28.160        120.00	    12.000
  28.180        110.00	    11.489
  28.200        109.17	    11.446
  28.220        132.50	    12.610
  28.240        115.83	    11.790
  28.260         85.00	    10.100
  28.280         83.33	    10.000
  28.300         85.00	    10.100
  28.320         60.00	     8.485
  28.340         59.17	     8.426
  28.360         66.67	     8.944
  28.380         58.33	     8.367
  28.400         66.67	     8.944
  28.420         82.50	     9.950
  28.440         90.00	    10.392
  28.460         76.67	     9.592
  28.480        100.00	    10.954
  28.500         81.67	     9.899
  28.520        113.33	    11.662
  28.540         78.33	     9.695
  28.560         82.50	     9.950
  28.580         85.00	    10.100
  28.600         83.33	    10.000
  28.620         55.00	     8.124
  28.640         74.17	     9.434
  28.660         68.33	     9.055
  28.680         59.17	     8.426
  28.700         72.50	     9.327
  28.720         67.50	     9.000
  28.740         63.33	     8.718
  28.760         60.00	     8.485
  28.780         60.83	     8.544
  28.800         56.67	     8.246
  28.820         58.33	     8.367
  28.840         56.67	     8.246
  28.860         54.17	     8.062
  28.880         48.33	     7.616
  28.900         63.33	     8.718
  28.920         51.67	     7.874
  28.940         55.00	     8.124
  28.960         40.83	     7.000
  28.980         41.67	     7.071
  29.000         41.67	     7.071
  29.020         54.17	     8.062
  29.040         54.17	     8.062
  29.060         55.00	     8.124
  29.080         45.83	     7.416
  29.100         50.83	     7.810
  29.120         44.17	     7.280
  29.140         50.00	     7.746
  29.160         35.83	     6.557
  29.180         41.67	     7.071
  29.200         45.00	     7.348
  29.220         35.00	     6.481
  29.240         45.83	     7.416
  29.260         44.17	     7.280
  29.280         52.50	     7.937
  29.300         43.33	     7.211
  29.320         49.17	     7.681
  29.340         45.83	     7.416
  29.360         60.00	     8.485
  29.380         65.00	     8.832
  29.400         60.83	     8.544
  29.420         63.33	     8.718
  29.440         52.50	     7.937
  29.460         66.67	     8.944
  29.480         54.17	     8.062
  29.500         52.50	     7.937
  29.520         53.33	     8.000
  29.540         58.33	     8.367
  29.560         60.00	     8.485
  29.580         52.50	     7.937
  29.600         60.83	     8.544
  29.620         73.33	     9.381
  29.640         63.33	     8.718
  29.660         73.33	     9.381
  29.680         88.33	    10.296
  29.700        104.17	    11.180
  29.720         98.33	    10.863
  29.740        119.17	    11.958
  29.760        121.67	    12.083
  29.780        125.83	    12.288
  29.800        139.17	    12.923
  29.820        145.00	    13.191
  29.840        115.00	    11.747
  29.860        124.17	    12.207
  29.880        106.67	    11.314
  29.900         93.33	    10.583
  29.920        100.83	    11.000
  29.940         88.33	    10.296
  29.960         85.83	    10.149
  29.980         80.83	     9.849
  30.000         86.67	    10.198
  30.020         83.33	    10.000
  30.040         71.67	     9.274
  30.060         76.67	     9.592
  30.080         79.17	     9.747
  30.100         98.33	    10.863
  30.120         77.50	     9.644
  30.140         70.83	     9.220
  30.160         70.00	     9.165
  30.180         78.33	     9.695
  30.200         69.17	     9.110
  30.220         77.50	     9.644
  30.240         57.50	     8.307
  30.260         74.17	     9.434
  30.280         70.00	     9.165
  30.300         80.83	     9.849
  30.320         73.33	     9.381
  30.340         93.33	    10.583
  30.360        109.17	    11.446
  30.380        130.00	    12.490
  30.400        145.00	    13.191
  30.420        206.67	    15.748
  30.440        181.67	    14.765
  30.460        113.33	    11.662
  30.480        118.33	    11.916
  30.500        107.50	    11.358
  30.520        110.00	    11.489
  30.540         75.00	     9.487
  30.560         56.67	     8.246
  30.580         50.83	     7.810
  30.600         62.50	     8.660
  30.620         60.00	     8.485
  30.640         60.00	     8.485
  30.660         64.17	     8.775
  30.680         60.00	     8.485
  30.700         87.50	    10.247
  30.720         80.83	     9.849
  30.740        100.83	    11.000
  30.760        104.17	    11.180
  30.780         95.83	    10.724
  30.800         87.50	    10.247
  30.820         62.50	     8.660
  30.840         78.33	     9.695
  30.860         72.50	     9.327
  30.880         50.83	     7.810
  30.900         55.00	     8.124
  30.920         52.50	     7.937
  30.940         44.17	     7.280
  30.960         70.83	     9.220
  30.980         70.00	     9.165
  31.000         55.00	     8.124
  31.020         65.83	     8.888
  31.040         65.00	     8.832
  31.060         88.33	    10.296
  31.080         95.00	    10.677
  31.100         97.50	    10.817
  31.120        110.00	    11.489
  31.140        102.50	    11.091
  31.160        131.67	    12.570
  31.180        129.17	    12.450
  31.200        116.67	    11.832
  31.220         91.67	    10.488
  31.240         86.67	    10.198
  31.260         71.67	     9.274
  31.280         80.83	     9.849
  31.300         75.00	     9.487
  31.320         81.67	     9.899
  31.340         75.00	     9.487
  31.360         65.83	     8.888
  31.380         67.50	     9.000
  31.400         61.67	     8.602
  31.420         72.50	     9.327
  31.440         60.00	     8.485
  31.460         82.50	     9.950
  31.480         85.83	    10.149
  31.500         63.33	     8.718
  31.520         77.50	     9.644
  31.540         74.17	     9.434
  31.560         70.83	     9.220
  31.580         66.67	     8.944
  31.600         69.17	     9.110
  31.620         63.33	     8.718
  31.640         57.50	     8.307
  31.660         57.50	     8.307
  31.680         60.83	     8.544
  31.700         44.17	     7.280
  31.720         44.17	     7.280
  31.740         60.83	     8.544
  31.760         54.17	     8.062
  31.780         69.17	     9.110
  31.800         83.33	    10.000
  31.820         61.67	     8.602
  31.840         65.00	     8.832
  31.860         72.50	     9.327
  31.880         70.00	     9.165
  31.900         65.83	     8.888
  31.920         80.00	     9.798
  31.940         74.17	     9.434
  31.960         64.17	     8.775
  31.980         93.33	    10.583
  32.000         99.17	    10.909
  32.020         90.00	    10.392
  32.040         70.00	     9.165
  32.060         78.33	     9.695
  32.080         70.83	     9.220
  32.100         77.50	     9.644
  32.120         80.00	     9.798
  32.140         96.67	    10.770
  32.160         93.33	    10.583
  32.180         58.33	     8.367
  32.200         81.67	     9.899
  32.220         85.83	    10.149
  32.240         78.33	     9.695
  32.260         58.33	     8.367
  32.280         47.50	     7.550
  32.300         44.17	     7.280
  32.320         58.33	     8.367
  32.340         40.00	     6.928
  32.360         48.33	     7.616
  32.380         39.17	     6.856
  32.400         38.33	     6.782
  32.420         35.83	     6.557
  32.440         40.00	     6.928
  32.460         48.33	     7.616
  32.480         42.50	     7.141
  32.500         40.83	     7.000
  32.520         40.00	     6.928
  32.540         46.67	     7.483
  32.560         45.83	     7.416
  32.580         45.83	     7.416
  32.600         46.67	     7.483
  32.620         69.17	     9.110
  32.640         55.00	     8.124
  32.660         57.50	     8.307
  32.680         57.50	     8.307
  32.700         50.83	     7.810
  32.720         51.67	     7.874
  32.740         39.17	     6.856
  32.760         43.33	     7.211
  32.780         50.00	     7.746
  32.800         59.17	     8.426
  32.820         51.67	     7.874
  32.840         60.83	     8.544
  32.860         47.50	     7.550
  32.880         52.50	     7.937
  32.900         48.33	     7.616
  32.920         56.67	     8.246
  32.940         54.17	     8.062
  32.960         56.67	     8.246
  32.980         79.17	     9.747
  33.000         82.50	     9.950
  33.020         71.67	     9.274
  33.040         57.50	     8.307
  33.060         65.83	     8.888
  33.080         53.33	     8.000
  33.100         55.83	     8.185
  33.120         40.83	     7.000
  33.140         42.50	     7.141
  33.160         45.83	     7.416
  33.180         44.17	     7.280
  33.200         38.33	     6.782
  33.220         43.33	     7.211
  33.240         69.17	     9.110
  33.260         49.17	     7.681
  33.280         63.33	     8.718
  33.300         41.67	     7.071
  33.320         38.33	     6.782
  33.340         47.50	     7.550
  33.360         52.50	     7.937
  33.380         50.00	     7.746
  33.400         49.17	     7.681
  33.420         42.50	     7.141
  33.440         46.67	     7.483
  33.460         45.00	     7.348
  33.480         54.17	     8.062
  33.500         42.50	     7.141
  33.520         56.67	     8.246
  33.540         55.83	     8.185
  33.560         37.50	     6.708
  33.580         58.33	     8.367
  33.600         49.17	     7.681
  33.620         55.00	     8.124
  33.640         50.83	     7.810
  33.660         50.83	     7.810
  33.680         52.50	     7.937
  33.700         60.00	     8.485
  33.720         65.83	     8.888
  33.740         56.67	     8.246
  33.760         81.67	     9.899
  33.780         66.67	     8.944
  33.800         64.17	     8.775
  33.820         87.50	    10.247
  33.840         78.33	     9.695
  33.860         83.33	    10.000
  33.880         70.83	     9.220
  33.900         93.33	    10.583
  33.920         89.17	    10.344
  33.940         86.67	    10.198
  33.960         85.00	    10.100
  33.980        112.50	    11.619
  34.000        107.50	    11.358
  34.020        108.33	    11.402
  34.040        140.00	    12.961
  34.060        340.83	    20.224
  34.080       1325.00	    39.875
  34.100       1504.17	    42.485
  34.120        805.83	    31.097
  34.140        329.17	    19.875
  34.160        534.17	    25.318
  34.180        829.17	    31.544
  34.200        569.17	    26.134
  34.220        217.50	    16.155
  34.240        111.67	    11.576
  34.260        105.83	    11.269
  34.280         99.17	    10.909
  34.300         70.00	     9.165
  34.320         89.17	    10.344
  34.340         88.33	    10.296
  34.360         94.17	    10.630
  34.380        119.17	    11.958
  34.400        104.17	    11.180
  34.420        109.17	    11.446
  34.440         95.83	    10.724
  34.460        111.67	    11.576
  34.480        110.00	    11.489
  34.500        130.83	    12.530
  34.520         95.83	    10.724
  34.540        104.17	    11.180
  34.560        100.83	    11.000
  34.580         83.33	    10.000
  34.600         85.00	    10.100
  34.620         88.33	    10.296
  34.640         90.00	    10.392
  34.660         78.33	     9.695
  34.680         78.33	     9.695
  34.700         73.33	     9.381
  34.720         80.83	     9.849
  34.740         96.67	    10.770
  34.760        107.50	    11.358
  34.780        118.33	    11.916
  34.800        129.17	    12.450
  34.820        111.67	    11.576
  34.840        131.67	    12.570
  34.860        127.50	    12.369
  34.880        120.00	    12.000
  34.900        120.83	    12.042
  34.920        136.67	    12.806
  34.940        112.50	    11.619
  34.960        112.50	    11.619
  34.980         95.00	    10.677
  35.000        112.50	    11.619
  35.020         92.50	    10.536
  35.040         90.00	    10.392
  35.060         86.67	    10.198
  35.080         70.00	     9.165
  35.100         77.50	     9.644
  35.120         89.17	    10.344
  35.140         82.50	     9.950
  35.160         79.17	     9.747
  35.180         80.83	     9.849
  35.200         69.17	     9.110
  35.220         72.50	     9.327
  35.240         71.67	     9.274
  35.260         87.50	    10.247
  35.280         78.33	     9.695
  35.300         84.17	    10.050
  35.320         80.83	     9.849
  35.340        103.33	    11.136
  35.360         96.67	    10.770
  35.380        113.33	    11.662
  35.400        175.83	    14.526
  35.420        170.00	    14.283
  35.440        151.67	    13.491
  35.460        143.33	    13.115
  35.480        153.33	    13.565
  35.500        155.83	    13.675
  35.520        139.17	    12.923
  35.540        148.33	    13.342
  35.560         96.67	    10.770
  35.580         99.17	    10.909
  35.600         87.50	    10.247
  35.620         80.00	     9.798
  35.640         97.50	    10.817
  35.660         78.33	     9.695
  35.680         72.50	     9.327
  35.700         66.67	     8.944
  35.720         51.67	     7.874
  35.740         47.50	     7.550
  35.760         58.33	     8.367
  35.780         40.83	     7.000
  35.800         47.50	     7.550
  35.820         50.83	     7.810
  35.840         50.00	     7.746
  35.860         73.33	     9.381
  35.880         66.67	     8.944
  35.900         64.17	     8.775
  35.920         62.50	     8.660
  35.940         73.33	     9.381
  35.960         91.67	    10.488
  35.980         75.00	     9.487
  36.000         75.00	     9.487
  36.020         87.50	    10.247
  36.040         72.50	     9.327
  36.060         65.83	     8.888
  36.080         84.17	    10.050
  36.100         71.67	     9.274
  36.120         50.00	     7.746
  36.140         60.83	     8.544
  36.160         55.83	     8.185
  36.180         50.00	     7.746
  36.200         65.83	     8.888
  36.220         51.67	     7.874
  36.240         71.67	     9.274
  36.260         70.83	     9.220
  36.280         75.83	     9.539
  36.300         83.33	    10.000
  36.320         83.33	    10.000
  36.340         90.00	    10.392
  36.360        100.00	    10.954
  36.380        107.50	    11.358
  36.400        152.50	    13.528
  36.420        230.83	    16.643
  36.440        288.33	    18.601
  36.460        305.83	    19.157
  36.480        278.33	    18.276
  36.500        218.33	    16.186
  36.520        214.17	    16.031
  36.540        185.00	    14.900
  36.560        186.67	    14.967
  36.580        155.00	    13.638
  36.600        143.33	    13.115
  36.620        113.33	    11.662
  36.640         91.67	    10.488
  36.660         90.83	    10.440
  36.680         95.83	    10.724
  36.700         99.17	    10.909
  36.720         70.83	     9.220
  36.740         70.83	     9.220
  36.760         67.50	     9.000
  36.780         50.83	     7.810
  36.800         58.33	     8.367
  36.820         56.67	     8.246
  36.840         78.33	     9.695
  36.860         58.33	     8.367
  36.880         54.17	     8.062
  36.900         64.17	     8.775
  36.920         55.00	     8.124
  36.940         59.17	     8.426
  36.960         45.00	     7.348
  36.980         54.17	     8.062
  37.000         53.33	     8.000
  37.020         46.67	     7.483
  37.040         47.50	     7.550
  37.060         55.00	     8.124
  37.080         45.83	     7.416
  37.100         55.83	     8.185
  37.120         41.67	     7.071
  37.140         58.33	     8.367
  37.160         49.17	     7.681
  37.180         40.83	     7.000
  37.200         47.50	     7.550
  37.220         63.33	     8.718
  37.240         50.00	     7.746
  37.260         55.83	     8.185
  37.280         78.33	     9.695
  37.300         70.83	     9.220
  37.320         85.83	    10.149
  37.340         93.33	    10.583
  37.360         65.83	     8.888
  37.380         75.00	     9.487
  37.400         67.50	     9.000
  37.420         79.17	     9.747
  37.440         72.50	     9.327
  37.460         70.00	     9.165
  37.480         79.17	     9.747
  37.500         66.67	     8.944
  37.520         76.67	     9.592
  37.540         95.00	    10.677
  37.560         89.17	    10.344
  37.580         99.17	    10.909
  37.600         85.83	    10.149
  37.620         67.50	     9.000
  37.640         87.50	    10.247
  37.660        106.67	    11.314
  37.680         81.67	     9.899
  37.700         64.17	     8.775
  37.720         62.50	     8.660
  37.740         64.17	     8.775
  37.760         50.83	     7.810
  37.780         65.00	     8.832
  37.800         56.67	     8.246
  37.820         40.83	     7.000
  37.840         45.00	     7.348
  37.860         50.83	     7.810
  37.880         25.00	     5.477
  37.900         42.50	     7.141
  37.920         42.50	     7.141
  37.940         46.67	     7.483
  37.960         39.17	     6.856
  37.980         41.67	     7.071
  38.000         45.00	     7.348
  38.020         34.17	     6.403
  38.040         39.17	     6.856
  38.060         42.50	     7.141
  38.080         34.17	     6.403
  38.100         30.83	     6.083
  38.120         37.50	     6.708
  38.140         46.67	     7.483
  38.160         31.67	     6.164
  38.180         35.83	     6.557
  38.200         40.83	     7.000
  38.220         37.50	     6.708
  38.240         46.67	     7.483
  38.260         35.83	     6.557
  38.280         29.17	     5.916
  38.300         39.17	     6.856
  38.320         40.00	     6.928
  38.340         45.00	     7.348
  38.360         49.17	     7.681
  38.380         42.50	     7.141
  38.400         37.50	     6.708
  38.420         53.33	     8.000
  38.440         35.83	     6.557
  38.460         49.17	     7.681
  38.480         50.83	     7.810
  38.500         54.17	     8.062
  38.520         41.67	     7.071
  38.540         38.33	     6.782
  38.560         45.00	     7.348
  38.580         40.83	     7.000
  38.600         35.83	     6.557
  38.620         45.83	     7.416
  38.640         34.17	     6.403
  38.660         57.50	     8.307
  38.680         51.67	     7.874
  38.700         49.17	     7.681
  38.720         52.50	     7.937
  38.740         50.83	     7.810
  38.760         52.50	     7.937
  38.780         52.50	     7.937
  38.800         45.00	     7.348
  38.820         53.33	     8.000
  38.840         52.50	     7.937
  38.860         32.50	     6.245
  38.880         46.67	     7.483
  38.900         45.83	     7.416
  38.920         55.83	     8.185
  38.940         41.67	     7.071
  38.960         51.67	     7.874
  38.980         50.83	     7.810
  39.000         62.50	     8.660
  39.020         47.50	     7.550
  39.040         50.00	     7.746
  39.060         51.67	     7.874
  39.080         45.00	     7.348
  39.100         60.00	     8.485
  39.120         40.83	     7.000
  39.140         48.33	     7.616
  39.160         49.17	     7.681
  39.180         49.17	     7.681
  39.200         47.50	     7.550
  39.220         56.67	     8.246
  39.240         54.17	     8.062
  39.260         46.67	     7.483
  39.280         65.83	     8.888
  39.300         74.17	     9.434
  39.320        100.83	    11.000
  39.340        180.00	    14.697
  39.360        248.33	    17.263
  39.380        221.67	    16.310
  39.400        150.83	    13.454
  39.420        111.67	    11.576
  39.440        129.17	    12.450
  39.460        150.83	    13.454
  39.480        130.83	    12.530
  39.500        114.17	    11.705
  39.520         75.83	     9.539
  39.540         73.33	     9.381
  39.560         55.00	     8.124
  39.580         56.67	     8.246
  39.600         61.67	     8.602
  39.620         51.67	     7.874
  39.640         49.17	     7.681
  39.660         57.50	     8.307
  39.680         51.67	     7.874
  39.700         53.33	     8.000
  39.720         47.50	     7.550
  39.740         54.17	     8.062
  39.760         49.17	     7.681
  39.780         55.00	     8.124
  39.800         45.83	     7.416
  39.820         56.67	     8.246
  39.840         56.67	     8.246
  39.860         54.17	     8.062
  39.880         53.33	     8.000
  39.900         50.83	     7.810
  39.920         61.67	     8.602
  39.940         55.83	     8.185
  39.960         53.33	     8.000
  39.980         53.33	     8.000
  40.000         46.67	     7.483
  40.020         56.67	     8.246
  40.040         45.00	     7.348
  40.060         50.83	     7.810
  40.080         51.67	     7.874
  40.100         60.00	     8.485
  40.120         57.50	     8.307
  40.140         72.50	     9.327
  40.160         80.00	     9.798
  40.180        110.00	    11.489
  40.200        125.00	    12.247
  40.220        101.67	    11.045
  40.240         89.17	    10.344
  40.260         88.33	    10.296
  40.280         75.83	     9.539
  40.300         83.33	    10.000
  40.320         90.83	    10.440
  40.340         58.33	     8.367
  40.360         38.33	     6.782
  40.380         47.50	     7.550
  40.400         45.83	     7.416
  40.420         43.33	     7.211
  40.440         39.17	     6.856
  40.460         29.17	     5.916
  40.480         41.67	     7.071
  40.500         43.33	     7.211
  40.520         42.50	     7.141
  40.540         50.00	     7.746
  40.560         44.17	     7.280
  40.580         35.83	     6.557
  40.600         40.83	     7.000
  40.620         45.83	     7.416
  40.640         45.00	     7.348
  40.660         43.33	     7.211
  40.680         40.00	     6.928
  40.700         43.33	     7.211
  40.720         50.00	     7.746
  40.740         55.00	     8.124
  40.760         52.50	     7.937
  40.780         40.83	     7.000
  40.800         37.50	     6.708
  40.820         43.33	     7.211
  40.840         37.50	     6.708
  40.860         55.00	     8.124
  40.880         57.50	     8.307
  40.900         40.83	     7.000
  40.920         44.17	     7.280
  40.940         50.00	     7.746
  40.960         54.17	     8.062
  40.980         45.83	     7.416
  41.000         39.17	     6.856
  41.020         49.17	     7.681
  41.040         49.17	     7.681
  41.060         56.67	     8.246
  41.080         50.00	     7.746
  41.100         62.50	     8.660
  41.120         58.33	     8.367
  41.140         54.17	     8.062
  41.160         47.50	     7.550
  41.180         58.33	     8.367
  41.200         58.33	     8.367
  41.220         61.67	     8.602
  41.240         53.33	     8.000
  41.260         52.50	     7.937
  41.280         70.83	     9.220
  41.300         47.50	     7.550
  41.320         50.83	     7.810
  41.340         59.17	     8.426
  41.360         49.17	     7.681
  41.380         50.83	     7.810
  41.400         44.17	     7.280
  41.420         47.50	     7.550
  41.440         46.67	     7.483
  41.460         57.50	     8.307
  41.480         59.17	     8.426
  41.500         58.33	     8.367
  41.520         72.50	     9.327
  41.540         70.00	     9.165
  41.560         75.83	     9.539
  41.580         64.17	     8.775
  41.600         79.17	     9.747
  41.620         88.33	    10.296
  41.640         84.17	    10.050
  41.660         71.67	     9.274
  41.680         80.00	     9.798
  41.700         79.17	     9.747
  41.720         98.33	    10.863
  41.740        101.67	    11.045
  41.760         99.17	    10.909
  41.780         95.00	    10.677
  41.800         78.33	     9.695
  41.820         72.50	     9.327
  41.840         87.50	    10.247
  41.860         76.67	     9.592
  41.880         82.50	     9.950
  41.900         74.17	     9.434
  41.920         56.67	     8.246
  41.940         57.50	     8.307
  41.960         70.83	     9.220
  41.980         48.33	     7.616
  42.000         67.50	     9.000
  42.020         64.17	     8.775
  42.040         52.50	     7.937
  42.060         59.17	     8.426
  42.080         40.83	     7.000
  42.100         63.33	     8.718
  42.120         64.17	     8.775
  42.140         52.50	     7.937
  42.160         56.67	     8.246
  42.180         81.67	     9.899
  42.200         79.17	     9.747
  42.220         60.00	     8.485
  42.240         68.33	     9.055
  42.260        101.67	    11.045
  42.280         82.50	     9.950
  42.300        102.50	    11.091
  42.320        144.17	    13.153
  42.340        164.17	    14.036
  42.360        143.33	    13.115
  42.380        148.33	    13.342
  42.400        140.83	    13.000
  42.420        125.00	    12.247
  42.440        115.00	    11.747
  42.460        116.67	    11.832
  42.480         96.67	    10.770
  42.500         95.83	    10.724
  42.520         96.67	    10.770
  42.540         80.83	     9.849
  42.560         73.33	     9.381
  42.580         79.17	     9.747
  42.600         58.33	     8.367
  42.620         56.67	     8.246
  42.640         61.67	     8.602
  42.660         55.00	     8.124
  42.680         72.50	     9.327
  42.700         69.17	     9.110
  42.720         72.50	     9.327
  42.740         68.33	     9.055
  42.760         61.67	     8.602
  42.780         65.00	     8.832
  42.800         57.50	     8.307
  42.820         50.00	     7.746
  42.840         59.17	     8.426
  42.860         60.83	     8.544
  42.880         61.67	     8.602
  42.900         55.83	     8.185
  42.920         54.17	     8.062
  42.940         48.33	     7.616
  42.960         45.00	     7.348
  42.980         54.17	     8.062
  43.000         69.17	     9.110
  43.020         52.50	     7.937
  43.040         47.50	     7.550
  43.060         42.50	     7.141
  43.080         62.50	     8.660
  43.100         57.50	     8.307
  43.120         65.00	     8.832
  43.140         65.00	     8.832
  43.160         64.17	     8.775
  43.180         70.00	     9.165
  43.200         67.50	     9.000
  43.220         75.00	     9.487
  43.240         76.67	     9.592
  43.260         66.67	     8.944
  43.280         69.17	     9.110
  43.300         71.67	     9.274
  43.320         66.67	     8.944
  43.340         77.50	     9.644
  43.360         93.33	    10.583
  43.380        100.00	    10.954
  43.400         95.00	    10.677
  43.420        128.33	    12.410
  43.440        109.17	    11.446
  43.460        126.67	    12.329
  43.480        127.50	    12.369
  43.500        129.17	    12.450
  43.520        125.00	    12.247
  43.540        140.83	    13.000
  43.560        105.83	    11.269
  43.580        134.17	    12.689
  43.600        126.67	    12.329
  43.620        127.50	    12.369
  43.640        134.17	    12.689
  43.660        126.67	    12.329
  43.680        126.67	    12.329
  43.700        125.83	    12.288
  43.720        123.33	    12.166
  43.740        125.83	    12.288
  43.760        111.67	    11.576
  43.780        102.50	    11.091
  43.800        113.33	    11.662
  43.820        128.33	    12.410
  43.840        110.83	    11.533
  43.860         80.00	     9.798
  43.880         77.50	     9.644
  43.900         85.83	    10.149
  43.920        105.00	    11.225
  43.940         99.17	    10.909
  43.960        106.67	    11.314
  43.980        113.33	    11.662
  44.000        118.33	    11.916
  44.020        105.83	    11.269
  44.040        115.83	    11.790
  44.060        137.50	    12.845
  44.080        136.67	    12.806
  44.100        135.83	    12.767
  44.120        148.33	    13.342
  44.140        187.50	    15.000
  44.160        185.83	    14.933
  44.180        165.00	    14.071
  44.200        181.67	    14.765
  44.220        198.33	    15.427
  44.240        226.67	    16.492
  44.260        230.00	    16.613
  44.280        229.17	    16.583
  44.300        247.50	    17.234
  44.320        234.17	    16.763
  44.340        269.17	    17.972
  44.360        258.33	    17.607
  44.380        276.67	    18.221
  44.400        281.67	    18.385
  44.420        265.00	    17.833
  44.440        288.33	    18.601
  44.460        282.50	    18.412
  44.480        269.17	    17.972
  44.500        264.17	    17.804
  44.520        225.83	    16.462
  44.540        265.00	    17.833
  44.560        238.33	    16.912
  44.580        234.17	    16.763
  44.600        237.50	    16.882
  44.620        199.17	    15.460
  44.640        187.50	    15.000
  44.660        204.17	    15.652
  44.680        195.83	    15.330
  44.700        163.33	    14.000
  44.720        149.17	    13.379
  44.740        146.67	    13.266
  44.760        145.00	    13.191
  44.780        135.83	    12.767
  44.800        150.00	    13.416
  44.820        130.00	    12.490
  44.840        125.83	    12.288
  44.860        125.00	    12.247
  44.880        110.00	    11.489
  44.900        110.83	    11.533
  44.920        108.33	    11.402
  44.940        104.17	    11.180
  44.960        103.33	    11.136
  44.980        107.50	    11.358
  45.000        100.00	    10.954
  45.020        112.50	    11.619
  45.040        100.83	    11.000
  45.060         96.67	    10.770
  45.080         96.67	    10.770
  45.100        106.67	    11.314
  45.120        107.50	    11.358
  45.140        101.67	    11.045
  45.160         98.33	    10.863
  45.180        105.83	    11.269
  45.200        106.67	    11.314
  45.220        111.67	    11.576
  45.240        120.00	    12.000
  45.260         90.83	    10.440
  45.280        119.17	    11.958
  45.300        129.17	    12.450
  45.320        112.50	    11.619
  45.340        130.83	    12.530
  45.360        149.17	    13.379
  45.380        120.00	    12.000
  45.400        150.00	    13.416
  45.420        153.33	    13.565
  45.440        166.67	    14.142
  45.460        152.50	    13.528
  45.480        135.83	    12.767
  45.500        140.83	    13.000
  45.520        127.50	    12.369
  45.540        118.33	    11.916
  45.560        125.83	    12.288
  45.580        126.67	    12.329
  45.600        110.00	    11.489
  45.620         97.50	    10.817
  45.640        132.50	    12.610
  45.660        158.33	    13.784
  45.680        226.67	    16.492
  45.700        243.33	    17.088
  45.720        246.67	    17.205
  45.740        170.83	    14.318
  45.760        105.00	    11.225
  45.780        114.17	    11.705
  45.800        148.33	    13.342
  45.820        166.67	    14.142
  45.840        145.00	    13.191
  45.860        124.17	    12.207
  45.880         97.50	    10.817
  45.900         79.17	     9.747
  45.920         76.67	     9.592
  45.940         67.50	     9.000
  45.960         63.33	     8.718
  45.980         70.83	     9.220
  46.000         75.00	     9.487
  46.020         66.67	     8.944
  46.040         55.00	     8.124
  46.060         52.50	     7.937
  46.080         45.83	     7.416
  46.100         56.67	     8.246
  46.120         45.00	     7.348
  46.140         44.17	     7.280
  46.160         35.83	     6.557
  46.180         41.67	     7.071
  46.200         54.17	     8.062
  46.220         45.83	     7.416
  46.240         47.50	     7.550
  46.260         52.50	     7.937
  46.280         44.17	     7.280
  46.300         45.00	     7.348
  46.320         51.67	     7.874
  46.340         51.67	     7.874
  46.360         35.00	     6.481
  46.380         40.00	     6.928
  46.400         39.17	     6.856
  46.420         31.67	     6.164
  46.440         32.50	     6.245
  46.460         43.33	     7.211
  46.480         44.17	     7.280
  46.500         35.00	     6.481
  46.520         45.00	     7.348
  46.540         38.33	     6.782
  46.560         50.00	     7.746
  46.580         38.33	     6.782
  46.600         41.67	     7.071
  46.620         42.50	     7.141
  46.640         42.50	     7.141
  46.660         40.83	     7.000
  46.680         54.17	     8.062
  46.700         50.83	     7.810
  46.720         50.00	     7.746
  46.740         36.67	     6.633
  46.760         38.33	     6.782
  46.780         25.83	     5.568
  46.800         38.33	     6.782
  46.820         45.00	     7.348
  46.840         44.17	     7.280
  46.860         29.17	     5.916
  46.880         37.50	     6.708
  46.900         45.00	     7.348
  46.920         48.33	     7.616
  46.940         50.83	     7.810
  46.960         68.33	     9.055
  46.980        112.50	    11.619
  47.000         75.83	     9.539
  47.020         76.67	     9.592
  47.040         55.83	     8.185
  47.060         53.33	     8.000
  47.080         70.83	     9.220
  47.100         80.83	     9.849
  47.120         54.17	     8.062
  47.140         50.83	     7.810
  47.160         43.33	     7.211
  47.180         36.67	     6.633
  47.200         40.83	     7.000
  47.220         34.17	     6.403
  47.240         42.50	     7.141
  47.260         32.50	     6.245
  47.280         28.33	     5.831
  47.300         43.33	     7.211
  47.320         40.00	     6.928
  47.340         32.50	     6.245
  47.360         32.50	     6.245
  47.380         39.17	     6.856
  47.400         39.17	     6.856
  47.420         50.83	     7.810
  47.440         30.00	     6.000
  47.460         39.17	     6.856
  47.480         41.67	     7.071
  47.500         40.83	     7.000
  47.520         27.50	     5.745
  47.540         28.33	     5.831
  47.560         41.67	     7.071
  47.580         27.50	     5.745
  47.600         38.33	     6.782
  47.620         30.00	     6.000
  47.640         35.83	     6.557
  47.660         29.17	     5.916
  47.680         35.83	     6.557
  47.700         38.33	     6.782
  47.720         42.50	     7.141
  47.740         47.50	     7.550
  47.760         45.00	     7.348
  47.780         43.33	     7.211
  47.800         55.83	     8.185
  47.820         59.17	     8.426
  47.840         71.67	     9.274
  47.860         63.33	     8.718
  47.880         48.33	     7.616
  47.900         49.17	     7.681
  47.920         55.00	     8.124
  47.940         47.50	     7.550
  47.960         60.00	     8.485
  47.980         59.17	     8.426
  48.000         60.00	     8.485
  48.020         56.67	     8.246
  48.040         75.83	     9.539
  48.060         60.83	     8.544
  48.080         67.50	     9.000
  48.100         50.83	     7.810
  48.120         74.17	     9.434
  48.140         57.50	     8.307
  48.160         54.17	     8.062
  48.180         50.00	     7.746
  48.200         60.00	     8.485
  48.220         52.50	     7.937
  48.240         58.33	     8.367
  48.260         50.83	     7.810
  48.280         45.83	     7.416
  48.300         47.50	     7.550
  48.320         50.83	     7.810
  48.340         44.17	     7.280
  48.360         51.67	     7.874
  48.380         51.67	     7.874
  48.400         61.67	     8.602
  48.420         39.17	     6.856
  48.440         45.83	     7.416
  48.460         45.00	     7.348
  48.480         24.17	     5.385
  48.500         47.50	     7.550
  48.520         53.33	     8.000
  48.540         50.83	     7.810
  48.560         55.00	     8.124
  48.580         45.00	     7.348
  48.600         45.83	     7.416
  48.620         38.33	     6.782
  48.640         30.83	     6.083
  48.660         47.50	     7.550
  48.680         38.33	     6.782
  48.700         47.50	     7.550
  48.720         35.83	     6.557
  48.740         42.50	     7.141
  48.760         46.67	     7.483
  48.780         43.33	     7.211
  48.800         45.00	     7.348
  48.820         40.83	     7.000
  48.840         45.00	     7.348
  48.860         35.83	     6.557
  48.880         40.00	     6.928
  48.900         40.00	     6.928
  48.920         48.33	     7.616
  48.940         46.67	     7.483
  48.960         40.00	     6.928
  48.980         40.83	     7.000
  49.000         40.83	     7.000
  49.020         41.67	     7.071
  49.040         38.33	     6.782
  49.060         35.00	     6.481
  49.080         39.17	     6.856
  49.100         56.67	     8.246
  49.120         58.33	     8.367
  49.140         53.33	     8.000
  49.160         56.67	     8.246
  49.180         49.17	     7.681
  49.200         38.33	     6.782
  49.220         45.83	     7.416
  49.240         54.17	     8.062
  49.260         48.33	     7.616
  49.280         43.33	     7.211
  49.300         39.17	     6.856
  49.320         45.83	     7.416
  49.340         33.33	     6.325
  49.360         39.17	     6.856
  49.380         51.67	     7.874
  49.400         35.00	     6.481
  49.420         51.67	     7.874
  49.440         40.83	     7.000
  49.460         41.67	     7.071
  49.480         48.33	     7.616
  49.500         46.67	     7.483
  49.520         46.67	     7.483
  49.540         45.83	     7.416
  49.560         50.83	     7.810
  49.580         48.33	     7.616
  49.600         56.67	     8.246
  49.620         50.00	     7.746
  49.640         46.67	     7.483
  49.660         51.67	     7.874
  49.680         78.33	     9.695
  49.700         66.67	     8.944
  49.720         68.33	     9.055
  49.740         67.50	     9.000
  49.760         74.17	     9.434
  49.780         76.67	     9.592
  49.800         82.50	     9.950
  49.820        102.50	    11.091
  49.840         90.83	    10.440
  49.860         81.67	     9.899
  49.880         96.67	    10.770
  49.900        110.00	    11.489
  49.920        140.00	    12.961
  49.940        124.17	    12.207
  49.960        150.83	    13.454
  49.980        215.83	    16.093
  50.000        296.67	    18.868
  50.020        333.33	    20.000
  50.040        361.67	    20.833
  50.060        330.83	    19.925
  50.080        275.00	    18.166
  50.100        197.50	    15.395
  50.120        187.50	    15.000
  50.140        184.17	    14.866
  50.160        223.33	    16.371
  50.180        196.67	    15.362
  50.200        170.83	    14.318
  50.220        112.50	    11.619
  50.240         89.17	    10.344
  50.260         65.83	     8.888
  50.280         53.33	     8.000
  50.300         70.00	     9.165
  50.320         56.67	     8.246
  50.340         65.83	     8.888
  50.360         48.33	     7.616
  50.380         59.17	     8.426
  50.400         70.00	     9.165
  50.420         59.17	     8.426
  50.440         65.83	     8.888
  50.460         67.50	     9.000
  50.480         84.17	    10.050
  50.500         85.83	    10.149
  50.520         95.83	    10.724
  50.540         73.33	     9.381
  50.560         76.67	     9.592
  50.580         65.83	     8.888
  50.600         88.33	    10.296
  50.620         82.50	     9.950
  50.640         75.83	     9.539
  50.660         70.83	     9.220
  50.680         70.00	     9.165
  50.700         59.17	     8.426
  50.720         53.33	     8.000
  50.740         41.67	     7.071
  50.760         56.67	     8.246
  50.780         45.00	     7.348
  50.800         50.00	     7.746
  50.820         59.17	     8.426
  50.840         52.50	     7.937
  50.860         34.17	     6.403
  50.880         50.00	     7.746
  50.900         47.50	     7.550
  50.920         41.67	     7.071
  50.940         48.33	     7.616
  50.960         53.33	     8.000
  50.980         43.33	     7.211
  51.000         50.83	     7.810
  51.020         68.33	     9.055
  51.040         64.17	     8.775
  51.060         50.00	     7.746
  51.080         45.00	     7.348
  51.100         65.00	     8.832
  51.120         55.00	     8.124
  51.140         50.00	     7.746
  51.160         69.17	     9.110
  51.180         57.50	     8.307
  51.200         51.67	     7.874
  51.220         58.33	     8.367
  51.240         47.50	     7.550
  51.260         50.83	     7.810
  51.280         49.17	     7.681
  51.300         44.17	     7.280
  51.320         43.33	     7.211
  51.340         35.83	     6.557
  51.360         39.17	     6.856
  51.380         39.17	     6.856
  51.400         35.00	     6.481
  51.420         31.67	     6.164
  51.440         38.33	     6.782
  51.460         36.67	     6.633
  51.480         41.67	     7.071
  51.500         32.50	     6.245
  51.520         36.67	     6.633
  51.540         41.67	     7.071
  51.560         26.67	     5.657
  51.580         24.17	     5.385
  51.600         37.50	     6.708
  51.620         29.17	     5.916
  51.640         32.50	     6.245
  51.660         42.50	     7.141
  51.680         40.83	     7.000
  51.700         29.17	     5.916
  51.720         35.83	     6.557
  51.740         40.00	     6.928
  51.760         28.33	     5.831
  51.780         35.83	     6.557
  51.800         30.00	     6.000
  51.820         26.67	     5.657
  51.840         38.33	     6.782
  51.860         41.67	     7.071
  51.880         40.83	     7.000
  51.900         28.33	     5.831
  51.920         45.83	     7.416
  51.940         30.83	     6.083
  51.960         38.33	     6.782
  51.980         33.33	     6.325
  52.000         30.83	     6.083
  52.020         33.33	     6.325
  52.040         37.50	     6.708
  52.060         61.67	     8.602
  52.080         43.33	     7.211
  52.100         48.33	     7.616
  52.120         52.50	     7.937
  52.140         41.67	     7.071
  52.160         46.67	     7.483
  52.180         49.17	     7.681
  52.200         55.00	     8.124
  52.220         54.17	     8.062
  52.240         63.33	     8.718
  52.260         50.83	     7.810
  52.280         53.33	     8.000
  52.300         47.50	     7.550
  52.320         64.17	     8.775
  52.340         65.00	     8.832
  52.360         54.17	     8.062
  52.380        105.00	    11.225
  52.400        187.50	    15.000
  52.420        205.00	    15.684
  52.440        148.33	    13.342
  52.460        115.00	    11.747
  52.480         75.83	     9.539
  52.500         73.33	     9.381
  52.520         70.00	     9.165
  52.540        102.50	    11.091
  52.560        122.50	    12.124
  52.580         96.67	    10.770
  52.600         69.17	     9.110
  52.620         53.33	     8.000
  52.640         50.83	     7.810
  52.660         45.83	     7.416
  52.680         38.33	     6.782
  52.700         40.83	     7.000
  52.720         48.33	     7.616
  52.740         53.33	     8.000
  52.760         46.67	     7.483
  52.780         50.00	     7.746
  52.800         43.33	     7.211
  52.820         54.17	     8.062
  52.840         42.50	     7.141
  52.860         60.83	     8.544
  52.880         45.00	     7.348
  52.900         39.17	     6.856
  52.920         42.50	     7.141
  52.940         50.83	     7.810
  52.960         54.17	     8.062
  52.980         50.83	     7.810
  53.000         52.50	     7.937
  53.020         51.67	     7.874
  53.040         55.83	     8.185
  53.060         50.83	     7.810
  53.080         45.00	     7.348
  53.100         54.17	     8.062
  53.120         57.50	     8.307
  53.140         62.50	     8.660
  53.160         50.00	     7.746
  53.180         53.33	     8.000
  53.200         48.33	     7.616
  53.220         44.17	     7.280
  53.240         40.83	     7.000
  53.260         45.83	     7.416
  53.280         47.50	     7.550
  53.300         41.67	     7.071
  53.320         45.83	     7.416
  53.340         43.33	     7.211
  53.360         45.00	     7.348
  53.380         45.83	     7.416
  53.400         43.33	     7.211
  53.420         43.33	     7.211
  53.440         38.33	     6.782
  53.460         43.33	     7.211
  53.480         29.17	     5.916
  53.500         39.17	     6.856
  53.520         45.00	     7.348
  53.540         42.50	     7.141
  53.560         35.83	     6.557
  53.580         45.00	     7.348
  53.600         44.17	     7.280
  53.620         40.00	     6.928
  53.640         35.83	     6.557
  53.660         49.17	     7.681
  53.680         41.67	     7.071
  53.700         37.50	     6.708
  53.720         45.00	     7.348
  53.740         42.50	     7.141
  53.760         36.67	     6.633
  53.780         40.83	     7.000
  53.800         32.50	     6.245
  53.820         38.33	     6.782
  53.840         45.00	     7.348
  53.860         35.83	     6.557
  53.880         36.67	     6.633
  53.900         29.17	     5.916
  53.920         32.50	     6.245
  53.940         45.83	     7.416
  53.960         39.17	     6.856
  53.980         37.50	     6.708
  54.000         44.17	     7.280
  54.020         40.83	     7.000
  54.040         36.67	     6.633
  54.060         40.83	     7.000
  54.080         43.33	     7.211
  54.100         40.83	     7.000
  54.120         43.33	     7.211
  54.140         52.50	     7.937
  54.160         45.00	     7.348
  54.180         57.50	     8.307
  54.200         41.67	     7.071
  54.220         47.50	     7.550
  54.240         47.50	     7.550
  54.260         34.17	     6.403
  54.280         46.67	     7.483
  54.300         48.33	     7.616
  54.320         47.50	     7.550
  54.340         40.83	     7.000
  54.360         38.33	     6.782
  54.380         40.00	     6.928
  54.400         36.67	     6.633
  54.420         45.00	     7.348
  54.440         50.00	     7.746
  54.460         50.83	     7.810
  54.480         51.67	     7.874
  54.500         55.00	     8.124
  54.520         53.33	     8.000
  54.540         44.17	     7.280
  54.560         62.50	     8.660
  54.580         49.17	     7.681
  54.600         53.33	     8.000
  54.620         47.50	     7.550
  54.640         53.33	     8.000
  54.660         53.33	     8.000
  54.680         46.67	     7.483
  54.700         70.83	     9.220
  54.720         75.00	     9.487
  54.740         97.50	    10.817
  54.760        143.33	    13.115
  54.780        143.33	    13.115
  54.800        162.50	    13.964
  54.820        126.67	    12.329
  54.840         95.00	    10.677
  54.860         71.67	     9.274
  54.880         77.50	     9.644
  54.900         86.67	    10.198
  54.920         99.17	    10.909
  54.940         90.00	    10.392
  54.960         85.83	    10.149
  54.980         80.83	     9.849
  55.000         55.83	     8.185
  55.020         79.17	     9.747
  55.040         56.67	     8.246
  55.060         61.67	     8.602
  55.080         62.50	     8.660
  55.100         62.50	     8.660
  55.120         53.33	     8.000
  55.140         53.33	     8.000
  55.160         50.00	     7.746
  55.180         68.33	     9.055
  55.200         85.00	    10.100
  55.220         86.67	    10.198
  55.240         80.00	     9.798
  55.260         82.50	     9.950
  55.280         60.00	     8.485
  55.300         60.83	     8.544
  55.320         49.17	     7.681
  55.340         46.67	     7.483
  55.360         60.83	     8.544
  55.380         60.00	     8.485
  55.400         61.67	     8.602
  55.420         42.50	     7.141
  55.440         42.50	     7.141
  55.460         45.83	     7.416
  55.480         46.67	     7.483
  55.500         51.67	     7.874
  55.520         65.00	     8.832
  55.540         53.33	     8.000
  55.560         60.00	     8.485
  55.580         65.83	     8.888
  55.600         57.50	     8.307
  55.620         72.50	     9.327
  55.640         67.50	     9.000
  55.660         76.67	     9.592
  55.680         75.83	     9.539
  55.700         92.50	    10.536
  55.720         85.83	    10.149
  55.740         75.83	     9.539
  55.760         70.83	     9.220
  55.780         70.00	     9.165
  55.800         73.33	     9.381
  55.820         71.67	     9.274
  55.840         69.17	     9.110
  55.860         69.17	     9.110
  55.880         63.33	     8.718
  55.900         60.83	     8.544
  55.920         55.83	     8.185
  55.940         49.17	     7.681
  55.960         60.00	     8.485
  55.980         38.33	     6.782
  56.000         55.00	     8.124
  56.020         55.00	     8.124
  56.040         45.00	     7.348
  56.060         48.33	     7.616
  56.080         45.00	     7.348
  56.100         48.33	     7.616
  56.120         45.83	     7.416
  56.140         43.33	     7.211
  56.160         45.00	     7.348
  56.180         42.50	     7.141
  56.200         46.67	     7.483
  56.220         35.83	     6.557
  56.240         47.50	     7.550
  56.260         43.33	     7.211
  56.280         29.17	     5.916
  56.300         45.83	     7.416
  56.320         35.83	     6.557
  56.340         45.00	     7.348
  56.360         45.00	     7.348
  56.380         46.67	     7.483
  56.400         40.83	     7.000
  56.420         45.00	     7.348
  56.440         35.83	     6.557
  56.460         42.50	     7.141
  56.480         43.33	     7.211
  56.500         49.17	     7.681
  56.520         32.50	     6.245
  56.540         47.50	     7.550
  56.560         50.83	     7.810
  56.580         51.67	     7.874
  56.600         56.67	     8.246
  56.620         53.33	     8.000
  56.640         61.67	     8.602
  56.660         30.83	     6.083
  56.680         50.00	     7.746
  56.700         40.00	     6.928
  56.720         53.33	     8.000
  56.740         55.00	     8.124
  56.760         50.00	     7.746
  56.780         68.33	     9.055
  56.800         75.83	     9.539
  56.820         56.67	     8.246
  56.840         50.83	     7.810
  56.860         44.17	     7.280
  56.880         45.00	     7.348
  56.900         32.50	     6.245
  56.920         53.33	     8.000
  56.940         50.00	     7.746
  56.960         55.00	     8.124
  56.980         43.33	     7.211
  57.000         36.67	     6.633
  57.020         45.00	     7.348
  57.040         53.33	     8.000
  57.060         33.33	     6.325
  57.080         40.00	     6.928
  57.100         40.00	     6.928
  57.120         36.67	     6.633
  57.140         38.33	     6.782
  57.160         45.83	     7.416
  57.180         43.33	     7.211
  57.200         36.67	     6.633
  57.220         48.33	     7.616
  57.240         44.17	     7.280
  57.260         49.17	     7.681
  57.280         32.50	     6.245
  57.300         37.50	     6.708
  57.320         40.83	     7.000
  57.340         38.33	     6.782
  57.360         36.67	     6.633
  57.380         40.83	     7.000
  57.400         42.50	     7.141
  57.420         34.17	     6.403
  57.440         28.33	     5.831
  57.460         41.67	     7.071
  57.480         45.00	     7.348
  57.500         40.00	     6.928
  57.520         39.17	     6.856
  57.540         40.83	     7.000
  57.560         46.67	     7.483
  57.580         40.00	     6.928
  57.600         41.67	     7.071
  57.620         45.83	     7.416
  57.640         40.83	     7.000
  57.660         43.33	     7.211
  57.680         44.17	     7.280
  57.700         35.00	     6.481
  57.720         47.50	     7.550
  57.740         50.00	     7.746
  57.760         32.50	     6.245
  57.780         38.33	     6.782
  57.800         30.00	     6.000
  57.820         32.50	     6.245
  57.840         41.67	     7.071
  57.860         35.83	     6.557
  57.880         40.00	     6.928
  57.900         39.17	     6.856
  57.920         45.00	     7.348
  57.940         48.33	     7.616
  57.960         51.67	     7.874
  57.980         59.17	     8.426
  58.000         51.67	     7.874
  58.020         42.50	     7.141
  58.040         54.17	     8.062
  58.060         55.83	     8.185
  58.080         42.50	     7.141
  58.100         63.33	     8.718
  58.120         45.00	     7.348
  58.140         46.67	     7.483
  58.160         42.50	     7.141
  58.180         40.83	     7.000
  58.200         42.50	     7.141
  58.220         45.83	     7.416
  58.240         49.17	     7.681
  58.260         38.33	     6.782
  58.280         36.67	     6.633
  58.300         46.67	     7.483
  58.320         32.50	     6.245
  58.340         44.17	     7.280
  58.360         45.00	     7.348
  58.380         34.17	     6.403
  58.400         40.00	     6.928
  58.420         45.83	     7.416
  58.440         50.00	     7.746
  58.460         50.83	     7.810
  58.480         45.83	     7.416
  58.500         45.00	     7.348
  58.520         49.17	     7.681
  58.540         57.50	     8.307
  58.560         59.17	     8.426
  58.580         60.83	     8.544
  58.600         73.33	     9.381
  58.620         61.67	     8.602
  58.640         50.83	     7.810
  58.660         47.50	     7.550
  58.680         49.17	     7.681
  58.700         54.17	     8.062
  58.720         56.67	     8.246
  58.740         52.50	     7.937
  58.760         53.33	     8.000
  58.780         42.50	     7.141
  58.800         36.67	     6.633
  58.820         40.00	     6.928
  58.840         50.00	     7.746
  58.860         55.83	     8.185
  58.880         72.50	     9.327
  58.900         80.83	     9.849
  58.920        110.83	    11.533
  58.940         90.00	    10.392
  58.960         70.00	     9.165
  58.980         50.00	     7.746
  59.000         54.17	     8.062
  59.020         45.83	     7.416
  59.040         55.00	     8.124
  59.060         95.00	    10.677
  59.080         80.00	     9.798
  59.100         66.67	     8.944
  59.120         64.17	     8.775
  59.140         59.17	     8.426
  59.160         57.50	     8.307
  59.180         52.50	     7.937
  59.200         64.17	     8.775
  59.220         69.17	     9.110
  59.240         56.67	     8.246
  59.260         55.00	     8.124
  59.280         54.17	     8.062
  59.300         40.83	     7.000
  59.320         55.00	     8.124
  59.340         50.00	     7.746
  59.360         41.67	     7.071
  59.380         45.83	     7.416
  59.400         40.83	     7.000
  59.420         48.33	     7.616
  59.440         45.00	     7.348
  59.460         51.67	     7.874
  59.480         39.17	     6.856
  59.500         40.83	     7.000
  59.520         44.17	     7.280
  59.540         40.00	     6.928
  59.560         52.50	     7.937
  59.580         54.17	     8.062
  59.600         50.00	     7.746
  59.620         55.00	     8.124
  59.640         62.50	     8.660
  59.660         49.17	     7.681
  59.680         47.50	     7.550
  59.700         55.83	     8.185
  59.720         89.17	    10.344
  59.740         81.67	     9.899
  59.760         90.00	    10.392
  59.780        117.50	    11.874
  59.800        172.50	    14.387
  59.820        184.17	    14.866
  59.840        300.00	    18.974
  59.860        357.50	    20.712
  59.880        392.50	    21.703
  59.900        328.33	    19.849
  59.920        267.50	    17.916
  59.940        200.00	    15.492
  59.960        165.83	    14.107
  59.980        164.17	    14.036
  60.000        181.67	    14.765
  60.020        182.50	    14.799
  60.040        205.00	    15.684
  60.060        188.33	    15.033
  60.080        135.83	    12.767
  60.100        106.67	    11.314
  60.120         89.17	    10.344
  60.140         65.00	     8.832
  60.160         80.83	     9.849
  60.180         56.67	     8.246
  60.200         55.83	     8.185
  60.220         47.50	     7.550
  60.240         55.83	     8.185
  60.260         49.17	     7.681
  60.280         55.83	     8.185
  60.300         42.50	     7.141
  60.320         54.17	     8.062
  60.340         47.50	     7.550
  60.360         56.67	     8.246
  60.380         62.50	     8.660
  60.400         57.50	     8.307
  60.420         57.50	     8.307
  60.440         73.33	     9.381
  60.460         55.00	     8.124
  60.480         65.83	     8.888
  60.500         64.17	     8.775
  60.520         69.17	     9.110
  60.540         58.33	     8.367
  60.560         61.67	     8.602
  60.580         51.67	     7.874
  60.600         65.00	     8.832
  60.620         56.67	     8.246
  60.640         56.67	     8.246
  60.660         66.67	     8.944
  60.680         76.67	     9.592
  60.700         62.50	     8.660
  60.720         68.33	     9.055
  60.740         54.17	     8.062
  60.760         62.50	     8.660
  60.780         64.17	     8.775
  60.800         70.00	     9.165
  60.820         68.33	     9.055
  60.840         64.17	     8.775
  60.860         48.33	     7.616
  60.880         60.00	     8.485
  60.900         61.67	     8.602
  60.920         57.50	     8.307
  60.940         61.67	     8.602
  60.960         50.00	     7.746
  60.980         57.50	     8.307
  61.000         53.33	     8.000
  61.020         54.17	     8.062
  61.040         56.67	     8.246
  61.060         52.50	     7.937
  61.080         60.83	     8.544
  61.100         60.00	     8.485
  61.120         47.50	     7.550
  61.140         49.17	     7.681
  61.160         57.50	     8.307
  61.180         45.83	     7.416
  61.200         49.17	     7.681
  61.220         73.33	     9.381
  61.240         47.50	     7.550
  61.260         53.33	     8.000
  61.280         49.17	     7.681
  61.300         58.33	     8.367
  61.320         54.17	     8.062
  61.340         62.50	     8.660
  61.360         65.00	     8.832
  61.380         63.33	     8.718
  61.400         59.17	     8.426
  61.420         78.33	     9.695
  61.440         74.17	     9.434
  61.460         61.67	     8.602
  61.480         69.17	     9.110
  61.500         61.67	     8.602
  61.520         73.33	     9.381
  61.540         79.17	     9.747
  61.560         70.83	     9.220
  61.580         49.17	     7.681
  61.600         72.50	     9.327
  61.620         67.50	     9.000
  61.640         69.17	     9.110
  61.660         63.33	     8.718
  61.680         60.83	     8.544
  61.700         59.17	     8.426
  61.720         60.00	     8.485
  61.740         47.50	     7.550
  61.760         68.33	     9.055
  61.780         61.67	     8.602
  61.800         69.17	     9.110
  61.820         48.33	     7.616
  61.840         48.33	     7.616
  61.860         50.83	     7.810
  61.880         55.83	     8.185
  61.900         52.50	     7.937
  61.920         50.00	     7.746
  61.940         43.33	     7.211
  61.960         52.50	     7.937
  61.980         46.67	     7.483
  62.000         38.33	     6.782
  62.020         50.83	     7.810
  62.040         55.00	     8.124
  62.060         39.17	     6.856
  62.080         45.00	     7.348
  62.100         46.67	     7.483
  62.120         45.00	     7.348
  62.140         40.83	     7.000
  62.160         52.50	     7.937
  62.180         35.83	     6.557
  62.200         40.00	     6.928
  62.220         40.83	     7.000
  62.240         46.67	     7.483
  62.260         35.83	     6.557
  62.280         37.50	     6.708
  62.300         40.83	     7.000
  62.320         43.33	     7.211
  62.340         30.00	     6.000
  62.360         41.67	     7.071
  62.380         45.83	     7.416
  62.400         40.00	     6.928
  62.420         43.33	     7.211
  62.440         35.83	     6.557
  62.460         38.33	     6.782
  62.480         45.83	     7.416
  62.500         43.33	     7.211
  62.520         41.67	     7.071
  62.540         38.33	     6.782
  62.560         42.50	     7.141
  62.580         49.17	     7.681
  62.600         49.17	     7.681
  62.620         35.00	     6.481
  62.640         49.17	     7.681
  62.660         45.00	     7.348
  62.680         41.67	     7.071
  62.700         38.33	     6.782
  62.720         36.67	     6.633
  62.740         48.33	     7.616
  62.760         38.33	     6.782
  62.780         37.50	     6.708
  62.800         41.67	     7.071
  62.820         33.33	     6.325
  62.840         30.00	     6.000
  62.860         28.33	     5.831
  62.880         32.50	     6.245
  62.900         35.00	     6.481
  62.920         30.00	     6.000
  62.940         31.67	     6.164
  62.960         40.83	     7.000
  62.980         35.00	     6.481
  63.000         36.67	     6.633
  63.020         33.33	     6.325
  63.040         37.50	     6.708
  63.060         34.17	     6.403
  63.080         32.50	     6.245
  63.100         31.67	     6.164
  63.120         38.33	     6.782
  63.140         38.33	     6.782
  63.160         56.67	     8.246
  63.180         37.50	     6.708
  63.200         30.83	     6.083
  63.220         39.17	     6.856
  63.240         40.00	     6.928
  63.260         47.50	     7.550
  63.280         34.17	     6.403
  63.300         40.00	     6.928
  63.320         50.00	     7.746
  63.340         54.17	     8.062
  63.360         76.67	     9.592
  63.380         80.00	     9.798
  63.400         81.67	     9.899
  63.420         79.17	     9.747
  63.440         64.17	     8.775
  63.460         57.50	     8.307
  63.480         65.83	     8.888
  63.500         58.33	     8.367
  63.520         49.17	     7.681
  63.540         55.00	     8.124
  63.560         81.67	     9.899
  63.580         67.50	     9.000
  63.600         66.67	     8.944
  63.620         65.00	     8.832
  63.640         61.67	     8.602
  63.660         54.17	     8.062
  63.680         56.67	     8.246
  63.700         50.83	     7.810
  63.720         49.17	     7.681
  63.740         45.83	     7.416
  63.760         55.00	     8.124
  63.780         55.00	     8.124
  63.800         65.83	     8.888
  63.820         57.50	     8.307
  63.840         71.67	     9.274
  63.860         72.50	     9.327
  63.880         70.83	     9.220
  63.900         96.67	    10.770
  63.920        108.33	    11.402
  63.940        117.50	    11.874
  63.960        116.67	    11.832
  63.980         94.17	    10.630
  64.000         67.50	     9.000
  64.020         60.00	     8.485
  64.040         71.67	     9.274
  64.060         75.83	     9.539
  64.080         82.50	     9.950
  64.100         73.33	     9.381
  64.120         88.33	    10.296
  64.140         81.67	     9.899
  64.160         66.67	     8.944
  64.180         65.00	     8.832
  64.200         49.17	     7.681
  64.220         55.83	     8.185
  64.240         39.17	     6.856
  64.260         45.83	     7.416
  64.280         49.17	     7.681
  64.300         32.50	     6.245
  64.320         45.83	     7.416
  64.340         35.83	     6.557
  64.360         35.83	     6.557
  64.380         40.83	     7.000
  64.400         50.83	     7.810
  64.420         36.67	     6.633
  64.440         40.00	     6.928
  64.460         47.50	     7.550
  64.480         42.50	     7.141
  64.500         45.83	     7.416
  64.520         31.67	     6.164
  64.540         50.83	     7.810
  64.560         54.17	     8.062
  64.580         51.67	     7.874
  64.600         50.83	     7.810
  64.620         44.17	     7.280
  64.640         41.67	     7.071
  64.660         37.50	     6.708
  64.680         43.33	     7.211
  64.700         46.67	     7.483
  64.720         56.67	     8.246
  64.740         53.33	     8.000
  64.760         42.50	     7.141
  64.780         57.50	     8.307
  64.800         53.33	     8.000
  64.820         45.00	     7.348
  64.840         42.50	     7.141
  64.860         53.33	     8.000
  64.880         53.33	     8.000
  64.900         63.33	     8.718
  64.920         45.00	     7.348
  64.940         59.17	     8.426
  64.960         62.50	     8.660
  64.980         58.33	     8.367
  65.000         70.00	     9.165
