
Filename:
	C:\Program Files\Thermo Electron\WinXRD\Datafiles\F_HERMAN\GEO\G61_RT.raw

File Created:
	February 18, 2020 - 04:53 AM

Specimen Id:
	G61_RT

Specimen Name:
	

Specimen Description:
	

Comment:
Scan Type: 2Theta Scan
Start Angle: 3 deg.
Stop Angle: 65 deg.
Num Points: 3101
Step Size: 0.02 deg.
Scan Rate: 1.000000
Scan Mode: Continuous
Wavelength: 1.540562
\Kalpha1: 1.540562	\Kalpha2: 1.544390	\Kbeta: 1.392218

Optics:
		Detector:
			 Type: Fixed Slits
		Tube: 
			 Type: Fixed Slits


Datas:
 Pos [deg]       Rate [CPS]      ESD [-]

Range 1 ---> Iteration 1
   3.000        450.00	    23.238
   3.020        480.00	    24.000
   3.040        478.33	    23.958
   3.060        443.33	    23.065
   3.080        434.17	    22.825
   3.100        438.33	    22.935
   3.120        452.50	    23.302
   3.140        464.17	    23.601
   3.160        422.50	    22.517
   3.180        435.00	    22.847
   3.200        425.83	    22.605
   3.220        380.00	    21.354
   3.240        408.33	    22.136
   3.260        400.83	    21.932
   3.280        411.67	    22.226
   3.300        430.00	    22.716
   3.320        382.50	    21.424
   3.340        388.33	    21.587
   3.360        420.83	    22.472
   3.380        389.17	    21.610
   3.400        386.67	    21.541
   3.420        361.67	    20.833
   3.440        386.67	    21.541
   3.460        362.50	    20.857
   3.480        418.33	    22.405
   3.500        376.67	    21.260
   3.520        360.83	    20.809
   3.540        354.17	    20.616
   3.560        369.17	    21.048
   3.580        376.67	    21.260
   3.600        390.00	    21.633
   3.620        383.33	    21.448
   3.640        351.67	    20.543
   3.660        390.83	    21.656
   3.680        350.00	    20.494
   3.700        340.00	    20.199
   3.720        350.00	    20.494
   3.740        336.67	    20.100
   3.760        378.33	    21.307
   3.780        362.50	    20.857
   3.800        369.17	    21.048
   3.820        337.50	    20.125
   3.840        350.00	    20.494
   3.860        330.83	    19.925
   3.880        358.33	    20.736
   3.900        341.67	    20.248
   3.920        337.50	    20.125
   3.940        322.50	    19.672
   3.960        300.00	    18.974
   3.980        339.17	    20.174
   4.000        361.67	    20.833
   4.020        323.33	    19.698
   4.040        310.00	    19.287
   4.060        285.83	    18.520
   4.080        343.33	    20.298
   4.100        310.00	    19.287
   4.120        324.17	    19.723
   4.140        287.50	    18.574
   4.160        323.33	    19.698
   4.180        316.67	    19.494
   4.200        329.17	    19.875
   4.220        288.33	    18.601
   4.240        303.33	    19.079
   4.260        318.33	    19.545
   4.280        314.17	    19.416
   4.300        316.67	    19.494
   4.320        288.33	    18.601
   4.340        295.83	    18.841
   4.360        300.00	    18.974
   4.380        300.00	    18.974
   4.400        283.33	    18.439
   4.420        290.00	    18.655
   4.440        275.00	    18.166
   4.460        296.67	    18.868
   4.480        299.17	    18.947
   4.500        296.67	    18.868
   4.520        284.17	    18.466
   4.540        286.67	    18.547
   4.560        296.67	    18.868
   4.580        245.83	    17.176
   4.600        260.83	    17.692
   4.620        269.17	    17.972
   4.640        271.67	    18.055
   4.660        282.50	    18.412
   4.680        283.33	    18.439
   4.700        270.83	    18.028
   4.720        266.67	    17.889
   4.740        280.83	    18.358
   4.760        240.83	    17.000
   4.780        270.00	    18.000
   4.800        247.50	    17.234
   4.820        260.00	    17.664
   4.840        247.50	    17.234
   4.860        256.67	    17.550
   4.880        259.17	    17.635
   4.900        246.67	    17.205
   4.920        259.17	    17.635
   4.940        239.17	    16.941
   4.960        279.17	    18.303
   4.980        256.67	    17.550
   5.000        268.33	    17.944
   5.020        260.83	    17.692
   5.040        275.00	    18.166
   5.060        261.67	    17.720
   5.080        251.67	    17.378
   5.100        225.83	    16.462
   5.120        245.00	    17.146
   5.140        244.17	    17.117
   5.160        258.33	    17.607
   5.180        239.17	    16.941
   5.200        235.83	    16.823
   5.220        219.17	    16.217
   5.240        214.17	    16.031
   5.260        246.67	    17.205
   5.280        238.33	    16.912
   5.300        222.50	    16.340
   5.320        217.50	    16.155
   5.340        229.17	    16.583
   5.360        220.83	    16.279
   5.380        238.33	    16.912
   5.400        218.33	    16.186
   5.420        232.50	    16.703
   5.440        220.83	    16.279
   5.460        214.17	    16.031
   5.480        239.17	    16.941
   5.500        200.00	    15.492
   5.520        200.83	    15.524
   5.540        221.67	    16.310
   5.560        200.00	    15.492
   5.580        224.17	    16.401
   5.600        236.67	    16.852
   5.620        225.83	    16.462
   5.640        201.67	    15.556
   5.660        208.33	    15.811
   5.680        207.50	    15.780
   5.700        225.00	    16.432
   5.720        224.17	    16.401
   5.740        239.17	    16.941
   5.760        240.00	    16.971
   5.780        206.67	    15.748
   5.800        238.33	    16.912
   5.820        196.67	    15.362
   5.840        186.67	    14.967
   5.860        228.33	    16.553
   5.880        218.33	    16.186
   5.900        216.67	    16.125
   5.920        225.83	    16.462
   5.940        230.00	    16.613
   5.960        215.83	    16.093
   5.980        221.67	    16.310
   6.000        229.17	    16.583
   6.020        233.33	    16.733
   6.040        217.50	    16.155
   6.060        296.67	    18.868
   6.080        287.50	    18.574
   6.100        275.00	    18.166
   6.120        270.83	    18.028
   6.140        244.17	    17.117
   6.160        241.67	    17.029
   6.180        242.50	    17.059
   6.200        185.83	    14.933
   6.220        209.17	    15.843
   6.240        204.17	    15.652
   6.260        195.83	    15.330
   6.280        200.00	    15.492
   6.300        218.33	    16.186
   6.320        199.17	    15.460
   6.340        206.67	    15.748
   6.360        200.83	    15.524
   6.380        197.50	    15.395
   6.400        187.50	    15.000
   6.420        195.00	    15.297
   6.440        196.67	    15.362
   6.460        196.67	    15.362
   6.480        209.17	    15.843
   6.500        200.83	    15.524
   6.520        190.00	    15.100
   6.540        194.17	    15.264
   6.560        176.67	    14.560
   6.580        200.00	    15.492
   6.600        193.33	    15.232
   6.620        179.17	    14.663
   6.640        195.00	    15.297
   6.660        197.50	    15.395
   6.680        171.67	    14.353
   6.700        181.67	    14.765
   6.720        178.33	    14.629
   6.740        194.17	    15.264
   6.760        159.17	    13.820
   6.780        165.83	    14.107
   6.800        175.83	    14.526
   6.820        200.00	    15.492
   6.840        180.83	    14.731
   6.860        174.17	    14.457
   6.880        182.50	    14.799
   6.900        175.83	    14.526
   6.920        175.00	    14.491
   6.940        176.67	    14.560
   6.960        182.50	    14.799
   6.980        193.33	    15.232
   7.000        173.33	    14.422
   7.020        179.17	    14.663
   7.040        157.50	    13.748
   7.060        172.50	    14.387
   7.080        185.00	    14.900
   7.100        184.17	    14.866
   7.120        159.17	    13.820
   7.140        161.67	    13.928
   7.160        153.33	    13.565
   7.180        176.67	    14.560
   7.200        189.17	    15.067
   7.220        140.00	    12.961
   7.240        175.83	    14.526
   7.260        166.67	    14.142
   7.280        167.50	    14.177
   7.300        167.50	    14.177
   7.320        154.17	    13.601
   7.340        164.17	    14.036
   7.360        180.00	    14.697
   7.380        178.33	    14.629
   7.400        146.67	    13.266
   7.420        160.00	    13.856
   7.440        155.00	    13.638
   7.460        148.33	    13.342
   7.480        138.33	    12.884
   7.500        142.50	    13.077
   7.520        168.33	    14.213
   7.540        179.17	    14.663
   7.560        132.50	    12.610
   7.580        160.00	    13.856
   7.600        162.50	    13.964
   7.620        145.00	    13.191
   7.640        151.67	    13.491
   7.660        160.83	    13.892
   7.680        145.00	    13.191
   7.700        155.83	    13.675
   7.720        167.50	    14.177
   7.740        137.50	    12.845
   7.760        159.17	    13.820
   7.780        127.50	    12.369
   7.800        160.00	    13.856
   7.820        127.50	    12.369
   7.840        140.83	    13.000
   7.860        147.50	    13.304
   7.880        131.67	    12.570
   7.900        159.17	    13.820
   7.920        160.83	    13.892
   7.940        157.50	    13.748
   7.960        140.00	    12.961
   7.980        152.50	    13.528
   8.000        145.83	    13.229
   8.020        130.00	    12.490
   8.040        145.00	    13.191
   8.060        150.83	    13.454
   8.080        135.83	    12.767
   8.100        138.33	    12.884
   8.120        140.83	    13.000
   8.140        157.50	    13.748
   8.160        137.50	    12.845
   8.180        155.00	    13.638
   8.200        124.17	    12.207
   8.220        129.17	    12.450
   8.240        139.17	    12.923
   8.260        140.00	    12.961
   8.280        157.50	    13.748
   8.300        146.67	    13.266
   8.320        153.33	    13.565
   8.340        140.83	    13.000
   8.360        133.33	    12.649
   8.380        152.50	    13.528
   8.400        139.17	    12.923
   8.420        137.50	    12.845
   8.440        141.67	    13.038
   8.460        141.67	    13.038
   8.480        157.50	    13.748
   8.500        170.00	    14.283
   8.520        159.17	    13.820
   8.540        164.17	    14.036
   8.560        163.33	    14.000
   8.580        144.17	    13.153
   8.600        171.67	    14.353
   8.620        163.33	    14.000
   8.640        165.83	    14.107
   8.660        166.67	    14.142
   8.680        146.67	    13.266
   8.700        202.50	    15.588
   8.720        186.67	    14.967
   8.740        268.33	    17.944
   8.760        308.33	    19.235
   8.780        403.33	    22.000
   8.800        340.00	    20.199
   8.820        282.50	    18.412
   8.840        207.50	    15.780
   8.860        155.00	    13.638
   8.880        132.50	    12.610
   8.900        139.17	    12.923
   8.920        140.83	    13.000
   8.940        151.67	    13.491
   8.960        132.50	    12.610
   8.980        142.50	    13.077
   9.000        139.17	    12.923
   9.020        139.17	    12.923
   9.040        135.83	    12.767
   9.060        143.33	    13.115
   9.080        148.33	    13.342
   9.100        136.67	    12.806
   9.120        154.17	    13.601
   9.140        155.00	    13.638
   9.160        122.50	    12.124
   9.180        145.83	    13.229
   9.200        117.50	    11.874
   9.220        145.00	    13.191
   9.240        119.17	    11.958
   9.260        132.50	    12.610
   9.280        115.00	    11.747
   9.300        124.17	    12.207
   9.320        176.67	    14.560
   9.340        152.50	    13.528
   9.360        141.67	    13.038
   9.380        147.50	    13.304
   9.400        130.00	    12.490
   9.420        121.67	    12.083
   9.440        130.00	    12.490
   9.460        125.00	    12.247
   9.480        127.50	    12.369
   9.500        139.17	    12.923
   9.520        115.83	    11.790
   9.540        107.50	    11.358
   9.560        141.67	    13.038
   9.580        123.33	    12.166
   9.600        128.33	    12.410
   9.620        105.83	    11.269
   9.640        115.83	    11.790
   9.660        131.67	    12.570
   9.680        124.17	    12.207
   9.700        110.83	    11.533
   9.720        110.00	    11.489
   9.740        114.17	    11.705
   9.760        102.50	    11.091
   9.780         99.17	    10.909
   9.800        107.50	    11.358
   9.820        125.00	    12.247
   9.840        130.00	    12.490
   9.860        121.67	    12.083
   9.880        117.50	    11.874
   9.900         95.00	    10.677
   9.920        123.33	    12.166
   9.940         97.50	    10.817
   9.960         96.67	    10.770
   9.980        117.50	    11.874
  10.000         91.67	    10.488
  10.020        105.00	    11.225
  10.040        118.33	    11.916
  10.060        125.00	    12.247
  10.080        115.83	    11.790
  10.100        106.67	    11.314
  10.120         95.00	    10.677
  10.140        126.67	    12.329
  10.160        119.17	    11.958
  10.180        102.50	    11.091
  10.200        106.67	    11.314
  10.220        106.67	    11.314
  10.240        101.67	    11.045
  10.260        110.00	    11.489
  10.280        110.83	    11.533
  10.300        119.17	    11.958
  10.320        132.50	    12.610
  10.340        130.83	    12.530
  10.360        114.17	    11.705
  10.380        149.17	    13.379
  10.400        166.67	    14.142
  10.420        185.83	    14.933
  10.440        228.33	    16.553
  10.460        337.50	    20.125
  10.480        367.50	    21.000
  10.500        337.50	    20.125
  10.520        220.00	    16.248
  10.540        125.83	    12.288
  10.560        126.67	    12.329
  10.580        103.33	    11.136
  10.600        115.83	    11.790
  10.620        114.17	    11.705
  10.640        110.83	    11.533
  10.660        111.67	    11.576
  10.680        103.33	    11.136
  10.700        103.33	    11.136
  10.720        111.67	    11.576
  10.740        109.17	    11.446
  10.760        110.00	    11.489
  10.780        114.17	    11.705
  10.800         95.00	    10.677
  10.820        107.50	    11.358
  10.840        100.00	    10.954
  10.860         93.33	    10.583
  10.880        106.67	    11.314
  10.900        106.67	    11.314
  10.920        116.67	    11.832
  10.940        112.50	    11.619
  10.960        112.50	    11.619
  10.980         93.33	    10.583
  11.000        102.50	    11.091
  11.020         95.83	    10.724
  11.040         99.17	    10.909
  11.060        114.17	    11.705
  11.080        108.33	    11.402
  11.100        125.00	    12.247
  11.120        114.17	    11.705
  11.140         90.83	    10.440
  11.160         92.50	    10.536
  11.180        100.83	    11.000
  11.200         85.83	    10.149
  11.220        102.50	    11.091
  11.240        100.83	    11.000
  11.260        100.83	    11.000
  11.280         96.67	    10.770
  11.300        115.00	    11.747
  11.320        116.67	    11.832
  11.340         91.67	    10.488
  11.360        116.67	    11.832
  11.380         93.33	    10.583
  11.400        115.83	    11.790
  11.420        101.67	    11.045
  11.440        108.33	    11.402
  11.460         95.83	    10.724
  11.480        100.83	    11.000
  11.500         95.83	    10.724
  11.520         97.50	    10.817
  11.540         88.33	    10.296
  11.560        102.50	    11.091
  11.580        109.17	    11.446
  11.600         91.67	    10.488
  11.620         95.00	    10.677
  11.640         95.00	    10.677
  11.660        115.00	    11.747
  11.680        100.00	    10.954
  11.700         80.83	     9.849
  11.720        105.83	    11.269
  11.740         85.00	    10.100
  11.760        100.83	    11.000
  11.780         94.17	    10.630
  11.800        101.67	    11.045
  11.820        109.17	    11.446
  11.840        121.67	    12.083
  11.860        103.33	    11.136
  11.880        113.33	    11.662
  11.900        104.17	    11.180
  11.920        116.67	    11.832
  11.940        125.00	    12.247
  11.960        124.17	    12.207
  11.980        143.33	    13.115
  12.000        155.00	    13.638
  12.020        180.00	    14.697
  12.040        220.00	    16.248
  12.060        290.00	    18.655
  12.080        350.83	    20.518
  12.100        391.67	    21.679
  12.120        389.17	    21.610
  12.140        269.17	    17.972
  12.160        210.00	    15.875
  12.180        175.00	    14.491
  12.200        193.33	    15.232
  12.220        185.83	    14.933
  12.240        209.17	    15.843
  12.260        234.17	    16.763
  12.280        231.67	    16.673
  12.300        171.67	    14.353
  12.320        182.50	    14.799
  12.340        176.67	    14.560
  12.360        169.17	    14.248
  12.380        197.50	    15.395
  12.400        217.50	    16.155
  12.420        199.17	    15.460
  12.440        170.83	    14.318
  12.460        129.17	    12.450
  12.480        125.83	    12.288
  12.500        114.17	    11.705
  12.520        100.83	    11.000
  12.540         98.33	    10.863
  12.560         96.67	    10.770
  12.580         96.67	    10.770
  12.600         94.17	    10.630
  12.620        105.00	    11.225
  12.640         96.67	    10.770
  12.660         96.67	    10.770
  12.680        110.00	    11.489
  12.700         95.00	    10.677
  12.720         90.83	    10.440
  12.740         85.00	    10.100
  12.760         85.00	    10.100
  12.780         90.83	    10.440
  12.800         73.33	     9.381
  12.820         74.17	     9.434
  12.840         76.67	     9.592
  12.860         76.67	     9.592
  12.880         74.17	     9.434
  12.900         89.17	    10.344
  12.920         79.17	     9.747
  12.940         73.33	     9.381
  12.960         95.00	    10.677
  12.980         93.33	    10.583
  13.000        100.83	    11.000
  13.020         80.00	     9.798
  13.040         86.67	    10.198
  13.060         85.83	    10.149
  13.080         82.50	     9.950
  13.100         82.50	     9.950
  13.120         77.50	     9.644
  13.140         92.50	    10.536
  13.160         77.50	     9.644
  13.180         82.50	     9.950
  13.200         78.33	     9.695
  13.220         82.50	     9.950
  13.240         83.33	    10.000
  13.260         82.50	     9.950
  13.280         81.67	     9.899
  13.300        101.67	    11.045
  13.320         83.33	    10.000
  13.340         73.33	     9.381
  13.360         90.00	    10.392
  13.380         75.83	     9.539
  13.400         79.17	     9.747
  13.420         99.17	    10.909
  13.440         75.00	     9.487
  13.460         77.50	     9.644
  13.480         90.83	    10.440
  13.500         99.17	    10.909
  13.520        107.50	    11.358
  13.540         82.50	     9.950
  13.560         96.67	    10.770
  13.580         83.33	    10.000
  13.600         84.17	    10.050
  13.620         76.67	     9.592
  13.640         95.83	    10.724
  13.660         89.17	    10.344
  13.680         90.00	    10.392
  13.700         75.00	     9.487
  13.720        102.50	    11.091
  13.740        118.33	    11.916
  13.760        111.67	    11.576
  13.780        111.67	    11.576
  13.800         84.17	    10.050
  13.820         90.83	    10.440
  13.840         79.17	     9.747
  13.860         91.67	    10.488
  13.880         89.17	    10.344
  13.900         70.00	     9.165
  13.920         73.33	     9.381
  13.940         94.17	    10.630
  13.960         96.67	    10.770
  13.980         79.17	     9.747
  14.000         84.17	    10.050
  14.020         62.50	     8.660
  14.040         83.33	    10.000
  14.060         68.33	     9.055
  14.080         78.33	     9.695
  14.100         77.50	     9.644
  14.120         80.00	     9.798
  14.140         81.67	     9.899
  14.160         62.50	     8.660
  14.180         65.83	     8.888
  14.200         84.17	    10.050
  14.220         76.67	     9.592
  14.240         69.17	     9.110
  14.260         72.50	     9.327
  14.280         73.33	     9.381
  14.300         77.50	     9.644
  14.320         73.33	     9.381
  14.340         73.33	     9.381
  14.360         70.00	     9.165
  14.380         87.50	    10.247
  14.400         71.67	     9.274
  14.420         70.00	     9.165
  14.440         88.33	    10.296
  14.460         72.50	     9.327
  14.480         65.83	     8.888
  14.500         58.33	     8.367
  14.520         65.83	     8.888
  14.540         69.17	     9.110
  14.560         70.83	     9.220
  14.580         62.50	     8.660
  14.600         70.83	     9.220
  14.620         73.33	     9.381
  14.640         79.17	     9.747
  14.660         75.83	     9.539
  14.680         61.67	     8.602
  14.700         65.83	     8.888
  14.720         71.67	     9.274
  14.740         65.00	     8.832
  14.760         83.33	    10.000
  14.780         78.33	     9.695
  14.800         63.33	     8.718
  14.820         71.67	     9.274
  14.840         80.00	     9.798
  14.860         82.50	     9.950
  14.880         73.33	     9.381
  14.900         93.33	    10.583
  14.920         68.33	     9.055
  14.940         75.83	     9.539
  14.960         75.83	     9.539
  14.980         75.00	     9.487
  15.000         65.83	     8.888
  15.020         59.17	     8.426
  15.040         66.67	     8.944
  15.060         67.50	     9.000
  15.080         75.83	     9.539
  15.100         66.67	     8.944
  15.120         58.33	     8.367
  15.140         81.67	     9.899
  15.160         70.00	     9.165
  15.180         80.00	     9.798
  15.200         61.67	     8.602
  15.220         86.67	    10.198
  15.240         67.50	     9.000
  15.260         70.83	     9.220
  15.280         76.67	     9.592
  15.300         77.50	     9.644
  15.320         60.00	     8.485
  15.340         60.83	     8.544
  15.360         78.33	     9.695
  15.380         62.50	     8.660
  15.400         75.83	     9.539
  15.420         71.67	     9.274
  15.440         65.00	     8.832
  15.460         82.50	     9.950
  15.480         72.50	     9.327
  15.500         57.50	     8.307
  15.520         76.67	     9.592
  15.540         68.33	     9.055
  15.560         71.67	     9.274
  15.580         65.83	     8.888
  15.600         64.17	     8.775
  15.620         61.67	     8.602
  15.640         68.33	     9.055
  15.660         56.67	     8.246
  15.680         70.00	     9.165
  15.700         66.67	     8.944
  15.720         97.50	    10.817
  15.740         71.67	     9.274
  15.760         77.50	     9.644
  15.780         82.50	     9.950
  15.800         76.67	     9.592
  15.820         58.33	     8.367
  15.840         68.33	     9.055
  15.860         64.17	     8.775
  15.880         78.33	     9.695
  15.900         79.17	     9.747
  15.920         59.17	     8.426
  15.940         63.33	     8.718
  15.960         68.33	     9.055
  15.980         67.50	     9.000
  16.000         69.17	     9.110
  16.020         80.00	     9.798
  16.040         56.67	     8.246
  16.060         67.50	     9.000
  16.080         59.17	     8.426
  16.100         66.67	     8.944
  16.120         70.00	     9.165
  16.140         67.50	     9.000
  16.160         58.33	     8.367
  16.180         65.83	     8.888
  16.200         76.67	     9.592
  16.220         67.50	     9.000
  16.240         65.00	     8.832
  16.260         59.17	     8.426
  16.280         50.83	     7.810
  16.300         59.17	     8.426
  16.320         72.50	     9.327
  16.340         66.67	     8.944
  16.360         66.67	     8.944
  16.380         57.50	     8.307
  16.400         71.67	     9.274
  16.420         63.33	     8.718
  16.440         59.17	     8.426
  16.460         59.17	     8.426
  16.480         60.83	     8.544
  16.500         71.67	     9.274
  16.520         54.17	     8.062
  16.540         63.33	     8.718
  16.560         47.50	     7.550
  16.580         72.50	     9.327
  16.600         56.67	     8.246
  16.620         66.67	     8.944
  16.640         55.00	     8.124
  16.660         59.17	     8.426
  16.680         66.67	     8.944
  16.700         70.00	     9.165
  16.720         48.33	     7.616
  16.740         70.00	     9.165
  16.760         60.00	     8.485
  16.780         66.67	     8.944
  16.800         70.83	     9.220
  16.820         45.00	     7.348
  16.840         64.17	     8.775
  16.860         61.67	     8.602
  16.880         61.67	     8.602
  16.900         69.17	     9.110
  16.920         71.67	     9.274
  16.940         59.17	     8.426
  16.960         71.67	     9.274
  16.980         62.50	     8.660
  17.000         63.33	     8.718
  17.020         54.17	     8.062
  17.040         70.00	     9.165
  17.060         64.17	     8.775
  17.080         47.50	     7.550
  17.100         75.00	     9.487
  17.120         73.33	     9.381
  17.140         65.83	     8.888
  17.160         75.83	     9.539
  17.180         85.00	    10.100
  17.200         75.00	     9.487
  17.220         95.83	    10.724
  17.240         82.50	     9.950
  17.260         81.67	     9.899
  17.280         57.50	     8.307
  17.300         73.33	     9.381
  17.320         80.00	     9.798
  17.340         74.17	     9.434
  17.360         63.33	     8.718
  17.380         65.83	     8.888
  17.400         66.67	     8.944
  17.420         65.83	     8.888
  17.440         68.33	     9.055
  17.460         58.33	     8.367
  17.480         56.67	     8.246
  17.500         75.83	     9.539
  17.520         65.83	     8.888
  17.540         55.00	     8.124
  17.560         63.33	     8.718
  17.580         57.50	     8.307
  17.600         68.33	     9.055
  17.620         81.67	     9.899
  17.640         93.33	    10.583
  17.660         97.50	    10.817
  17.680        124.17	    12.207
  17.700        122.50	    12.124
  17.720        144.17	    13.153
  17.740        144.17	    13.153
  17.760        147.50	    13.304
  17.780        115.00	    11.747
  17.800        102.50	    11.091
  17.820        109.17	    11.446
  17.840         87.50	    10.247
  17.860         68.33	     9.055
  17.880         60.83	     8.544
  17.900         56.67	     8.246
  17.920         73.33	     9.381
  17.940         61.67	     8.602
  17.960         61.67	     8.602
  17.980         52.50	     7.937
  18.000         70.00	     9.165
  18.020         66.67	     8.944
  18.040         81.67	     9.899
  18.060         57.50	     8.307
  18.080         73.33	     9.381
  18.100         75.83	     9.539
  18.120         64.17	     8.775
  18.140         64.17	     8.775
  18.160         57.50	     8.307
  18.180         60.83	     8.544
  18.200         75.00	     9.487
  18.220         77.50	     9.644
  18.240         55.83	     8.185
  18.260         62.50	     8.660
  18.280         72.50	     9.327
  18.300         71.67	     9.274
  18.320         89.17	    10.344
  18.340         79.17	     9.747
  18.360         75.00	     9.487
  18.380         80.83	     9.849
  18.400         86.67	    10.198
  18.420         95.00	    10.677
  18.440         97.50	    10.817
  18.460        114.17	    11.705
  18.480        107.50	    11.358
  18.500        115.00	    11.747
  18.520        106.67	    11.314
  18.540         93.33	    10.583
  18.560         75.83	     9.539
  18.580         95.00	    10.677
  18.600         75.83	     9.539
  18.620         90.00	    10.392
  18.640        105.00	    11.225
  18.660        103.33	    11.136
  18.680        120.83	    12.042
  18.700        113.33	    11.662
  18.720        105.83	    11.269
  18.740         88.33	    10.296
  18.760         80.83	     9.849
  18.780         71.67	     9.274
  18.800         65.00	     8.832
  18.820         73.33	     9.381
  18.840         61.67	     8.602
  18.860         57.50	     8.307
  18.880         63.33	     8.718
  18.900         68.33	     9.055
  18.920         62.50	     8.660
  18.940         71.67	     9.274
  18.960         56.67	     8.246
  18.980         52.50	     7.937
  19.000         77.50	     9.644
  19.020         73.33	     9.381
  19.040         74.17	     9.434
  19.060         60.00	     8.485
  19.080         77.50	     9.644
  19.100         83.33	    10.000
  19.120         67.50	     9.000
  19.140         73.33	     9.381
  19.160         69.17	     9.110
  19.180         68.33	     9.055
  19.200         67.50	     9.000
  19.220         66.67	     8.944
  19.240         79.17	     9.747
  19.260         56.67	     8.246
  19.280         75.83	     9.539
  19.300         79.17	     9.747
  19.320         74.17	     9.434
  19.340         84.17	    10.050
  19.360         66.67	     8.944
  19.380         71.67	     9.274
  19.400         76.67	     9.592
  19.420         66.67	     8.944
  19.440         81.67	     9.899
  19.460         70.83	     9.220
  19.480         84.17	    10.050
  19.500         64.17	     8.775
  19.520         83.33	    10.000
  19.540         75.83	     9.539
  19.560         92.50	    10.536
  19.580         66.67	     8.944
  19.600         77.50	     9.644
  19.620         96.67	    10.770
  19.640         92.50	    10.536
  19.660        104.17	    11.180
  19.680         95.83	    10.724
  19.700         92.50	    10.536
  19.720        107.50	    11.358
  19.740        220.00	    16.248
  19.760        408.33	    22.136
  19.780        406.67	    22.091
  19.800        305.83	    19.157
  19.820        251.67	    17.378
  19.840        187.50	    15.000
  19.860         95.83	    10.724
  19.880         97.50	    10.817
  19.900         76.67	     9.592
  19.920         83.33	    10.000
  19.940         67.50	     9.000
  19.960         70.00	     9.165
  19.980         58.33	     8.367
  20.000         61.67	     8.602
  20.020         50.83	     7.810
  20.040         63.33	     8.718
  20.060         68.33	     9.055
  20.080         68.33	     9.055
  20.100         68.33	     9.055
  20.120         61.67	     8.602
  20.140         60.83	     8.544
  20.160         80.83	     9.849
  20.180         74.17	     9.434
  20.200         48.33	     7.616
  20.220         60.00	     8.485
  20.240         68.33	     9.055
  20.260         55.83	     8.185
  20.280         56.67	     8.246
  20.300         67.50	     9.000
  20.320         54.17	     8.062
  20.340         60.00	     8.485
  20.360         60.00	     8.485
  20.380         69.17	     9.110
  20.400         65.83	     8.888
  20.420         75.83	     9.539
  20.440         63.33	     8.718
  20.460         79.17	     9.747
  20.480         74.17	     9.434
  20.500         64.17	     8.775
  20.520         74.17	     9.434
  20.540         67.50	     9.000
  20.560         68.33	     9.055
  20.580         69.17	     9.110
  20.600         68.33	     9.055
  20.620         72.50	     9.327
  20.640        105.83	    11.269
  20.660         92.50	    10.536
  20.680        145.00	    13.191
  20.700        186.67	    14.967
  20.720        249.17	    17.292
  20.740        391.67	    21.679
  20.760        499.17	    24.474
  20.780        392.50	    21.703
  20.800        318.33	    19.545
  20.820        260.00	    17.664
  20.840        182.50	    14.799
  20.860        130.00	    12.490
  20.880        100.83	    11.000
  20.900         74.17	     9.434
  20.920         76.67	     9.592
  20.940         98.33	    10.863
  20.960         72.50	     9.327
  20.980         75.83	     9.539
  21.000         64.17	     8.775
  21.020         73.33	     9.381
  21.040         75.83	     9.539
  21.060         50.83	     7.810
  21.080         62.50	     8.660
  21.100         71.67	     9.274
  21.120         70.83	     9.220
  21.140         66.67	     8.944
  21.160         91.67	    10.488
  21.180         69.17	     9.110
  21.200         77.50	     9.644
  21.220         45.83	     7.416
  21.240         75.00	     9.487
  21.260         64.17	     8.775
  21.280         58.33	     8.367
  21.300         54.17	     8.062
  21.320         65.83	     8.888
  21.340         59.17	     8.426
  21.360         59.17	     8.426
  21.380         52.50	     7.937
  21.400         55.00	     8.124
  21.420         63.33	     8.718
  21.440         49.17	     7.681
  21.460         69.17	     9.110
  21.480         60.83	     8.544
  21.500         83.33	    10.000
  21.520         62.50	     8.660
  21.540         63.33	     8.718
  21.560         65.00	     8.832
  21.580         63.33	     8.718
  21.600         44.17	     7.280
  21.620         68.33	     9.055
  21.640         65.00	     8.832
  21.660         55.00	     8.124
  21.680         48.33	     7.616
  21.700         55.83	     8.185
  21.720         62.50	     8.660
  21.740         59.17	     8.426
  21.760         60.83	     8.544
  21.780         76.67	     9.592
  21.800         62.50	     8.660
  21.820         62.50	     8.660
  21.840         75.00	     9.487
  21.860         77.50	     9.644
  21.880        100.83	    11.000
  21.900        119.17	    11.958
  21.920        135.00	    12.728
  21.940        143.33	    13.115
  21.960        149.17	    13.379
  21.980        113.33	    11.662
  22.000        122.50	    12.124
  22.020        102.50	    11.091
  22.040         75.83	     9.539
  22.060         82.50	     9.950
  22.080         72.50	     9.327
  22.100         74.17	     9.434
  22.120         60.83	     8.544
  22.140         88.33	    10.296
  22.160         53.33	     8.000
  22.180         58.33	     8.367
  22.200         57.50	     8.307
  22.220         60.83	     8.544
  22.240         71.67	     9.274
  22.260         58.33	     8.367
  22.280         68.33	     9.055
  22.300         55.83	     8.185
  22.320         74.17	     9.434
  22.340         73.33	     9.381
  22.360         69.17	     9.110
  22.380         70.00	     9.165
  22.400         73.33	     9.381
  22.420         67.50	     9.000
  22.440         73.33	     9.381
  22.460         63.33	     8.718
  22.480         62.50	     8.660
  22.500         55.83	     8.185
  22.520         56.67	     8.246
  22.540         60.83	     8.544
  22.560         57.50	     8.307
  22.580         55.00	     8.124
  22.600         52.50	     7.937
  22.620         46.67	     7.483
  22.640         61.67	     8.602
  22.660         81.67	     9.899
  22.680         88.33	    10.296
  22.700        121.67	    12.083
  22.720        115.83	    11.790
  22.740        115.83	    11.790
  22.760        138.33	    12.884
  22.780        105.00	    11.225
  22.800         85.00	    10.100
  22.820        106.67	    11.314
  22.840         93.33	    10.583
  22.860         65.00	     8.832
  22.880         64.17	     8.775
  22.900         79.17	     9.747
  22.920         77.50	     9.644
  22.940         86.67	    10.198
  22.960         86.67	    10.198
  22.980         78.33	     9.695
  23.000         71.67	     9.274
  23.020         55.83	     8.185
  23.040         56.67	     8.246
  23.060         64.17	     8.775
  23.080         63.33	     8.718
  23.100         61.67	     8.602
  23.120         57.50	     8.307
  23.140         63.33	     8.718
  23.160         61.67	     8.602
  23.180         52.50	     7.937
  23.200         64.17	     8.775
  23.220         52.50	     7.937
  23.240         60.83	     8.544
  23.260         54.17	     8.062
  23.280         65.00	     8.832
  23.300         53.33	     8.000
  23.320         79.17	     9.747
  23.340         81.67	     9.899
  23.360         74.17	     9.434
  23.380         85.00	    10.100
  23.400        115.00	    11.747
  23.420        102.50	    11.091
  23.440        122.50	    12.124
  23.460        120.00	    12.000
  23.480        130.00	    12.490
  23.500        125.00	    12.247
  23.520        122.50	    12.124
  23.540         90.83	    10.440
  23.560         92.50	    10.536
  23.580         74.17	     9.434
  23.600         71.67	     9.274
  23.620         72.50	     9.327
  23.640         80.83	     9.849
  23.660         70.00	     9.165
  23.680         77.50	     9.644
  23.700         70.00	     9.165
  23.720         71.67	     9.274
  23.740         56.67	     8.246
  23.760         72.50	     9.327
  23.780         61.67	     8.602
  23.800         70.83	     9.220
  23.820         49.17	     7.681
  23.840         59.17	     8.426
  23.860         51.67	     7.874
  23.880         69.17	     9.110
  23.900         75.83	     9.539
  23.920         75.00	     9.487
  23.940         95.83	    10.724
  23.960         82.50	     9.950
  23.980         90.83	    10.440
  24.000         75.00	     9.487
  24.020        107.50	    11.358
  24.040        142.50	    13.077
  24.060        135.00	    12.728
  24.080        127.50	    12.369
  24.100        115.83	    11.790
  24.120        143.33	    13.115
  24.140        135.00	    12.728
  24.160        120.83	    12.042
  24.180        130.83	    12.530
  24.200        140.00	    12.961
  24.220        121.67	    12.083
  24.240        110.00	    11.489
  24.260         90.83	    10.440
  24.280         95.00	    10.677
  24.300         80.00	     9.798
  24.320         84.17	    10.050
  24.340         82.50	     9.950
  24.360        100.83	    11.000
  24.380        101.67	    11.045
  24.400        105.83	    11.269
  24.420        127.50	    12.369
  24.440        185.00	    14.900
  24.460        195.00	    15.297
  24.480        250.83	    17.349
  24.500        252.50	    17.407
  24.520        285.83	    18.520
  24.540        275.00	    18.166
  24.560        265.83	    17.861
  24.580        226.67	    16.492
  24.600        206.67	    15.748
  24.620        162.50	    13.964
  24.640        167.50	    14.177
  24.660        118.33	    11.916
  24.680        121.67	    12.083
  24.700        124.17	    12.207
  24.720        124.17	    12.207
  24.740        123.33	    12.166
  24.760        133.33	    12.649
  24.780        146.67	    13.266
  24.800        122.50	    12.124
  24.820        105.83	    11.269
  24.840        107.50	    11.358
  24.860         83.33	    10.000
  24.880         85.00	    10.100
  24.900        105.83	    11.269
  24.920        115.83	    11.790
  24.940        105.00	    11.225
  24.960         95.00	    10.677
  24.980        118.33	    11.916
  25.000        107.50	    11.358
  25.020        137.50	    12.845
  25.040        141.67	    13.038
  25.060        150.83	    13.454
  25.080        145.83	    13.229
  25.100        125.83	    12.288
  25.120        122.50	    12.124
  25.140        106.67	    11.314
  25.160         93.33	    10.583
  25.180         99.17	    10.909
  25.200         74.17	     9.434
  25.220        101.67	    11.045
  25.240         78.33	     9.695
  25.260         97.50	    10.817
  25.280         92.50	    10.536
  25.300        102.50	    11.091
  25.320         94.17	    10.630
  25.340        112.50	    11.619
  25.360        102.50	    11.091
  25.380        134.17	    12.689
  25.400        110.83	    11.533
  25.420        114.17	    11.705
  25.440        105.00	    11.225
  25.460        125.83	    12.288
  25.480        127.50	    12.369
  25.500        102.50	    11.091
  25.520         94.17	    10.630
  25.540        100.00	    10.954
  25.560        104.17	    11.180
  25.580        106.67	    11.314
  25.600         89.17	    10.344
  25.620         74.17	     9.434
  25.640         75.00	     9.487
  25.660         78.33	     9.695
  25.680         66.67	     8.944
  25.700         66.67	     8.944
  25.720         52.50	     7.937
  25.740         75.83	     9.539
  25.760         64.17	     8.775
  25.780         65.00	     8.832
  25.800         60.00	     8.485
  25.820         55.00	     8.124
  25.840         63.33	     8.718
  25.860         65.00	     8.832
  25.880         61.67	     8.602
  25.900         50.83	     7.810
  25.920         55.00	     8.124
  25.940         68.33	     9.055
  25.960         59.17	     8.426
  25.980         56.67	     8.246
  26.000         70.00	     9.165
  26.020         77.50	     9.644
  26.040         70.00	     9.165
  26.060         75.00	     9.487
  26.080         80.00	     9.798
  26.100        102.50	    11.091
  26.120         64.17	     8.775
  26.140         83.33	    10.000
  26.160         80.83	     9.849
  26.180         96.67	    10.770
  26.200        112.50	    11.619
  26.220        112.50	    11.619
  26.240        110.00	    11.489
  26.260        120.00	    12.000
  26.280        121.67	    12.083
  26.300        108.33	    11.402
  26.320        157.50	    13.748
  26.340        143.33	    13.115
  26.360        137.50	    12.845
  26.380        176.67	    14.560
  26.400        190.83	    15.133
  26.420        212.50	    15.969
  26.440        270.00	    18.000
  26.460        340.83	    20.224
  26.480        480.00	    24.000
  26.500        830.00	    31.559
  26.520       1356.67	    40.348
  26.540       1764.17	    46.011
  26.560       1453.33	    41.761
  26.580       1062.50	    35.707
  26.600       1024.17	    35.057
  26.620        879.17	    32.481
  26.640        468.33	    23.707
  26.660        271.67	    18.055
  26.680        227.50	    16.523
  26.700        240.00	    16.971
  26.720        293.33	    18.762
  26.740        320.00	    19.596
  26.760        344.17	    20.322
  26.780        360.00	    20.785
  26.800        334.17	    20.025
  26.820        316.67	    19.494
  26.840        310.00	    19.287
  26.860        245.00	    17.146
  26.880        213.33	    16.000
  26.900        164.17	    14.036
  26.920        125.83	    12.288
  26.940        115.00	    11.747
  26.960        103.33	    11.136
  26.980        105.00	    11.225
  27.000         94.17	    10.630
  27.020         83.33	    10.000
  27.040         80.00	     9.798
  27.060         68.33	     9.055
  27.080         74.17	     9.434
  27.100         73.33	     9.381
  27.120         48.33	     7.616
  27.140         63.33	     8.718
  27.160         74.17	     9.434
  27.180         75.00	     9.487
  27.200         70.00	     9.165
  27.220         87.50	    10.247
  27.240         90.00	    10.392
  27.260         74.17	     9.434
  27.280         97.50	    10.817
  27.300         91.67	    10.488
  27.320        109.17	    11.446
  27.340        148.33	    13.342
  27.360        194.17	    15.264
  27.380        207.50	    15.780
  27.400        212.50	    15.969
  27.420        181.67	    14.765
  27.440        175.00	    14.491
  27.460        192.50	    15.199
  27.480        166.67	    14.142
  27.500        129.17	    12.450
  27.520         98.33	    10.863
  27.540         93.33	    10.583
  27.560        105.83	    11.269
  27.580        112.50	    11.619
  27.600        128.33	    12.410
  27.620        146.67	    13.266
  27.640        162.50	    13.964
  27.660        158.33	    13.784
  27.680        158.33	    13.784
  27.700        175.00	    14.491
  27.720        183.33	    14.832
  27.740        217.50	    16.155
  27.760        296.67	    18.868
  27.780        422.50	    22.517
  27.800        494.17	    24.352
  27.820        540.00	    25.456
  27.840        595.83	    26.739
  27.860        525.00	    25.100
  27.880        386.67	    21.541
  27.900        343.33	    20.298
  27.920        281.67	    18.385
  27.940        188.33	    15.033
  27.960        153.33	    13.565
  27.980        122.50	    12.124
  28.000        123.33	    12.166
  28.020        155.00	    13.638
  28.040        130.00	    12.490
  28.060        110.00	    11.489
  28.080        117.50	    11.874
  28.100        112.50	    11.619
  28.120        105.00	    11.225
  28.140        105.83	    11.269
  28.160         92.50	    10.536
  28.180        101.67	    11.045
  28.200         85.00	    10.100
  28.220         79.17	     9.747
  28.240         94.17	    10.630
  28.260         77.50	     9.644
  28.280         80.83	     9.849
  28.300         78.33	     9.695
  28.320         52.50	     7.937
  28.340         55.83	     8.185
  28.360         65.83	     8.888
  28.380         67.50	     9.000
  28.400         75.00	     9.487
  28.420         85.83	    10.149
  28.440         85.00	    10.100
  28.460         85.00	    10.100
  28.480         93.33	    10.583
  28.500         95.83	    10.724
  28.520        105.83	    11.269
  28.540        105.00	    11.225
  28.560        100.00	    10.954
  28.580         87.50	    10.247
  28.600         85.00	    10.100
  28.620         65.83	     8.888
  28.640         57.50	     8.307
  28.660         61.67	     8.602
  28.680         63.33	     8.718
  28.700         54.17	     8.062
  28.720         65.00	     8.832
  28.740         53.33	     8.000
  28.760         58.33	     8.367
  28.780         55.00	     8.124
  28.800         51.67	     7.874
  28.820         42.50	     7.141
  28.840         44.17	     7.280
  28.860         38.33	     6.782
  28.880         47.50	     7.550
  28.900         52.50	     7.937
  28.920         45.00	     7.348
  28.940         51.67	     7.874
  28.960         68.33	     9.055
  28.980         44.17	     7.280
  29.000         56.67	     8.246
  29.020         48.33	     7.616
  29.040         57.50	     8.307
  29.060         67.50	     9.000
  29.080         45.00	     7.348
  29.100         49.17	     7.681
  29.120         51.67	     7.874
  29.140         38.33	     6.782
  29.160         50.83	     7.810
  29.180         58.33	     8.367
  29.200         47.50	     7.550
  29.220         48.33	     7.616
  29.240         45.83	     7.416
  29.260         40.83	     7.000
  29.280         55.83	     8.185
  29.300         57.50	     8.307
  29.320         48.33	     7.616
  29.340         55.00	     8.124
  29.360         53.33	     8.000
  29.380         58.33	     8.367
  29.400         50.83	     7.810
  29.420         61.67	     8.602
  29.440         53.33	     8.000
  29.460         63.33	     8.718
  29.480         61.67	     8.602
  29.500         64.17	     8.775
  29.520         51.67	     7.874
  29.540         59.17	     8.426
  29.560         54.17	     8.062
  29.580         57.50	     8.307
  29.600         53.33	     8.000
  29.620         68.33	     9.055
  29.640         79.17	     9.747
  29.660         65.83	     8.888
  29.680         77.50	     9.644
  29.700         82.50	     9.950
  29.720         98.33	    10.863
  29.740         90.00	    10.392
  29.760        100.00	    10.954
  29.780        105.00	    11.225
  29.800         96.67	    10.770
  29.820         89.17	    10.344
  29.840         89.17	    10.344
  29.860         84.17	    10.050
  29.880         84.17	    10.050
  29.900         74.17	     9.434
  29.920         75.00	     9.487
  29.940         84.17	    10.050
  29.960         95.83	    10.724
  29.980         83.33	    10.000
  30.000         94.17	    10.630
  30.020         83.33	    10.000
  30.040         84.17	    10.050
  30.060         79.17	     9.747
  30.080         66.67	     8.944
  30.100         71.67	     9.274
  30.120         83.33	    10.000
  30.140        106.67	    11.314
  30.160         81.67	     9.899
  30.180         78.33	     9.695
  30.200         73.33	     9.381
  30.220         76.67	     9.592
  30.240         87.50	    10.247
  30.260         74.17	     9.434
  30.280         80.83	     9.849
  30.300         69.17	     9.110
  30.320         67.50	     9.000
  30.340         72.50	     9.327
  30.360         83.33	    10.000
  30.380         83.33	    10.000
  30.400         84.17	    10.050
  30.420         95.83	    10.724
  30.440         74.17	     9.434
  30.460         67.50	     9.000
  30.480         70.83	     9.220
  30.500         74.17	     9.434
  30.520         51.67	     7.874
  30.540         50.83	     7.810
  30.560         49.17	     7.681
  30.580         45.00	     7.348
  30.600         50.00	     7.746
  30.620         56.67	     8.246
  30.640         55.00	     8.124
  30.660         69.17	     9.110
  30.680         75.00	     9.487
  30.700         67.50	     9.000
  30.720         78.33	     9.695
  30.740         92.50	    10.536
  30.760         75.83	     9.539
  30.780         92.50	    10.536
  30.800         80.83	     9.849
  30.820         81.67	     9.899
  30.840         85.00	    10.100
  30.860         65.83	     8.888
  30.880         75.83	     9.539
  30.900         53.33	     8.000
  30.920         68.33	     9.055
  30.940         49.17	     7.681
  30.960         66.67	     8.944
  30.980         81.67	     9.899
  31.000         60.83	     8.544
  31.020         59.17	     8.426
  31.040         61.67	     8.602
  31.060         65.00	     8.832
  31.080         78.33	     9.695
  31.100        105.83	    11.269
  31.120         75.83	     9.539
  31.140         83.33	    10.000
  31.160         81.67	     9.899
  31.180        100.83	    11.000
  31.200         72.50	     9.327
  31.220         60.00	     8.485
  31.240         58.33	     8.367
  31.260         75.83	     9.539
  31.280         55.83	     8.185
  31.300         65.00	     8.832
  31.320         57.50	     8.307
  31.340         59.17	     8.426
  31.360         62.50	     8.660
  31.380         53.33	     8.000
  31.400         65.00	     8.832
  31.420         52.50	     7.937
  31.440         69.17	     9.110
  31.460         68.33	     9.055
  31.480         72.50	     9.327
  31.500         51.67	     7.874
  31.520         56.67	     8.246
  31.540         53.33	     8.000
  31.560         48.33	     7.616
  31.580         46.67	     7.483
  31.600         46.67	     7.483
  31.620         56.67	     8.246
  31.640         57.50	     8.307
  31.660         55.83	     8.185
  31.680         55.83	     8.185
  31.700         40.00	     6.928
  31.720         54.17	     8.062
  31.740         45.83	     7.416
  31.760         45.00	     7.348
  31.780         60.83	     8.544
  31.800         54.17	     8.062
  31.820         70.00	     9.165
  31.840         40.00	     6.928
  31.860         48.33	     7.616
  31.880         63.33	     8.718
  31.900         65.00	     8.832
  31.920         76.67	     9.592
  31.940         90.00	    10.392
  31.960         83.33	    10.000
  31.980         78.33	     9.695
  32.000         90.83	    10.440
  32.020         78.33	     9.695
  32.040         80.00	     9.798
  32.060         70.00	     9.165
  32.080         65.00	     8.832
  32.100         60.00	     8.485
  32.120         65.83	     8.888
  32.140         62.50	     8.660
  32.160         64.17	     8.775
  32.180         66.67	     8.944
  32.200         56.67	     8.246
  32.220         65.00	     8.832
  32.240         50.00	     7.746
  32.260         49.17	     7.681
  32.280         63.33	     8.718
  32.300         53.33	     8.000
  32.320         45.00	     7.348
  32.340         46.67	     7.483
  32.360         66.67	     8.944
  32.380         60.83	     8.544
  32.400         59.17	     8.426
  32.420         42.50	     7.141
  32.440         45.00	     7.348
  32.460         46.67	     7.483
  32.480         41.67	     7.071
  32.500         43.33	     7.211
  32.520         46.67	     7.483
  32.540         38.33	     6.782
  32.560         45.00	     7.348
  32.580         37.50	     6.708
  32.600         58.33	     8.367
  32.620         45.83	     7.416
  32.640         37.50	     6.708
  32.660         35.00	     6.481
  32.680         45.00	     7.348
  32.700         37.50	     6.708
  32.720         36.67	     6.633
  32.740         43.33	     7.211
  32.760         35.83	     6.557
  32.780         58.33	     8.367
  32.800         52.50	     7.937
  32.820         34.17	     6.403
  32.840         50.83	     7.810
  32.860         38.33	     6.782
  32.880         61.67	     8.602
  32.900         56.67	     8.246
  32.920         53.33	     8.000
  32.940         66.67	     8.944
  32.960         78.33	     9.695
  32.980         75.00	     9.487
  33.000         76.67	     9.592
  33.020         68.33	     9.055
  33.040         57.50	     8.307
  33.060         45.83	     7.416
  33.080         56.67	     8.246
  33.100         49.17	     7.681
  33.120         50.00	     7.746
  33.140         51.67	     7.874
  33.160         50.00	     7.746
  33.180         38.33	     6.782
  33.200         54.17	     8.062
  33.220         54.17	     8.062
  33.240         57.50	     8.307
  33.260         43.33	     7.211
  33.280         49.17	     7.681
  33.300         47.50	     7.550
  33.320         40.83	     7.000
  33.340         41.67	     7.071
  33.360         50.83	     7.810
  33.380         46.67	     7.483
  33.400         44.17	     7.280
  33.420         55.83	     8.185
  33.440         67.50	     9.000
  33.460         48.33	     7.616
  33.480         46.67	     7.483
  33.500         42.50	     7.141
  33.520         38.33	     6.782
  33.540         40.83	     7.000
  33.560         50.00	     7.746
  33.580         44.17	     7.280
  33.600         47.50	     7.550
  33.620         48.33	     7.616
  33.640         46.67	     7.483
  33.660         44.17	     7.280
  33.680         46.67	     7.483
  33.700         44.17	     7.280
  33.720         42.50	     7.141
  33.740         48.33	     7.616
  33.760         59.17	     8.426
  33.780         60.00	     8.485
  33.800         59.17	     8.426
  33.820         56.67	     8.246
  33.840         63.33	     8.718
  33.860         48.33	     7.616
  33.880         61.67	     8.602
  33.900         67.50	     9.000
  33.920         59.17	     8.426
  33.940         78.33	     9.695
  33.960         58.33	     8.367
  33.980         65.83	     8.888
  34.000         53.33	     8.000
  34.020         65.83	     8.888
  34.040         50.83	     7.810
  34.060         56.67	     8.246
  34.080         55.83	     8.185
  34.100         50.83	     7.810
  34.120         55.00	     8.124
  34.140         55.00	     8.124
  34.160         66.67	     8.944
  34.180         57.50	     8.307
  34.200         51.67	     7.874
  34.220         60.83	     8.544
  34.240         57.50	     8.307
  34.260         57.50	     8.307
  34.280         75.00	     9.487
  34.300         61.67	     8.602
  34.320         66.67	     8.944
  34.340         65.83	     8.888
  34.360        104.17	    11.180
  34.380         88.33	    10.296
  34.400        109.17	    11.446
  34.420        100.00	    10.954
  34.440         93.33	    10.583
  34.460         98.33	    10.863
  34.480         97.50	    10.817
  34.500        106.67	    11.314
  34.520        114.17	    11.705
  34.540         93.33	    10.583
  34.560         84.17	    10.050
  34.580         80.83	     9.849
  34.600         68.33	     9.055
  34.620         69.17	     9.110
  34.640         78.33	     9.695
  34.660        100.83	    11.000
  34.680         85.00	    10.100
  34.700         85.00	    10.100
  34.720         99.17	    10.909
  34.740        100.83	    11.000
  34.760         99.17	    10.909
  34.780        124.17	    12.207
  34.800        116.67	    11.832
  34.820        101.67	    11.045
  34.840        111.67	    11.576
  34.860        124.17	    12.207
  34.880        106.67	    11.314
  34.900        119.17	    11.958
  34.920        133.33	    12.649
  34.940        109.17	    11.446
  34.960         98.33	    10.863
  34.980         99.17	    10.909
  35.000         91.67	    10.488
  35.020        117.50	    11.874
  35.040         88.33	    10.296
  35.060         83.33	    10.000
  35.080         81.67	     9.899
  35.100         80.83	     9.849
  35.120         85.00	    10.100
  35.140         77.50	     9.644
  35.160         95.83	    10.724
  35.180         95.83	    10.724
  35.200         85.00	    10.100
  35.220         79.17	     9.747
  35.240         85.83	    10.149
  35.260         76.67	     9.592
  35.280         85.83	    10.149
  35.300        106.67	    11.314
  35.320        112.50	    11.619
  35.340        122.50	    12.124
  35.360        130.00	    12.490
  35.380        145.83	    13.229
  35.400        165.00	    14.071
  35.420        195.83	    15.330
  35.440        190.83	    15.133
  35.460        190.83	    15.133
  35.480        183.33	    14.832
  35.500        188.33	    15.033
  35.520        168.33	    14.213
  35.540        171.67	    14.353
  35.560        165.00	    14.071
  35.580        122.50	    12.124
  35.600        113.33	    11.662
  35.620        105.00	    11.225
  35.640        100.83	    11.000
  35.660         96.67	    10.770
  35.680         82.50	     9.950
  35.700         65.83	     8.888
  35.720         87.50	    10.247
  35.740         68.33	     9.055
  35.760         57.50	     8.307
  35.780         76.67	     9.592
  35.800         59.17	     8.426
  35.820         65.83	     8.888
  35.840         68.33	     9.055
  35.860         61.67	     8.602
  35.880         52.50	     7.937
  35.900         59.17	     8.426
  35.920         74.17	     9.434
  35.940         75.83	     9.539
  35.960         65.00	     8.832
  35.980         65.00	     8.832
  36.000         56.67	     8.246
  36.020         66.67	     8.944
  36.040         70.83	     9.220
  36.060         60.00	     8.485
  36.080         60.83	     8.544
  36.100         70.83	     9.220
  36.120         49.17	     7.681
  36.140         52.50	     7.937
  36.160         45.00	     7.348
  36.180         56.67	     8.246
  36.200         60.00	     8.485
  36.220         60.83	     8.544
  36.240         70.00	     9.165
  36.260         59.17	     8.426
  36.280         70.00	     9.165
  36.300         77.50	     9.644
  36.320        102.50	    11.091
  36.340        111.67	    11.576
  36.360        118.33	    11.916
  36.380        118.33	    11.916
  36.400        179.17	    14.663
  36.420        255.00	    17.493
  36.440        330.83	    19.925
  36.460        260.83	    17.692
  36.480        182.50	    14.799
  36.500        155.00	    13.638
  36.520        203.33	    15.620
  36.540        175.83	    14.526
  36.560        145.83	    13.229
  36.580        122.50	    12.124
  36.600         97.50	    10.817
  36.620         88.33	    10.296
  36.640        104.17	    11.180
  36.660        114.17	    11.705
  36.680         71.67	     9.274
  36.700         74.17	     9.434
  36.720         74.17	     9.434
  36.740         55.83	     8.185
  36.760         66.67	     8.944
  36.780         70.83	     9.220
  36.800         55.83	     8.185
  36.820         55.00	     8.124
  36.840         46.67	     7.483
  36.860         54.17	     8.062
  36.880         64.17	     8.775
  36.900         43.33	     7.211
  36.920         46.67	     7.483
  36.940         49.17	     7.681
  36.960         45.83	     7.416
  36.980         46.67	     7.483
  37.000         45.83	     7.416
  37.020         58.33	     8.367
  37.040         79.17	     9.747
  37.060         72.50	     9.327
  37.080         59.17	     8.426
  37.100         55.00	     8.124
  37.120         65.83	     8.888
  37.140         54.17	     8.062
  37.160         76.67	     9.592
  37.180         61.67	     8.602
  37.200         68.33	     9.055
  37.220         75.83	     9.539
  37.240         74.17	     9.434
  37.260         64.17	     8.775
  37.280         63.33	     8.718
  37.300         74.17	     9.434
  37.320         78.33	     9.695
  37.340         71.67	     9.274
  37.360         66.67	     8.944
  37.380         78.33	     9.695
  37.400         70.83	     9.220
  37.420         59.17	     8.426
  37.440         57.50	     8.307
  37.460         80.00	     9.798
  37.480         82.50	     9.950
  37.500         88.33	    10.296
  37.520         78.33	     9.695
  37.540         77.50	     9.644
  37.560         95.00	    10.677
  37.580         84.17	    10.050
  37.600         85.00	    10.100
  37.620         85.00	    10.100
  37.640         93.33	    10.583
  37.660         85.83	    10.149
  37.680         68.33	     9.055
  37.700         65.00	     8.832
  37.720         59.17	     8.426
  37.740         79.17	     9.747
  37.760         60.00	     8.485
  37.780         54.17	     8.062
  37.800         30.83	     6.083
  37.820         40.00	     6.928
  37.840         44.17	     7.280
  37.860         37.50	     6.708
  37.880         38.33	     6.782
  37.900         42.50	     7.141
  37.920         39.17	     6.856
  37.940         55.00	     8.124
  37.960         47.50	     7.550
  37.980         42.50	     7.141
  38.000         33.33	     6.325
  38.020         30.00	     6.000
  38.040         44.17	     7.280
  38.060         45.83	     7.416
  38.080         40.00	     6.928
  38.100         44.17	     7.280
  38.120         37.50	     6.708
  38.140         45.83	     7.416
  38.160         33.33	     6.325
  38.180         39.17	     6.856
  38.200         36.67	     6.633
  38.220         42.50	     7.141
  38.240         37.50	     6.708
  38.260         39.17	     6.856
  38.280         37.50	     6.708
  38.300         32.50	     6.245
  38.320         44.17	     7.280
  38.340         30.00	     6.000
  38.360         45.00	     7.348
  38.380         45.00	     7.348
  38.400         45.00	     7.348
  38.420         43.33	     7.211
  38.440         54.17	     8.062
  38.460         67.50	     9.000
  38.480         60.83	     8.544
  38.500         51.67	     7.874
  38.520         62.50	     8.660
  38.540         64.17	     8.775
  38.560         68.33	     9.055
  38.580         47.50	     7.550
  38.600         45.83	     7.416
  38.620         51.67	     7.874
  38.640         42.50	     7.141
  38.660         62.50	     8.660
  38.680         59.17	     8.426
  38.700         58.33	     8.367
  38.720         53.33	     8.000
  38.740         75.83	     9.539
  38.760         63.33	     8.718
  38.780         49.17	     7.681
  38.800         62.50	     8.660
  38.820         49.17	     7.681
  38.840         61.67	     8.602
  38.860         46.67	     7.483
  38.880         45.83	     7.416
  38.900         39.17	     6.856
  38.920         55.83	     8.185
  38.940         49.17	     7.681
  38.960         50.83	     7.810
  38.980         43.33	     7.211
  39.000         37.50	     6.708
  39.020         44.17	     7.280
  39.040         50.83	     7.810
  39.060         46.67	     7.483
  39.080         43.33	     7.211
  39.100         46.67	     7.483
  39.120         35.00	     6.481
  39.140         51.67	     7.874
  39.160         60.00	     8.485
  39.180         37.50	     6.708
  39.200         40.00	     6.928
  39.220         55.83	     8.185
  39.240         65.00	     8.832
  39.260         61.67	     8.602
  39.280         78.33	     9.695
  39.300         80.00	     9.798
  39.320         89.17	    10.344
  39.340        113.33	    11.662
  39.360        128.33	    12.410
  39.380         98.33	    10.863
  39.400        117.50	    11.874
  39.420        101.67	    11.045
  39.440        105.83	    11.269
  39.460        115.83	    11.790
  39.480         92.50	    10.536
  39.500         80.00	     9.798
  39.520         61.67	     8.602
  39.540         50.83	     7.810
  39.560         63.33	     8.718
  39.580         65.83	     8.888
  39.600         53.33	     8.000
  39.620         63.33	     8.718
  39.640         55.00	     8.124
  39.660         49.17	     7.681
  39.680         53.33	     8.000
  39.700         55.00	     8.124
  39.720         49.17	     7.681
  39.740         58.33	     8.367
  39.760         49.17	     7.681
  39.780         48.33	     7.616
  39.800         55.83	     8.185
  39.820         48.33	     7.616
  39.840         51.67	     7.874
  39.860         52.50	     7.937
  39.880         45.83	     7.416
  39.900         48.33	     7.616
  39.920         54.17	     8.062
  39.940         52.50	     7.937
  39.960         40.00	     6.928
  39.980         40.83	     7.000
  40.000         53.33	     8.000
  40.020         48.33	     7.616
  40.040         40.00	     6.928
  40.060         43.33	     7.211
  40.080         46.67	     7.483
  40.100         52.50	     7.937
  40.120         65.00	     8.832
  40.140         65.00	     8.832
  40.160         75.83	     9.539
  40.180         88.33	    10.296
  40.200         84.17	    10.050
  40.220         79.17	     9.747
  40.240         72.50	     9.327
  40.260         68.33	     9.055
  40.280         67.50	     9.000
  40.300         65.00	     8.832
  40.320         69.17	     9.110
  40.340         52.50	     7.937
  40.360         51.67	     7.874
  40.380         57.50	     8.307
  40.400         40.00	     6.928
  40.420         43.33	     7.211
  40.440         39.17	     6.856
  40.460         54.17	     8.062
  40.480         50.00	     7.746
  40.500         47.50	     7.550
  40.520         35.83	     6.557
  40.540         49.17	     7.681
  40.560         48.33	     7.616
  40.580         58.33	     8.367
  40.600         45.00	     7.348
  40.620         42.50	     7.141
  40.640         54.17	     8.062
  40.660         43.33	     7.211
  40.680         40.83	     7.000
  40.700         40.00	     6.928
  40.720         45.00	     7.348
  40.740         47.50	     7.550
  40.760         46.67	     7.483
  40.780         54.17	     8.062
  40.800         42.50	     7.141
  40.820         50.83	     7.810
  40.840         46.67	     7.483
  40.860         48.33	     7.616
  40.880         61.67	     8.602
  40.900         43.33	     7.211
  40.920         53.33	     8.000
  40.940         45.00	     7.348
  40.960         50.83	     7.810
  40.980         62.50	     8.660
  41.000         53.33	     8.000
  41.020         65.00	     8.832
  41.040         49.17	     7.681
  41.060         55.83	     8.185
  41.080         45.00	     7.348
  41.100         47.50	     7.550
  41.120         52.50	     7.937
  41.140         50.83	     7.810
  41.160         50.00	     7.746
  41.180         67.50	     9.000
  41.200         60.83	     8.544
  41.220         55.83	     8.185
  41.240         63.33	     8.718
  41.260         90.83	    10.440
  41.280         85.00	    10.100
  41.300         52.50	     7.937
  41.320         58.33	     8.367
  41.340         64.17	     8.775
  41.360         53.33	     8.000
  41.380         73.33	     9.381
  41.400         65.83	     8.888
  41.420         63.33	     8.718
  41.440         50.83	     7.810
  41.460         59.17	     8.426
  41.480         63.33	     8.718
  41.500         80.00	     9.798
  41.520         84.17	    10.050
  41.540         90.00	    10.392
  41.560        119.17	    11.958
  41.580        137.50	    12.845
  41.600        142.50	    13.077
  41.620        103.33	    11.136
  41.640        110.00	    11.489
  41.660        110.00	    11.489
  41.680        115.83	    11.790
  41.700        115.83	    11.790
  41.720         93.33	    10.583
  41.740         80.83	     9.849
  41.760         91.67	    10.488
  41.780         85.00	    10.100
  41.800         69.17	     9.110
  41.820         69.17	     9.110
  41.840         58.33	     8.367
  41.860         68.33	     9.055
  41.880         75.00	     9.487
  41.900         52.50	     7.937
  41.920         47.50	     7.550
  41.940         62.50	     8.660
  41.960         56.67	     8.246
  41.980         56.67	     8.246
  42.000         61.67	     8.602
  42.020         52.50	     7.937
  42.040         58.33	     8.367
  42.060         50.00	     7.746
  42.080         69.17	     9.110
  42.100         59.17	     8.426
  42.120         61.67	     8.602
  42.140         63.33	     8.718
  42.160         59.17	     8.426
  42.180         77.50	     9.644
  42.200         90.00	    10.392
  42.220         80.83	     9.849
  42.240         95.00	    10.677
  42.260        105.83	    11.269
  42.280        110.83	    11.533
  42.300        135.83	    12.767
  42.320        192.50	    15.199
  42.340        215.83	    16.093
  42.360        212.50	    15.969
  42.380        162.50	    13.964
  42.400        145.83	    13.229
  42.420        156.67	    13.711
  42.440        135.00	    12.728
  42.460        141.67	    13.038
  42.480        120.00	    12.000
  42.500        110.83	    11.533
  42.520         88.33	    10.296
  42.540         78.33	     9.695
  42.560         67.50	     9.000
  42.580         57.50	     8.307
  42.600         53.33	     8.000
  42.620         66.67	     8.944
  42.640         70.83	     9.220
  42.660         55.00	     8.124
  42.680         55.83	     8.185
  42.700         58.33	     8.367
  42.720         53.33	     8.000
  42.740         40.83	     7.000
  42.760         41.67	     7.071
  42.780         55.83	     8.185
  42.800         40.00	     6.928
  42.820         64.17	     8.775
  42.840         47.50	     7.550
  42.860         50.00	     7.746
  42.880         45.00	     7.348
  42.900         53.33	     8.000
  42.920         55.00	     8.124
  42.940         51.67	     7.874
  42.960         55.00	     8.124
  42.980         48.33	     7.616
  43.000         53.33	     8.000
  43.020         47.50	     7.550
  43.040         48.33	     7.616
  43.060         50.83	     7.810
  43.080         52.50	     7.937
  43.100         47.50	     7.550
  43.120         45.00	     7.348
  43.140         45.00	     7.348
  43.160         48.33	     7.616
  43.180         54.17	     8.062
  43.200         45.83	     7.416
  43.220         46.67	     7.483
  43.240         35.83	     6.557
  43.260         57.50	     8.307
  43.280         50.00	     7.746
  43.300         46.67	     7.483
  43.320         50.83	     7.810
  43.340         50.00	     7.746
  43.360         65.00	     8.832
  43.380         60.83	     8.544
  43.400         57.50	     8.307
  43.420         74.17	     9.434
  43.440         75.00	     9.487
  43.460         75.00	     9.487
  43.480         80.83	     9.849
  43.500         84.17	    10.050
  43.520         83.33	    10.000
  43.540         97.50	    10.817
  43.560        107.50	    11.358
  43.580         97.50	    10.817
  43.600         87.50	    10.247
  43.620        107.50	    11.358
  43.640         96.67	    10.770
  43.660         89.17	    10.344
  43.680         84.17	    10.050
  43.700         94.17	    10.630
  43.720         90.00	    10.392
  43.740         96.67	    10.770
  43.760         77.50	     9.644
  43.780         75.00	     9.487
  43.800         92.50	    10.536
  43.820         75.83	     9.539
  43.840         75.83	     9.539
  43.860         80.83	     9.849
  43.880         84.17	    10.050
  43.900         80.00	     9.798
  43.920         83.33	    10.000
  43.940         90.83	    10.440
  43.960         87.50	    10.247
  43.980         98.33	    10.863
  44.000        106.67	    11.314
  44.020        118.33	    11.916
  44.040        103.33	    11.136
  44.060        137.50	    12.845
  44.080        140.00	    12.961
  44.100        117.50	    11.874
  44.120        145.83	    13.229
  44.140        159.17	    13.820
  44.160        160.83	    13.892
  44.180        188.33	    15.033
  44.200        198.33	    15.427
  44.220        209.17	    15.843
  44.240        227.50	    16.523
  44.260        235.00	    16.793
  44.280        245.00	    17.146
  44.300        275.83	    18.193
  44.320        267.50	    17.916
  44.340        292.50	    18.735
  44.360        314.17	    19.416
  44.380        315.83	    19.468
  44.400        325.83	    19.774
  44.420        345.00	    20.347
  44.440        310.00	    19.287
  44.460        291.67	    18.708
  44.480        326.67	    19.799
  44.500        304.17	    19.105
  44.520        251.67	    17.378
  44.540        257.50	    17.578
  44.560        269.17	    17.972
  44.580        248.33	    17.263
  44.600        250.83	    17.349
  44.620        212.50	    15.969
  44.640        219.17	    16.217
  44.660        187.50	    15.000
  44.680        201.67	    15.556
  44.700        172.50	    14.387
  44.720        136.67	    12.806
  44.740        147.50	    13.304
  44.760        145.00	    13.191
  44.780        133.33	    12.649
  44.800        140.00	    12.961
  44.820        135.83	    12.767
  44.840        115.00	    11.747
  44.860        115.83	    11.790
  44.880         90.83	    10.440
  44.900        110.00	    11.489
  44.920        105.00	    11.225
  44.940        107.50	    11.358
  44.960        108.33	    11.402
  44.980         92.50	    10.536
  45.000        100.00	    10.954
  45.020        103.33	    11.136
  45.040        105.83	    11.269
  45.060         85.00	    10.100
  45.080         88.33	    10.296
  45.100         94.17	    10.630
  45.120         86.67	    10.198
  45.140         77.50	     9.644
  45.160         89.17	    10.344
  45.180         69.17	     9.110
  45.200         77.50	     9.644
  45.220         70.00	     9.165
  45.240         78.33	     9.695
  45.260         76.67	     9.592
  45.280         80.00	     9.798
  45.300         80.00	     9.798
  45.320         74.17	     9.434
  45.340         76.67	     9.592
  45.360        100.83	    11.000
  45.380        120.83	    12.042
  45.400        115.00	    11.747
  45.420        124.17	    12.207
  45.440        145.00	    13.191
  45.460        117.50	    11.874
  45.480        138.33	    12.884
  45.500        160.83	    13.892
  45.520        127.50	    12.369
  45.540        132.50	    12.610
  45.560        145.83	    13.229
  45.580        136.67	    12.806
  45.600        136.67	    12.806
  45.620        140.00	    12.961
  45.640        137.50	    12.845
  45.660        155.00	    13.638
  45.680        177.50	    14.595
  45.700        180.00	    14.697
  45.720        198.33	    15.427
  45.740        120.00	    12.000
  45.760        108.33	    11.402
  45.780         93.33	    10.583
  45.800         98.33	    10.863
  45.820        115.83	    11.790
  45.840        134.17	    12.689
  45.860         99.17	    10.909
  45.880         67.50	     9.000
  45.900         61.67	     8.602
  45.920         46.67	     7.483
  45.940         53.33	     8.000
  45.960         62.50	     8.660
  45.980         37.50	     6.708
  46.000         47.50	     7.550
  46.020         41.67	     7.071
  46.040         42.50	     7.141
  46.060         41.67	     7.071
  46.080         35.00	     6.481
  46.100         42.50	     7.141
  46.120         42.50	     7.141
  46.140         49.17	     7.681
  46.160         45.83	     7.416
  46.180         33.33	     6.325
  46.200         41.67	     7.071
  46.220         34.17	     6.403
  46.240         36.67	     6.633
  46.260         35.83	     6.557
  46.280         33.33	     6.325
  46.300         45.00	     7.348
  46.320         45.00	     7.348
  46.340         45.00	     7.348
  46.360         29.17	     5.916
  46.380         45.00	     7.348
  46.400         51.67	     7.874
  46.420         37.50	     6.708
  46.440         35.00	     6.481
  46.460         40.83	     7.000
  46.480         47.50	     7.550
  46.500         41.67	     7.071
  46.520         37.50	     6.708
  46.540         43.33	     7.211
  46.560         35.00	     6.481
  46.580         34.17	     6.403
  46.600         47.50	     7.550
  46.620         40.00	     6.928
  46.640         39.17	     6.856
  46.660         33.33	     6.325
  46.680         29.17	     5.916
  46.700         40.00	     6.928
  46.720         42.50	     7.141
  46.740         36.67	     6.633
  46.760         50.83	     7.810
  46.780         49.17	     7.681
  46.800         44.17	     7.280
  46.820         31.67	     6.164
  46.840         28.33	     5.831
  46.860         42.50	     7.141
  46.880         42.50	     7.141
  46.900         40.83	     7.000
  46.920         45.00	     7.348
  46.940         34.17	     6.403
  46.960         38.33	     6.782
  46.980         49.17	     7.681
  47.000         50.00	     7.746
  47.020         70.00	     9.165
  47.040         62.50	     8.660
  47.060         50.00	     7.746
  47.080         45.00	     7.348
  47.100         55.00	     8.124
  47.120         42.50	     7.141
  47.140         50.83	     7.810
  47.160         41.67	     7.071
  47.180         38.33	     6.782
  47.200         46.67	     7.483
  47.220         40.00	     6.928
  47.240         40.83	     7.000
  47.260         40.00	     6.928
  47.280         40.00	     6.928
  47.300         41.67	     7.071
  47.320         28.33	     5.831
  47.340         33.33	     6.325
  47.360         40.83	     7.000
  47.380         42.50	     7.141
  47.400         32.50	     6.245
  47.420         33.33	     6.325
  47.440         41.67	     7.071
  47.460         48.33	     7.616
  47.480         26.67	     5.657
  47.500         21.67	     5.099
  47.520         35.00	     6.481
  47.540         31.67	     6.164
  47.560         34.17	     6.403
  47.580         25.00	     5.477
  47.600         30.83	     6.083
  47.620         30.00	     6.000
  47.640         28.33	     5.831
  47.660         31.67	     6.164
  47.680         29.17	     5.916
  47.700         45.83	     7.416
  47.720         35.83	     6.557
  47.740         35.00	     6.481
  47.760         52.50	     7.937
  47.780         41.67	     7.071
  47.800         41.67	     7.071
  47.820         59.17	     8.426
  47.840         63.33	     8.718
  47.860        110.83	    11.533
  47.880         74.17	     9.434
  47.900        100.83	    11.000
  47.920         97.50	    10.817
  47.940         65.83	     8.888
  47.960         54.17	     8.062
  47.980         74.17	     9.434
  48.000         84.17	    10.050
  48.020         92.50	    10.536
  48.040         80.00	     9.798
  48.060         65.83	     8.888
  48.080         55.83	     8.185
  48.100         55.83	     8.185
  48.120         54.17	     8.062
  48.140         50.83	     7.810
  48.160         61.67	     8.602
  48.180         55.00	     8.124
  48.200         49.17	     7.681
  48.220         37.50	     6.708
  48.240         50.00	     7.746
  48.260         40.00	     6.928
  48.280         35.00	     6.481
  48.300         42.50	     7.141
  48.320         42.50	     7.141
  48.340         51.67	     7.874
  48.360         42.50	     7.141
  48.380         48.33	     7.616
  48.400         49.17	     7.681
  48.420         29.17	     5.916
  48.440         39.17	     6.856
  48.460         41.67	     7.071
  48.480         45.83	     7.416
  48.500         33.33	     6.325
  48.520         38.33	     6.782
  48.540         52.50	     7.937
  48.560         37.50	     6.708
  48.580         36.67	     6.633
  48.600         42.50	     7.141
  48.620         36.67	     6.633
  48.640         48.33	     7.616
  48.660         51.67	     7.874
  48.680         42.50	     7.141
  48.700         40.00	     6.928
  48.720         36.67	     6.633
  48.740         32.50	     6.245
  48.760         40.83	     7.000
  48.780         36.67	     6.633
  48.800         44.17	     7.280
  48.820         44.17	     7.280
  48.840         40.00	     6.928
  48.860         45.00	     7.348
  48.880         44.17	     7.280
  48.900         46.67	     7.483
  48.920         38.33	     6.782
  48.940         32.50	     6.245
  48.960         38.33	     6.782
  48.980         52.50	     7.937
  49.000         43.33	     7.211
  49.020         47.50	     7.550
  49.040         44.17	     7.280
  49.060         43.33	     7.211
  49.080         45.00	     7.348
  49.100         45.00	     7.348
  49.120         47.50	     7.550
  49.140         53.33	     8.000
  49.160         53.33	     8.000
  49.180         62.50	     8.660
  49.200         45.00	     7.348
  49.220         49.17	     7.681
  49.240         51.67	     7.874
  49.260         64.17	     8.775
  49.280         54.17	     8.062
  49.300         42.50	     7.141
  49.320         52.50	     7.937
  49.340         66.67	     8.944
  49.360         53.33	     8.000
  49.380         55.00	     8.124
  49.400         45.83	     7.416
  49.420         50.83	     7.810
  49.440         53.33	     8.000
  49.460         46.67	     7.483
  49.480         54.17	     8.062
  49.500         46.67	     7.483
  49.520         54.17	     8.062
  49.540         56.67	     8.246
  49.560         44.17	     7.280
  49.580         51.67	     7.874
  49.600         70.00	     9.165
  49.620         55.83	     8.185
  49.640         56.67	     8.246
  49.660         45.00	     7.348
  49.680         69.17	     9.110
  49.700         55.83	     8.185
  49.720         59.17	     8.426
  49.740         61.67	     8.602
  49.760         59.17	     8.426
  49.780         69.17	     9.110
  49.800         75.00	     9.487
  49.820         91.67	    10.488
  49.840         70.00	     9.165
  49.860         79.17	     9.747
  49.880         67.50	     9.000
  49.900         74.17	     9.434
  49.920         88.33	    10.296
  49.940         97.50	    10.817
  49.960        126.67	    12.329
  49.980        155.00	    13.638
  50.000        176.67	    14.560
  50.020        207.50	    15.780
  50.040        215.83	    16.093
  50.060        186.67	    14.967
  50.080        151.67	    13.491
  50.100        116.67	    11.832
  50.120        121.67	    12.083
  50.140        103.33	    11.136
  50.160        112.50	    11.619
  50.180        124.17	    12.207
  50.200        100.83	    11.000
  50.220         94.17	    10.630
  50.240         56.67	     8.246
  50.260         59.17	     8.426
  50.280         61.67	     8.602
  50.300         61.67	     8.602
  50.320         55.00	     8.124
  50.340         74.17	     9.434
  50.360         60.83	     8.544
  50.380         63.33	     8.718
  50.400         69.17	     9.110
  50.420         68.33	     9.055
  50.440         62.50	     8.660
  50.460         64.17	     8.775
  50.480         77.50	     9.644
  50.500         60.83	     8.544
  50.520         75.00	     9.487
  50.540         64.17	     8.775
  50.560         62.50	     8.660
  50.580         52.50	     7.937
  50.600         58.33	     8.367
  50.620         45.83	     7.416
  50.640         58.33	     8.367
  50.660         68.33	     9.055
  50.680         61.67	     8.602
  50.700         50.83	     7.810
  50.720         41.67	     7.071
  50.740         48.33	     7.616
  50.760         44.17	     7.280
  50.780         40.00	     6.928
  50.800         50.00	     7.746
  50.820         35.00	     6.481
  50.840         50.83	     7.810
  50.860         40.00	     6.928
  50.880         37.50	     6.708
  50.900         41.67	     7.071
  50.920         45.00	     7.348
  50.940         40.00	     6.928
  50.960         40.83	     7.000
  50.980         50.00	     7.746
  51.000         63.33	     8.718
  51.020         74.17	     9.434
  51.040         80.00	     9.798
  51.060         68.33	     9.055
  51.080         52.50	     7.937
  51.100         50.00	     7.746
  51.120         60.00	     8.485
  51.140         50.83	     7.810
  51.160         53.33	     8.000
  51.180         55.00	     8.124
  51.200         71.67	     9.274
  51.220         59.17	     8.426
  51.240         50.00	     7.746
  51.260         53.33	     8.000
  51.280         57.50	     8.307
  51.300         59.17	     8.426
  51.320         47.50	     7.550
  51.340         36.67	     6.633
  51.360         36.67	     6.633
  51.380         45.83	     7.416
  51.400         45.83	     7.416
  51.420         45.83	     7.416
  51.440         45.83	     7.416
  51.460         39.17	     6.856
  51.480         27.50	     5.745
  51.500         23.33	     5.292
  51.520         37.50	     6.708
  51.540         40.83	     7.000
  51.560         33.33	     6.325
  51.580         39.17	     6.856
  51.600         21.67	     5.099
  51.620         32.50	     6.245
  51.640         31.67	     6.164
  51.660         26.67	     5.657
  51.680         31.67	     6.164
  51.700         40.00	     6.928
  51.720         33.33	     6.325
  51.740         27.50	     5.745
  51.760         25.83	     5.568
  51.780         33.33	     6.325
  51.800         36.67	     6.633
  51.820         38.33	     6.782
  51.840         42.50	     7.141
  51.860         34.17	     6.403
  51.880         32.50	     6.245
  51.900         26.67	     5.657
  51.920         39.17	     6.856
  51.940         50.00	     7.746
  51.960         56.67	     8.246
  51.980         75.00	     9.487
  52.000        148.33	    13.342
  52.020        210.00	    15.875
  52.040        143.33	    13.115
  52.060        113.33	    11.662
  52.080        100.00	    10.954
  52.100         80.83	     9.849
  52.120         74.17	     9.434
  52.140        104.17	    11.180
  52.160        124.17	    12.207
  52.180        103.33	    11.136
  52.200         94.17	    10.630
  52.220         79.17	     9.747
  52.240         64.17	     8.775
  52.260         55.00	     8.124
  52.280         55.00	     8.124
  52.300         50.00	     7.746
  52.320         60.83	     8.544
  52.340         61.67	     8.602
  52.360         44.17	     7.280
  52.380         60.83	     8.544
  52.400         65.83	     8.888
  52.420         80.83	     9.849
  52.440         90.00	    10.392
  52.460         78.33	     9.695
  52.480         81.67	     9.899
  52.500         68.33	     9.055
  52.520         55.00	     8.124
  52.540         59.17	     8.426
  52.560         55.00	     8.124
  52.580         65.00	     8.832
  52.600         56.67	     8.246
  52.620         52.50	     7.937
  52.640         57.50	     8.307
  52.660         45.83	     7.416
  52.680         60.00	     8.485
  52.700         53.33	     8.000
  52.720         37.50	     6.708
  52.740         43.33	     7.211
  52.760         35.83	     6.557
  52.780         40.83	     7.000
  52.800         35.83	     6.557
  52.820         52.50	     7.937
  52.840         33.33	     6.325
  52.860         39.17	     6.856
  52.880         43.33	     7.211
  52.900         34.17	     6.403
  52.920         45.00	     7.348
  52.940         38.33	     6.782
  52.960         38.33	     6.782
  52.980         45.00	     7.348
  53.000         54.17	     8.062
  53.020         40.83	     7.000
  53.040         52.50	     7.937
  53.060         45.83	     7.416
  53.080         43.33	     7.211
  53.100         43.33	     7.211
  53.120         51.67	     7.874
  53.140         57.50	     8.307
  53.160         37.50	     6.708
  53.180         52.50	     7.937
  53.200         45.00	     7.348
  53.220         43.33	     7.211
  53.240         44.17	     7.280
  53.260         31.67	     6.164
  53.280         44.17	     7.280
  53.300         39.17	     6.856
  53.320         45.83	     7.416
  53.340         41.67	     7.071
  53.360         35.83	     6.557
  53.380         41.67	     7.071
  53.400         43.33	     7.211
  53.420         40.00	     6.928
  53.440         40.83	     7.000
  53.460         31.67	     6.164
  53.480         36.67	     6.633
  53.500         33.33	     6.325
  53.520         38.33	     6.782
  53.540         40.83	     7.000
  53.560         29.17	     5.916
  53.580         46.67	     7.483
  53.600         53.33	     8.000
  53.620         42.50	     7.141
  53.640         33.33	     6.325
  53.660         40.83	     7.000
  53.680         39.17	     6.856
  53.700         48.33	     7.616
  53.720         48.33	     7.616
  53.740         40.83	     7.000
  53.760         44.17	     7.280
  53.780         30.00	     6.000
  53.800         34.17	     6.403
  53.820         45.00	     7.348
  53.840         26.67	     5.657
  53.860         32.50	     6.245
  53.880         30.83	     6.083
  53.900         33.33	     6.325
  53.920         32.50	     6.245
  53.940         34.17	     6.403
  53.960         39.17	     6.856
  53.980         42.50	     7.141
  54.000         40.00	     6.928
  54.020         37.50	     6.708
  54.040         36.67	     6.633
  54.060         27.50	     5.745
  54.080         35.83	     6.557
  54.100         35.83	     6.557
  54.120         40.00	     6.928
  54.140         41.67	     7.071
  54.160         35.00	     6.481
  54.180         42.50	     7.141
  54.200         40.83	     7.000
  54.220         50.83	     7.810
  54.240         37.50	     6.708
  54.260         45.83	     7.416
  54.280         54.17	     8.062
  54.300         43.33	     7.211
  54.320         43.33	     7.211
  54.340         39.17	     6.856
  54.360         40.83	     7.000
  54.380         50.00	     7.746
  54.400         43.33	     7.211
  54.420         30.83	     6.083
  54.440         46.67	     7.483
  54.460         57.50	     8.307
  54.480         39.17	     6.856
  54.500         32.50	     6.245
  54.520         29.17	     5.916
  54.540         33.33	     6.325
  54.560         32.50	     6.245
  54.580         35.83	     6.557
  54.600         47.50	     7.550
  54.620         40.83	     7.000
  54.640         49.17	     7.681
  54.660         50.83	     7.810
  54.680         61.67	     8.602
  54.700         61.67	     8.602
  54.720         65.83	     8.888
  54.740         95.83	    10.724
  54.760         88.33	    10.296
  54.780         91.67	    10.488
  54.800         93.33	    10.583
  54.820         72.50	     9.327
  54.840         52.50	     7.937
  54.860         58.33	     8.367
  54.880         70.00	     9.165
  54.900         82.50	     9.950
  54.920         75.00	     9.487
  54.940         69.17	     9.110
  54.960         58.33	     8.367
  54.980         55.00	     8.124
  55.000         39.17	     6.856
  55.020         47.50	     7.550
  55.040         52.50	     7.937
  55.060         49.17	     7.681
  55.080         54.17	     8.062
  55.100         49.17	     7.681
  55.120         51.67	     7.874
  55.140         45.00	     7.348
  55.160         70.00	     9.165
  55.180         65.00	     8.832
  55.200         65.00	     8.832
  55.220         77.50	     9.644
  55.240         75.83	     9.539
  55.260         60.83	     8.544
  55.280         61.67	     8.602
  55.300         55.00	     8.124
  55.320         59.17	     8.426
  55.340         48.33	     7.616
  55.360         63.33	     8.718
  55.380         57.50	     8.307
  55.400         54.17	     8.062
  55.420         45.83	     7.416
  55.440         48.33	     7.616
  55.460         60.00	     8.485
  55.480         55.00	     8.124
  55.500         44.17	     7.280
  55.520         51.67	     7.874
  55.540         57.50	     8.307
  55.560         50.00	     7.746
  55.580         45.83	     7.416
  55.600         57.50	     8.307
  55.620         60.83	     8.544
  55.640         60.00	     8.485
  55.660         59.17	     8.426
  55.680         60.83	     8.544
  55.700         58.33	     8.367
  55.720         56.67	     8.246
  55.740         67.50	     9.000
  55.760         58.33	     8.367
  55.780         64.17	     8.775
  55.800         55.83	     8.185
  55.820         55.00	     8.124
  55.840         49.17	     7.681
  55.860         58.33	     8.367
  55.880         58.33	     8.367
  55.900         37.50	     6.708
  55.920         56.67	     8.246
  55.940         46.67	     7.483
  55.960         51.67	     7.874
  55.980         50.83	     7.810
  56.000         39.17	     6.856
  56.020         46.67	     7.483
  56.040         63.33	     8.718
  56.060         56.67	     8.246
  56.080         43.33	     7.211
  56.100         40.00	     6.928
  56.120         46.67	     7.483
  56.140         39.17	     6.856
  56.160         46.67	     7.483
  56.180         48.33	     7.616
  56.200         45.83	     7.416
  56.220         45.00	     7.348
  56.240         45.83	     7.416
  56.260         40.83	     7.000
  56.280         35.83	     6.557
  56.300         36.67	     6.633
  56.320         40.83	     7.000
  56.340         40.00	     6.928
  56.360         39.17	     6.856
  56.380         36.67	     6.633
  56.400         51.67	     7.874
  56.420         48.33	     7.616
  56.440         44.17	     7.280
  56.460         35.00	     6.481
  56.480         44.17	     7.280
  56.500         39.17	     6.856
  56.520         50.00	     7.746
  56.540         48.33	     7.616
  56.560         46.67	     7.483
  56.580         56.67	     8.246
  56.600         51.67	     7.874
  56.620         44.17	     7.280
  56.640         57.50	     8.307
  56.660         45.83	     7.416
  56.680         38.33	     6.782
  56.700         40.83	     7.000
  56.720         40.00	     6.928
  56.740         35.83	     6.557
  56.760         44.17	     7.280
  56.780         58.33	     8.367
  56.800         45.83	     7.416
  56.820         50.83	     7.810
  56.840         51.67	     7.874
  56.860         49.17	     7.681
  56.880         45.83	     7.416
  56.900         44.17	     7.280
  56.920         45.83	     7.416
  56.940         44.17	     7.280
  56.960         45.00	     7.348
  56.980         45.83	     7.416
  57.000         43.33	     7.211
  57.020         40.00	     6.928
  57.040         45.83	     7.416
  57.060         43.33	     7.211
  57.080         55.00	     8.124
  57.100         41.67	     7.071
  57.120         48.33	     7.616
  57.140         54.17	     8.062
  57.160         50.83	     7.810
  57.180         30.00	     6.000
  57.200         37.50	     6.708
  57.220         45.00	     7.348
  57.240         45.00	     7.348
  57.260         49.17	     7.681
  57.280         29.17	     5.916
  57.300         43.33	     7.211
  57.320         35.83	     6.557
  57.340         35.00	     6.481
  57.360         35.83	     6.557
  57.380         29.17	     5.916
  57.400         29.17	     5.916
  57.420         34.17	     6.403
  57.440         38.33	     6.782
  57.460         34.17	     6.403
  57.480         25.83	     5.568
  57.500         40.83	     7.000
  57.520         44.17	     7.280
  57.540         41.67	     7.071
  57.560         42.50	     7.141
  57.580         31.67	     6.164
  57.600         39.17	     6.856
  57.620         44.17	     7.280
  57.640         47.50	     7.550
  57.660         49.17	     7.681
  57.680         40.83	     7.000
  57.700         61.67	     8.602
  57.720         36.67	     6.633
  57.740         42.50	     7.141
  57.760         34.17	     6.403
  57.780         30.83	     6.083
  57.800         31.67	     6.164
  57.820         35.83	     6.557
  57.840         31.67	     6.164
  57.860         25.83	     5.568
  57.880         40.83	     7.000
  57.900         34.17	     6.403
  57.920         38.33	     6.782
  57.940         33.33	     6.325
  57.960         35.83	     6.557
  57.980         37.50	     6.708
  58.000         40.00	     6.928
  58.020         44.17	     7.280
  58.040         38.33	     6.782
  58.060         29.17	     5.916
  58.080         52.50	     7.937
  58.100         50.83	     7.810
  58.120         48.33	     7.616
  58.140         43.33	     7.211
  58.160         61.67	     8.602
  58.180         29.17	     5.916
  58.200         48.33	     7.616
  58.220         40.83	     7.000
  58.240         45.83	     7.416
  58.260         52.50	     7.937
  58.280         37.50	     6.708
  58.300         50.83	     7.810
  58.320         38.33	     6.782
  58.340         40.83	     7.000
  58.360         50.00	     7.746
  58.380         47.50	     7.550
  58.400         45.83	     7.416
  58.420         81.67	     9.899
  58.440         58.33	     8.367
  58.460         47.50	     7.550
  58.480         66.67	     8.944
  58.500         56.67	     8.246
  58.520         52.50	     7.937
  58.540         53.33	     8.000
  58.560         48.33	     7.616
  58.580         48.33	     7.616
  58.600         64.17	     8.775
  58.620         53.33	     8.000
  58.640         56.67	     8.246
  58.660         56.67	     8.246
  58.680         39.17	     6.856
  58.700         47.50	     7.550
  58.720         54.17	     8.062
  58.740         48.33	     7.616
  58.760         60.00	     8.485
  58.780         47.50	     7.550
  58.800         52.50	     7.937
  58.820         39.17	     6.856
  58.840         50.00	     7.746
  58.860         61.67	     8.602
  58.880         57.50	     8.307
  58.900         72.50	     9.327
  58.920         68.33	     9.055
  58.940         80.00	     9.798
  58.960         65.00	     8.832
  58.980         59.17	     8.426
  59.000         65.83	     8.888
  59.020         70.00	     9.165
  59.040         67.50	     9.000
  59.060         79.17	     9.747
  59.080         80.00	     9.798
  59.100         73.33	     9.381
  59.120         77.50	     9.644
  59.140         69.17	     9.110
  59.160         65.00	     8.832
  59.180         78.33	     9.695
  59.200         81.67	     9.899
  59.220         65.00	     8.832
  59.240         74.17	     9.434
  59.260         56.67	     8.246
  59.280         61.67	     8.602
  59.300         66.67	     8.944
  59.320         60.00	     8.485
  59.340         53.33	     8.000
  59.360         50.83	     7.810
  59.380         38.33	     6.782
  59.400         48.33	     7.616
  59.420         44.17	     7.280
  59.440         46.67	     7.483
  59.460         46.67	     7.483
  59.480         40.83	     7.000
  59.500         50.83	     7.810
  59.520         49.17	     7.681
  59.540         50.00	     7.746
  59.560         62.50	     8.660
  59.580         58.33	     8.367
  59.600         68.33	     9.055
  59.620         48.33	     7.616
  59.640         55.83	     8.185
  59.660         62.50	     8.660
  59.680         74.17	     9.434
  59.700         67.50	     9.000
  59.720         67.50	     9.000
  59.740         75.00	     9.487
  59.760        100.83	    11.000
  59.780        120.83	    12.042
  59.800        163.33	    14.000
  59.820        162.50	    13.964
  59.840        198.33	    15.427
  59.860        224.17	    16.401
  59.880        209.17	    15.843
  59.900        165.83	    14.107
  59.920        150.83	    13.454
  59.940        124.17	    12.207
  59.960        135.83	    12.767
  59.980        125.83	    12.288
  60.000        125.00	    12.247
  60.020        145.83	    13.229
  60.040        136.67	    12.806
  60.060        114.17	    11.705
  60.080         95.83	    10.724
  60.100         95.83	    10.724
  60.120         82.50	     9.950
  60.140         73.33	     9.381
  60.160         50.83	     7.810
  60.180         70.00	     9.165
  60.200         68.33	     9.055
  60.220         62.50	     8.660
  60.240         55.00	     8.124
  60.260         56.67	     8.246
  60.280         70.00	     9.165
  60.300         46.67	     7.483
  60.320         61.67	     8.602
  60.340         73.33	     9.381
  60.360         65.83	     8.888
  60.380         77.50	     9.644
  60.400         57.50	     8.307
  60.420         68.33	     9.055
  60.440         88.33	    10.296
  60.460         75.83	     9.539
  60.480         66.67	     8.944
  60.500         63.33	     8.718
  60.520         72.50	     9.327
  60.540         56.67	     8.246
  60.560         59.17	     8.426
  60.580         65.00	     8.832
  60.600         51.67	     7.874
  60.620         63.33	     8.718
  60.640         57.50	     8.307
  60.660         50.83	     7.810
  60.680         44.17	     7.280
  60.700         74.17	     9.434
  60.720         59.17	     8.426
  60.740         58.33	     8.367
  60.760         84.17	    10.050
  60.780         63.33	     8.718
  60.800         74.17	     9.434
  60.820         68.33	     9.055
  60.840         68.33	     9.055
  60.860         63.33	     8.718
  60.880         66.67	     8.944
  60.900         50.00	     7.746
  60.920         46.67	     7.483
  60.940         56.67	     8.246
  60.960         52.50	     7.937
  60.980         55.00	     8.124
  61.000         55.00	     8.124
  61.020         62.50	     8.660
  61.040         55.00	     8.124
  61.060         50.83	     7.810
  61.080         48.33	     7.616
  61.100         62.50	     8.660
  61.120         45.00	     7.348
  61.140         57.50	     8.307
  61.160         51.67	     7.874
  61.180         45.83	     7.416
  61.200         43.33	     7.211
  61.220         58.33	     8.367
  61.240         58.33	     8.367
  61.260         47.50	     7.550
  61.280         51.67	     7.874
  61.300         76.67	     9.592
  61.320         74.17	     9.434
  61.340         86.67	    10.198
  61.360         71.67	     9.274
  61.380         75.00	     9.487
  61.400         76.67	     9.592
  61.420         83.33	    10.000
  61.440         76.67	     9.592
  61.460         65.00	     8.832
  61.480         55.83	     8.185
  61.500         70.00	     9.165
  61.520         62.50	     8.660
  61.540         77.50	     9.644
  61.560         60.00	     8.485
  61.580         76.67	     9.592
  61.600         77.50	     9.644
  61.620         80.00	     9.798
  61.640         71.67	     9.274
  61.660         67.50	     9.000
  61.680         70.83	     9.220
  61.700         68.33	     9.055
  61.720         70.00	     9.165
  61.740         65.00	     8.832
  61.760         72.50	     9.327
  61.780         56.67	     8.246
  61.800         71.67	     9.274
  61.820         65.83	     8.888
  61.840         65.00	     8.832
  61.860         76.67	     9.592
  61.880         61.67	     8.602
  61.900         55.00	     8.124
  61.920         67.50	     9.000
  61.940         61.67	     8.602
  61.960         48.33	     7.616
  61.980         49.17	     7.681
  62.000         51.67	     7.874
  62.020         61.67	     8.602
  62.040         48.33	     7.616
  62.060         55.00	     8.124
  62.080         40.00	     6.928
  62.100         43.33	     7.211
  62.120         54.17	     8.062
  62.140         37.50	     6.708
  62.160         44.17	     7.280
  62.180         45.83	     7.416
  62.200         32.50	     6.245
  62.220         50.00	     7.746
  62.240         36.67	     6.633
  62.260         32.50	     6.245
  62.280         41.67	     7.071
  62.300         41.67	     7.071
  62.320         51.67	     7.874
  62.340         32.50	     6.245
  62.360         42.50	     7.141
  62.380         35.83	     6.557
  62.400         32.50	     6.245
  62.420         42.50	     7.141
  62.440         42.50	     7.141
  62.460         50.00	     7.746
  62.480         25.83	     5.568
  62.500         49.17	     7.681
  62.520         45.00	     7.348
  62.540         38.33	     6.782
  62.560         31.67	     6.164
  62.580         38.33	     6.782
  62.600         38.33	     6.782
  62.620         48.33	     7.616
  62.640         52.50	     7.937
  62.660         45.83	     7.416
  62.680         32.50	     6.245
  62.700         40.00	     6.928
  62.720         50.00	     7.746
  62.740         34.17	     6.403
  62.760         45.00	     7.348
  62.780         44.17	     7.280
  62.800         51.67	     7.874
  62.820         37.50	     6.708
  62.840         43.33	     7.211
  62.860         42.50	     7.141
  62.880         36.67	     6.633
  62.900         35.83	     6.557
  62.920         41.67	     7.071
  62.940         48.33	     7.616
  62.960         39.17	     6.856
  62.980         41.67	     7.071
  63.000         43.33	     7.211
  63.020         45.00	     7.348
  63.040         40.83	     7.000
  63.060         60.00	     8.485
  63.080         45.00	     7.348
  63.100         49.17	     7.681
  63.120         47.50	     7.550
  63.140         50.00	     7.746
  63.160         45.00	     7.348
  63.180         51.67	     7.874
  63.200         62.50	     8.660
  63.220         52.50	     7.937
  63.240         66.67	     8.944
  63.260         71.67	     9.274
  63.280         74.17	     9.434
  63.300         82.50	     9.950
  63.320        108.33	    11.402
  63.340        155.83	    13.675
  63.360        333.33	    20.000
  63.380        789.17	    30.773
  63.400       1041.67	    35.355
  63.420        628.33	    27.459
  63.440        336.67	    20.100
  63.460        165.83	    14.107
  63.480        103.33	    11.136
  63.500        120.83	    12.042
  63.520        137.50	    12.845
  63.540        285.83	    18.520
  63.560        470.00	    23.749
  63.580        531.67	    25.259
  63.600        296.67	    18.868
  63.620        167.50	    14.177
  63.640        101.67	    11.045
  63.660         68.33	     9.055
  63.680         74.17	     9.434
  63.700         55.83	     8.185
  63.720         69.17	     9.110
  63.740         66.67	     8.944
  63.760         57.50	     8.307
  63.780         47.50	     7.550
  63.800         50.83	     7.810
  63.820         50.83	     7.810
  63.840         62.50	     8.660
  63.860         65.00	     8.832
  63.880         82.50	     9.950
  63.900         82.50	     9.950
  63.920         91.67	    10.488
  63.940         73.33	     9.381
  63.960         71.67	     9.274
  63.980         54.17	     8.062
  64.000         50.83	     7.810
  64.020         60.83	     8.544
  64.040         68.33	     9.055
  64.060         56.67	     8.246
  64.080         60.00	     8.485
  64.100         63.33	     8.718
  64.120         60.00	     8.485
  64.140         65.83	     8.888
  64.160         52.50	     7.937
  64.180         44.17	     7.280
  64.200         55.00	     8.124
  64.220         47.50	     7.550
  64.240         59.17	     8.426
  64.260         50.83	     7.810
  64.280         49.17	     7.681
  64.300         43.33	     7.211
  64.320         47.50	     7.550
  64.340         47.50	     7.550
  64.360         33.33	     6.325
  64.380         39.17	     6.856
  64.400         40.83	     7.000
  64.420         54.17	     8.062
  64.440         45.00	     7.348
  64.460         43.33	     7.211
  64.480         29.17	     5.916
  64.500         46.67	     7.483
  64.520         47.50	     7.550
  64.540         52.50	     7.937
  64.560         37.50	     6.708
  64.580         44.17	     7.280
  64.600         51.67	     7.874
  64.620         44.17	     7.280
  64.640         55.00	     8.124
  64.660         44.17	     7.280
  64.680         54.17	     8.062
  64.700         38.33	     6.782
  64.720         51.67	     7.874
  64.740         48.33	     7.616
  64.760         44.17	     7.280
  64.780         39.17	     6.856
  64.800         42.50	     7.141
  64.820         55.00	     8.124
  64.840         41.67	     7.071
  64.860         58.33	     8.367
  64.880         58.33	     8.367
  64.900         78.33	     9.695
  64.920         53.33	     8.000
  64.940         59.17	     8.426
  64.960         47.50	     7.550
  64.980         51.67	     7.874
  65.000         55.83	     8.185
