
Filename:
	C:\Program Files\Thermo Electron\WinXRD\Datafiles\F_HERMAN\GEO\G62_RT.raw

File Created:
	February 19, 2020 - 11:56 PM

Specimen Id:
	G62_RT

Specimen Name:
	

Specimen Description:
	

Comment:
Scan Type: 2Theta Scan
Start Angle: 3 deg.
Stop Angle: 65 deg.
Num Points: 3101
Step Size: 0.02 deg.
Scan Rate: 1.000000
Scan Mode: Continuous
Wavelength: 1.540562
\Kalpha1: 1.540562	\Kalpha2: 1.544390	\Kbeta: 1.392218

Optics:
		Detector:
			 Type: Fixed Slits
		Tube: 
			 Type: Fixed Slits


Datas:
 Pos [deg]       Rate [CPS]      ESD [-]

Range 1 ---> Iteration 1
   3.000        448.33	    23.195
   3.020        463.33	    23.580
   3.040        444.17	    23.087
   3.060        438.33	    22.935
   3.080        431.67	    22.760
   3.100        410.00	    22.181
   3.120        412.50	    22.249
   3.140        428.33	    22.672
   3.160        431.67	    22.760
   3.180        412.50	    22.249
   3.200        410.83	    22.204
   3.220        401.67	    21.954
   3.240        400.00	    21.909
   3.260        401.67	    21.954
   3.280        365.83	    20.952
   3.300        361.67	    20.833
   3.320        379.17	    21.331
   3.340        420.83	    22.472
   3.360        400.00	    21.909
   3.380        367.50	    21.000
   3.400        365.00	    20.928
   3.420        384.17	    21.471
   3.440        404.17	    22.023
   3.460        363.33	    20.881
   3.480        374.17	    21.190
   3.500        370.83	    21.095
   3.520        363.33	    20.881
   3.540        380.83	    21.378
   3.560        353.33	    20.591
   3.580        361.67	    20.833
   3.600        333.33	    20.000
   3.620        364.17	    20.905
   3.640        350.00	    20.494
   3.660        339.17	    20.174
   3.680        341.67	    20.248
   3.700        358.33	    20.736
   3.720        326.67	    19.799
   3.740        316.67	    19.494
   3.760        330.00	    19.900
   3.780        350.00	    20.494
   3.800        318.33	    19.545
   3.820        333.33	    20.000
   3.840        349.17	    20.469
   3.860        352.50	    20.567
   3.880        299.17	    18.947
   3.900        290.00	    18.655
   3.920        333.33	    20.000
   3.940        340.00	    20.199
   3.960        320.83	    19.621
   3.980        319.17	    19.570
   4.000        323.33	    19.698
   4.020        319.17	    19.570
   4.040        300.00	    18.974
   4.060        305.83	    19.157
   4.080        286.67	    18.547
   4.100        302.50	    19.053
   4.120        290.00	    18.655
   4.140        300.83	    19.000
   4.160        314.17	    19.416
   4.180        301.67	    19.026
   4.200        290.00	    18.655
   4.220        283.33	    18.439
   4.240        310.83	    19.313
   4.260        286.67	    18.547
   4.280        310.00	    19.287
   4.300        254.17	    17.464
   4.320        271.67	    18.055
   4.340        290.00	    18.655
   4.360        278.33	    18.276
   4.380        298.33	    18.921
   4.400        272.50	    18.083
   4.420        298.33	    18.921
   4.440        275.83	    18.193
   4.460        276.67	    18.221
   4.480        269.17	    17.972
   4.500        299.17	    18.947
   4.520        273.33	    18.111
   4.540        280.00	    18.330
   4.560        290.83	    18.682
   4.580        263.33	    17.776
   4.600        238.33	    16.912
   4.620        261.67	    17.720
   4.640        280.00	    18.330
   4.660        233.33	    16.733
   4.680        241.67	    17.029
   4.700        259.17	    17.635
   4.720        259.17	    17.635
   4.740        273.33	    18.111
   4.760        267.50	    17.916
   4.780        255.83	    17.521
   4.800        240.00	    16.971
   4.820        227.50	    16.523
   4.840        254.17	    17.464
   4.860        257.50	    17.578
   4.880        235.00	    16.793
   4.900        255.83	    17.521
   4.920        250.00	    17.321
   4.940        245.00	    17.146
   4.960        241.67	    17.029
   4.980        261.67	    17.720
   5.000        243.33	    17.088
   5.020        250.00	    17.321
   5.040        237.50	    16.882
   5.060        242.50	    17.059
   5.080        233.33	    16.733
   5.100        260.00	    17.664
   5.120        244.17	    17.117
   5.140        246.67	    17.205
   5.160        228.33	    16.553
   5.180        213.33	    16.000
   5.200        235.00	    16.793
   5.220        230.00	    16.613
   5.240        209.17	    15.843
   5.260        218.33	    16.186
   5.280        230.83	    16.643
   5.300        223.33	    16.371
   5.320        225.83	    16.462
   5.340        228.33	    16.553
   5.360        205.00	    15.684
   5.380        208.33	    15.811
   5.400        210.00	    15.875
   5.420        241.67	    17.029
   5.440        210.83	    15.906
   5.460        199.17	    15.460
   5.480        226.67	    16.492
   5.500        215.00	    16.062
   5.520        215.00	    16.062
   5.540        225.00	    16.432
   5.560        223.33	    16.371
   5.580        246.67	    17.205
   5.600        230.00	    16.613
   5.620        205.00	    15.684
   5.640        211.67	    15.937
   5.660        229.17	    16.583
   5.680        207.50	    15.780
   5.700        182.50	    14.799
   5.720        226.67	    16.492
   5.740        185.83	    14.933
   5.760        198.33	    15.427
   5.780        222.50	    16.340
   5.800        194.17	    15.264
   5.820        209.17	    15.843
   5.840        229.17	    16.583
   5.860        240.00	    16.971
   5.880        235.83	    16.823
   5.900        230.00	    16.613
   5.920        213.33	    16.000
   5.940        226.67	    16.492
   5.960        225.83	    16.462
   5.980        237.50	    16.882
   6.000        244.17	    17.117
   6.020        245.83	    17.176
   6.040        260.83	    17.692
   6.060        239.17	    16.941
   6.080        284.17	    18.466
   6.100        259.17	    17.635
   6.120        257.50	    17.578
   6.140        271.67	    18.055
   6.160        297.50	    18.894
   6.180        255.00	    17.493
   6.200        201.67	    15.556
   6.220        200.00	    15.492
   6.240        195.83	    15.330
   6.260        191.67	    15.166
   6.280        196.67	    15.362
   6.300        208.33	    15.811
   6.320        216.67	    16.125
   6.340        210.00	    15.875
   6.360        180.83	    14.731
   6.380        154.17	    13.601
   6.400        215.00	    16.062
   6.420        183.33	    14.832
   6.440        175.83	    14.526
   6.460        210.83	    15.906
   6.480        175.83	    14.526
   6.500        185.83	    14.933
   6.520        207.50	    15.780
   6.540        189.17	    15.067
   6.560        187.50	    15.000
   6.580        181.67	    14.765
   6.600        202.50	    15.588
   6.620        169.17	    14.248
   6.640        168.33	    14.213
   6.660        186.67	    14.967
   6.680        202.50	    15.588
   6.700        170.00	    14.283
   6.720        186.67	    14.967
   6.740        190.83	    15.133
   6.760        173.33	    14.422
   6.780        182.50	    14.799
   6.800        163.33	    14.000
   6.820        201.67	    15.556
   6.840        193.33	    15.232
   6.860        179.17	    14.663
   6.880        185.83	    14.933
   6.900        160.83	    13.892
   6.920        184.17	    14.866
   6.940        159.17	    13.820
   6.960        185.83	    14.933
   6.980        178.33	    14.629
   7.000        181.67	    14.765
   7.020        160.83	    13.892
   7.040        173.33	    14.422
   7.060        179.17	    14.663
   7.080        170.00	    14.283
   7.100        156.67	    13.711
   7.120        172.50	    14.387
   7.140        160.83	    13.892
   7.160        159.17	    13.820
   7.180        163.33	    14.000
   7.200        165.83	    14.107
   7.220        200.83	    15.524
   7.240        154.17	    13.601
   7.260        177.50	    14.595
   7.280        150.00	    13.416
   7.300        138.33	    12.884
   7.320        160.00	    13.856
   7.340        149.17	    13.379
   7.360        151.67	    13.491
   7.380        163.33	    14.000
   7.400        158.33	    13.784
   7.420        150.00	    13.416
   7.440        150.00	    13.416
   7.460        138.33	    12.884
   7.480        132.50	    12.610
   7.500        152.50	    13.528
   7.520        150.00	    13.416
   7.540        155.83	    13.675
   7.560        146.67	    13.266
   7.580        128.33	    12.410
   7.600        170.83	    14.318
   7.620        145.83	    13.229
   7.640        171.67	    14.353
   7.660        158.33	    13.784
   7.680        140.83	    13.000
   7.700        145.00	    13.191
   7.720        146.67	    13.266
   7.740        141.67	    13.038
   7.760        152.50	    13.528
   7.780        144.17	    13.153
   7.800        131.67	    12.570
   7.820        142.50	    13.077
   7.840        160.00	    13.856
   7.860        140.00	    12.961
   7.880        142.50	    13.077
   7.900        149.17	    13.379
   7.920        139.17	    12.923
   7.940        129.17	    12.450
   7.960        153.33	    13.565
   7.980        165.83	    14.107
   8.000        149.17	    13.379
   8.020        140.83	    13.000
   8.040        135.83	    12.767
   8.060        135.00	    12.728
   8.080        144.17	    13.153
   8.100        149.17	    13.379
   8.120        145.83	    13.229
   8.140        128.33	    12.410
   8.160        133.33	    12.649
   8.180        127.50	    12.369
   8.200        148.33	    13.342
   8.220        143.33	    13.115
   8.240        139.17	    12.923
   8.260        127.50	    12.369
   8.280        134.17	    12.689
   8.300        146.67	    13.266
   8.320        135.00	    12.728
   8.340        131.67	    12.570
   8.360        150.83	    13.454
   8.380        151.67	    13.491
   8.400        155.00	    13.638
   8.420        159.17	    13.820
   8.440        135.83	    12.767
   8.460        153.33	    13.565
   8.480        125.00	    12.247
   8.500        154.17	    13.601
   8.520        156.67	    13.711
   8.540        160.83	    13.892
   8.560        150.83	    13.454
   8.580        175.00	    14.491
   8.600        171.67	    14.353
   8.620        158.33	    13.784
   8.640        183.33	    14.832
   8.660        189.17	    15.067
   8.680        211.67	    15.937
   8.700        234.17	    16.763
   8.720        261.67	    17.720
   8.740        290.00	    18.655
   8.760        333.33	    20.000
   8.780        470.00	    23.749
   8.800        501.67	    24.536
   8.820        402.50	    21.977
   8.840        289.17	    18.628
   8.860        193.33	    15.232
   8.880        158.33	    13.784
   8.900        155.00	    13.638
   8.920        130.83	    12.530
   8.940        136.67	    12.806
   8.960        143.33	    13.115
   8.980        132.50	    12.610
   9.000        141.67	    13.038
   9.020        155.83	    13.675
   9.040        139.17	    12.923
   9.060        135.00	    12.728
   9.080        132.50	    12.610
   9.100        153.33	    13.565
   9.120        129.17	    12.450
   9.140        112.50	    11.619
   9.160        128.33	    12.410
   9.180        138.33	    12.884
   9.200        128.33	    12.410
   9.220        117.50	    11.874
   9.240        109.17	    11.446
   9.260        142.50	    13.077
   9.280        130.83	    12.530
   9.300        124.17	    12.207
   9.320        122.50	    12.124
   9.340        136.67	    12.806
   9.360        142.50	    13.077
   9.380        143.33	    13.115
   9.400        123.33	    12.166
   9.420        130.00	    12.490
   9.440        104.17	    11.180
   9.460        117.50	    11.874
   9.480        119.17	    11.958
   9.500        149.17	    13.379
   9.520        136.67	    12.806
   9.540        115.83	    11.790
   9.560        110.83	    11.533
   9.580        114.17	    11.705
   9.600        102.50	    11.091
   9.620        115.83	    11.790
   9.640        110.83	    11.533
   9.660        113.33	    11.662
   9.680        116.67	    11.832
   9.700        112.50	    11.619
   9.720        131.67	    12.570
   9.740        104.17	    11.180
   9.760        100.00	    10.954
   9.780        104.17	    11.180
   9.800        110.83	    11.533
   9.820        111.67	    11.576
   9.840        108.33	    11.402
   9.860         96.67	    10.770
   9.880        113.33	    11.662
   9.900        114.17	    11.705
   9.920        109.17	    11.446
   9.940        118.33	    11.916
   9.960        110.83	    11.533
   9.980        121.67	    12.083
  10.000        101.67	    11.045
  10.020        103.33	    11.136
  10.040         93.33	    10.583
  10.060        102.50	    11.091
  10.080        105.83	    11.269
  10.100         95.83	    10.724
  10.120         97.50	    10.817
  10.140        107.50	    11.358
  10.160        115.00	    11.747
  10.180        108.33	    11.402
  10.200         93.33	    10.583
  10.220        117.50	    11.874
  10.240        120.00	    12.000
  10.260        120.83	    12.042
  10.280        107.50	    11.358
  10.300        103.33	    11.136
  10.320        105.00	    11.225
  10.340        139.17	    12.923
  10.360        152.50	    13.528
  10.380        152.50	    13.528
  10.400        125.83	    12.288
  10.420        165.00	    14.071
  10.440        140.83	    13.000
  10.460        146.67	    13.266
  10.480        120.00	    12.000
  10.500        111.67	    11.576
  10.520        122.50	    12.124
  10.540        108.33	    11.402
  10.560        115.00	    11.747
  10.580        114.17	    11.705
  10.600        115.00	    11.747
  10.620        110.83	    11.533
  10.640         93.33	    10.583
  10.660        110.83	    11.533
  10.680        102.50	    11.091
  10.700         86.67	    10.198
  10.720        109.17	    11.446
  10.740         92.50	    10.536
  10.760         96.67	    10.770
  10.780        103.33	    11.136
  10.800        103.33	    11.136
  10.820        100.00	    10.954
  10.840         90.00	    10.392
  10.860         90.00	    10.392
  10.880         90.00	    10.392
  10.900        128.33	    12.410
  10.920        114.17	    11.705
  10.940        109.17	    11.446
  10.960        110.00	    11.489
  10.980         91.67	    10.488
  11.000         94.17	    10.630
  11.020         79.17	     9.747
  11.040         95.00	    10.677
  11.060         84.17	    10.050
  11.080        115.00	    11.747
  11.100         76.67	     9.592
  11.120         87.50	    10.247
  11.140        106.67	    11.314
  11.160         77.50	     9.644
  11.180         92.50	    10.536
  11.200        101.67	    11.045
  11.220        110.00	    11.489
  11.240         94.17	    10.630
  11.260         90.00	    10.392
  11.280         94.17	    10.630
  11.300        104.17	    11.180
  11.320         90.83	    10.440
  11.340         90.00	    10.392
  11.360        111.67	    11.576
  11.380         85.83	    10.149
  11.400         82.50	     9.950
  11.420         91.67	    10.488
  11.440         93.33	    10.583
  11.460        108.33	    11.402
  11.480         96.67	    10.770
  11.500        106.67	    11.314
  11.520         90.83	    10.440
  11.540         75.00	     9.487
  11.560        109.17	    11.446
  11.580         95.00	    10.677
  11.600         81.67	     9.899
  11.620         93.33	    10.583
  11.640         95.83	    10.724
  11.660         85.00	    10.100
  11.680         91.67	    10.488
  11.700        105.00	    11.225
  11.720        100.00	    10.954
  11.740        115.00	    11.747
  11.760        110.00	    11.489
  11.780         98.33	    10.863
  11.800         88.33	    10.296
  11.820        105.83	    11.269
  11.840        108.33	    11.402
  11.860         99.17	    10.909
  11.880        102.50	    11.091
  11.900        118.33	    11.916
  11.920        105.00	    11.225
  11.940        126.67	    12.329
  11.960        121.67	    12.083
  11.980        128.33	    12.410
  12.000        142.50	    13.077
  12.020        177.50	    14.595
  12.040        186.67	    14.967
  12.060        254.17	    17.464
  12.080        381.67	    21.401
  12.100        572.50	    26.211
  12.120        744.17	    29.883
  12.140        647.50	    27.875
  12.160        434.17	    22.825
  12.180        225.00	    16.432
  12.200        161.67	    13.928
  12.220        196.67	    15.362
  12.240        233.33	    16.733
  12.260        193.33	    15.232
  12.280        239.17	    16.941
  12.300        184.17	    14.866
  12.320        172.50	    14.387
  12.340        205.00	    15.684
  12.360        204.17	    15.652
  12.380        259.17	    17.635
  12.400        334.17	    20.025
  12.420        317.50	    19.519
  12.440        272.50	    18.083
  12.460        216.67	    16.125
  12.480        146.67	    13.266
  12.500         88.33	    10.296
  12.520        100.83	    11.000
  12.540        100.00	    10.954
  12.560         94.17	    10.630
  12.580         85.83	    10.149
  12.600        113.33	    11.662
  12.620         89.17	    10.344
  12.640         86.67	    10.198
  12.660         92.50	    10.536
  12.680         92.50	    10.536
  12.700         94.17	    10.630
  12.720         84.17	    10.050
  12.740         93.33	    10.583
  12.760         83.33	    10.000
  12.780         82.50	     9.950
  12.800         97.50	    10.817
  12.820         91.67	    10.488
  12.840         80.00	     9.798
  12.860         77.50	     9.644
  12.880         88.33	    10.296
  12.900         75.00	     9.487
  12.920         80.83	     9.849
  12.940         98.33	    10.863
  12.960         83.33	    10.000
  12.980        102.50	    11.091
  13.000         77.50	     9.644
  13.020         83.33	    10.000
  13.040         73.33	     9.381
  13.060         80.00	     9.798
  13.080        108.33	    11.402
  13.100         65.83	     8.888
  13.120         90.00	    10.392
  13.140         85.00	    10.100
  13.160         85.00	    10.100
  13.180         82.50	     9.950
  13.200         82.50	     9.950
  13.220         85.00	    10.100
  13.240         72.50	     9.327
  13.260         90.00	    10.392
  13.280         80.83	     9.849
  13.300         81.67	     9.899
  13.320         70.83	     9.220
  13.340         75.00	     9.487
  13.360        100.00	    10.954
  13.380         74.17	     9.434
  13.400         79.17	     9.747
  13.420         85.83	    10.149
  13.440         81.67	     9.899
  13.460         77.50	     9.644
  13.480         75.00	     9.487
  13.500         80.00	     9.798
  13.520         87.50	    10.247
  13.540         81.67	     9.899
  13.560         97.50	    10.817
  13.580        101.67	    11.045
  13.600         97.50	    10.817
  13.620         77.50	     9.644
  13.640         80.00	     9.798
  13.660         86.67	    10.198
  13.680         80.00	     9.798
  13.700         78.33	     9.695
  13.720         83.33	    10.000
  13.740         79.17	     9.747
  13.760         86.67	    10.198
  13.780         89.17	    10.344
  13.800         92.50	    10.536
  13.820         92.50	    10.536
  13.840         95.83	    10.724
  13.860        106.67	    11.314
  13.880        117.50	    11.874
  13.900        130.83	    12.530
  13.920        108.33	    11.402
  13.940        103.33	    11.136
  13.960         79.17	     9.747
  13.980         85.83	    10.149
  14.000         76.67	     9.592
  14.020         72.50	     9.327
  14.040         71.67	     9.274
  14.060         65.83	     8.888
  14.080         66.67	     8.944
  14.100         72.50	     9.327
  14.120         71.67	     9.274
  14.140         60.83	     8.544
  14.160         63.33	     8.718
  14.180         93.33	    10.583
  14.200         64.17	     8.775
  14.220         76.67	     9.592
  14.240         82.50	     9.950
  14.260         64.17	     8.775
  14.280         65.83	     8.888
  14.300         73.33	     9.381
  14.320         70.00	     9.165
  14.340         65.00	     8.832
  14.360         86.67	    10.198
  14.380         70.83	     9.220
  14.400         80.00	     9.798
  14.420         68.33	     9.055
  14.440         75.00	     9.487
  14.460         50.00	     7.746
  14.480         78.33	     9.695
  14.500         75.83	     9.539
  14.520         64.17	     8.775
  14.540         65.00	     8.832
  14.560         70.83	     9.220
  14.580         72.50	     9.327
  14.600         65.83	     8.888
  14.620         58.33	     8.367
  14.640         80.83	     9.849
  14.660         75.83	     9.539
  14.680         62.50	     8.660
  14.700         58.33	     8.367
  14.720         55.00	     8.124
  14.740         70.00	     9.165
  14.760         82.50	     9.950
  14.780         72.50	     9.327
  14.800         64.17	     8.775
  14.820         78.33	     9.695
  14.840         66.67	     8.944
  14.860         70.00	     9.165
  14.880         76.67	     9.592
  14.900         86.67	    10.198
  14.920         62.50	     8.660
  14.940         71.67	     9.274
  14.960         72.50	     9.327
  14.980         74.17	     9.434
  15.000         63.33	     8.718
  15.020         64.17	     8.775
  15.040         59.17	     8.426
  15.060         70.00	     9.165
  15.080         64.17	     8.775
  15.100         57.50	     8.307
  15.120         74.17	     9.434
  15.140         60.00	     8.485
  15.160         49.17	     7.681
  15.180         68.33	     9.055
  15.200         75.00	     9.487
  15.220         76.67	     9.592
  15.240         67.50	     9.000
  15.260         61.67	     8.602
  15.280         85.00	    10.100
  15.300         75.83	     9.539
  15.320         66.67	     8.944
  15.340         67.50	     9.000
  15.360         75.00	     9.487
  15.380         58.33	     8.367
  15.400         64.17	     8.775
  15.420         70.00	     9.165
  15.440         62.50	     8.660
  15.460         70.00	     9.165
  15.480         63.33	     8.718
  15.500         68.33	     9.055
  15.520         59.17	     8.426
  15.540         58.33	     8.367
  15.560         69.17	     9.110
  15.580         63.33	     8.718
  15.600         70.00	     9.165
  15.620         60.83	     8.544
  15.640         59.17	     8.426
  15.660         80.83	     9.849
  15.680         59.17	     8.426
  15.700         75.83	     9.539
  15.720         60.00	     8.485
  15.740         62.50	     8.660
  15.760         61.67	     8.602
  15.780         70.83	     9.220
  15.800         55.83	     8.185
  15.820         85.83	    10.149
  15.840         44.17	     7.280
  15.860         66.67	     8.944
  15.880         57.50	     8.307
  15.900         75.83	     9.539
  15.920         69.17	     9.110
  15.940         58.33	     8.367
  15.960         69.17	     9.110
  15.980         57.50	     8.307
  16.000         71.67	     9.274
  16.020         65.83	     8.888
  16.040         60.00	     8.485
  16.060         55.00	     8.124
  16.080         61.67	     8.602
  16.100         48.33	     7.616
  16.120         62.50	     8.660
  16.140         61.67	     8.602
  16.160         57.50	     8.307
  16.180         49.17	     7.681
  16.200         53.33	     8.000
  16.220         56.67	     8.246
  16.240         50.83	     7.810
  16.260         60.00	     8.485
  16.280         65.83	     8.888
  16.300         64.17	     8.775
  16.320         64.17	     8.775
  16.340         60.83	     8.544
  16.360         60.00	     8.485
  16.380         55.83	     8.185
  16.400         68.33	     9.055
  16.420         55.83	     8.185
  16.440         52.50	     7.937
  16.460         50.83	     7.810
  16.480         70.00	     9.165
  16.500         66.67	     8.944
  16.520         59.17	     8.426
  16.540         60.00	     8.485
  16.560         58.33	     8.367
  16.580         64.17	     8.775
  16.600         66.67	     8.944
  16.620         63.33	     8.718
  16.640         62.50	     8.660
  16.660         49.17	     7.681
  16.680         58.33	     8.367
  16.700         52.50	     7.937
  16.720         63.33	     8.718
  16.740         59.17	     8.426
  16.760         67.50	     9.000
  16.780         64.17	     8.775
  16.800         60.83	     8.544
  16.820         61.67	     8.602
  16.840         55.00	     8.124
  16.860         51.67	     7.874
  16.880         64.17	     8.775
  16.900         47.50	     7.550
  16.920         70.00	     9.165
  16.940         60.83	     8.544
  16.960         69.17	     9.110
  16.980         59.17	     8.426
  17.000         69.17	     9.110
  17.020         75.00	     9.487
  17.040         55.00	     8.124
  17.060         64.17	     8.775
  17.080         55.83	     8.185
  17.100         51.67	     7.874
  17.120         46.67	     7.483
  17.140         64.17	     8.775
  17.160         54.17	     8.062
  17.180         60.83	     8.544
  17.200         63.33	     8.718
  17.220         66.67	     8.944
  17.240         61.67	     8.602
  17.260         57.50	     8.307
  17.280         58.33	     8.367
  17.300         61.67	     8.602
  17.320         62.50	     8.660
  17.340         63.33	     8.718
  17.360         54.17	     8.062
  17.380         55.00	     8.124
  17.400         62.50	     8.660
  17.420         60.00	     8.485
  17.440         69.17	     9.110
  17.460         65.83	     8.888
  17.480         60.83	     8.544
  17.500         63.33	     8.718
  17.520         57.50	     8.307
  17.540         80.83	     9.849
  17.560         60.83	     8.544
  17.580         66.67	     8.944
  17.600         65.83	     8.888
  17.620         75.83	     9.539
  17.640         71.67	     9.274
  17.660         76.67	     9.592
  17.680        130.00	    12.490
  17.700        127.50	    12.369
  17.720        169.17	    14.248
  17.740        181.67	    14.765
  17.760        180.83	    14.731
  17.780        148.33	    13.342
  17.800        111.67	    11.576
  17.820        104.17	    11.180
  17.840         80.83	     9.849
  17.860         60.00	     8.485
  17.880         66.67	     8.944
  17.900         60.83	     8.544
  17.920         76.67	     9.592
  17.940         60.83	     8.544
  17.960         70.83	     9.220
  17.980         58.33	     8.367
  18.000         63.33	     8.718
  18.020         66.67	     8.944
  18.040         64.17	     8.775
  18.060         66.67	     8.944
  18.080         60.00	     8.485
  18.100         46.67	     7.483
  18.120         66.67	     8.944
  18.140         60.00	     8.485
  18.160         66.67	     8.944
  18.180         65.83	     8.888
  18.200         56.67	     8.246
  18.220         55.00	     8.124
  18.240         61.67	     8.602
  18.260         55.83	     8.185
  18.280         60.83	     8.544
  18.300         70.83	     9.220
  18.320         56.67	     8.246
  18.340         52.50	     7.937
  18.360         61.67	     8.602
  18.380         67.50	     9.000
  18.400         70.00	     9.165
  18.420         76.67	     9.592
  18.440         91.67	    10.488
  18.460        123.33	    12.166
  18.480        108.33	    11.402
  18.500        112.50	    11.619
  18.520        115.00	    11.747
  18.540         95.00	    10.677
  18.560         90.83	    10.440
  18.580         84.17	    10.050
  18.600         90.00	    10.392
  18.620         95.83	    10.724
  18.640         96.67	    10.770
  18.660        115.00	    11.747
  18.680        135.00	    12.728
  18.700        148.33	    13.342
  18.720        160.83	    13.892
  18.740        111.67	    11.576
  18.760        120.00	    12.000
  18.780        109.17	    11.446
  18.800         89.17	    10.344
  18.820         78.33	     9.695
  18.840         69.17	     9.110
  18.860         69.17	     9.110
  18.880         60.00	     8.485
  18.900         66.67	     8.944
  18.920         60.83	     8.544
  18.940         59.17	     8.426
  18.960         58.33	     8.367
  18.980         65.83	     8.888
  19.000         55.83	     8.185
  19.020         63.33	     8.718
  19.040         52.50	     7.937
  19.060         78.33	     9.695
  19.080         57.50	     8.307
  19.100         70.83	     9.220
  19.120         68.33	     9.055
  19.140         60.83	     8.544
  19.160         89.17	    10.344
  19.180         70.83	     9.220
  19.200         75.83	     9.539
  19.220         70.83	     9.220
  19.240         67.50	     9.000
  19.260         77.50	     9.644
  19.280         60.83	     8.544
  19.300         64.17	     8.775
  19.320         73.33	     9.381
  19.340         60.00	     8.485
  19.360         64.17	     8.775
  19.380         69.17	     9.110
  19.400         59.17	     8.426
  19.420         63.33	     8.718
  19.440         60.00	     8.485
  19.460         58.33	     8.367
  19.480         55.83	     8.185
  19.500         54.17	     8.062
  19.520         77.50	     9.644
  19.540         70.00	     9.165
  19.560         70.83	     9.220
  19.580         78.33	     9.695
  19.600         88.33	    10.296
  19.620         87.50	    10.247
  19.640         73.33	     9.381
  19.660         83.33	    10.000
  19.680         82.50	     9.950
  19.700         81.67	     9.899
  19.720         76.67	     9.592
  19.740         91.67	    10.488
  19.760         88.33	    10.296
  19.780        104.17	    11.180
  19.800         88.33	    10.296
  19.820         95.83	    10.724
  19.840         77.50	     9.644
  19.860         87.50	    10.247
  19.880         75.83	     9.539
  19.900         68.33	     9.055
  19.920         65.00	     8.832
  19.940         72.50	     9.327
  19.960         69.17	     9.110
  19.980         74.17	     9.434
  20.000         59.17	     8.426
  20.020         52.50	     7.937
  20.040         54.17	     8.062
  20.060         69.17	     9.110
  20.080         60.83	     8.544
  20.100         55.00	     8.124
  20.120         60.83	     8.544
  20.140         59.17	     8.426
  20.160         56.67	     8.246
  20.180         57.50	     8.307
  20.200         81.67	     9.899
  20.220         53.33	     8.000
  20.240         59.17	     8.426
  20.260         62.50	     8.660
  20.280         58.33	     8.367
  20.300         65.83	     8.888
  20.320         57.50	     8.307
  20.340         56.67	     8.246
  20.360         73.33	     9.381
  20.380         68.33	     9.055
  20.400         55.00	     8.124
  20.420         66.67	     8.944
  20.440         66.67	     8.944
  20.460         51.67	     7.874
  20.480         60.00	     8.485
  20.500         67.50	     9.000
  20.520         75.83	     9.539
  20.540         60.00	     8.485
  20.560         63.33	     8.718
  20.580         64.17	     8.775
  20.600         57.50	     8.307
  20.620         73.33	     9.381
  20.640         85.00	    10.100
  20.660         85.00	    10.100
  20.680         86.67	    10.198
  20.700        105.83	    11.269
  20.720        139.17	    12.923
  20.740        212.50	    15.969
  20.760        269.17	    17.972
  20.780        239.17	    16.941
  20.800        199.17	    15.460
  20.820        179.17	    14.663
  20.840        140.00	    12.961
  20.860         84.17	    10.050
  20.880         93.33	    10.583
  20.900        105.83	    11.269
  20.920         94.17	    10.630
  20.940        103.33	    11.136
  20.960         80.83	     9.849
  20.980         94.17	    10.630
  21.000         80.00	     9.798
  21.020         66.67	     8.944
  21.040         69.17	     9.110
  21.060         62.50	     8.660
  21.080         61.67	     8.602
  21.100         71.67	     9.274
  21.120         55.00	     8.124
  21.140         72.50	     9.327
  21.160         67.50	     9.000
  21.180         66.67	     8.944
  21.200         65.83	     8.888
  21.220         56.67	     8.246
  21.240         67.50	     9.000
  21.260         59.17	     8.426
  21.280         57.50	     8.307
  21.300         57.50	     8.307
  21.320         52.50	     7.937
  21.340         56.67	     8.246
  21.360         61.67	     8.602
  21.380         55.00	     8.124
  21.400         61.67	     8.602
  21.420         56.67	     8.246
  21.440         68.33	     9.055
  21.460         57.50	     8.307
  21.480         60.00	     8.485
  21.500         63.33	     8.718
  21.520         58.33	     8.367
  21.540         64.17	     8.775
  21.560         64.17	     8.775
  21.580         66.67	     8.944
  21.600         55.00	     8.124
  21.620         47.50	     7.550
  21.640         68.33	     9.055
  21.660         80.83	     9.849
  21.680         70.00	     9.165
  21.700         55.00	     8.124
  21.720         57.50	     8.307
  21.740         65.00	     8.832
  21.760         69.17	     9.110
  21.780         62.50	     8.660
  21.800         71.67	     9.274
  21.820         70.83	     9.220
  21.840         89.17	    10.344
  21.860        115.00	    11.747
  21.880        240.00	    16.971
  21.900        510.00	    24.739
  21.920        797.50	    30.935
  21.940        875.00	    32.404
  21.960        906.67	    32.985
  21.980        676.67	    28.496
  22.000        521.67	    25.020
  22.020        315.83	    19.468
  22.040        188.33	    15.033
  22.060        121.67	    12.083
  22.080         89.17	    10.344
  22.100         78.33	     9.695
  22.120         90.00	    10.392
  22.140         80.83	     9.849
  22.160         88.33	    10.296
  22.180         71.67	     9.274
  22.200         76.67	     9.592
  22.220         71.67	     9.274
  22.240         75.83	     9.539
  22.260         62.50	     8.660
  22.280         75.83	     9.539
  22.300         50.83	     7.810
  22.320         85.83	    10.149
  22.340         74.17	     9.434
  22.360         69.17	     9.110
  22.380         70.83	     9.220
  22.400         65.00	     8.832
  22.420         64.17	     8.775
  22.440         76.67	     9.592
  22.460         70.00	     9.165
  22.480         74.17	     9.434
  22.500         73.33	     9.381
  22.520         60.00	     8.485
  22.540         57.50	     8.307
  22.560         46.67	     7.483
  22.580         66.67	     8.944
  22.600         60.00	     8.485
  22.620         49.17	     7.681
  22.640         60.83	     8.544
  22.660         50.00	     7.746
  22.680         51.67	     7.874
  22.700         52.50	     7.937
  22.720         74.17	     9.434
  22.740         73.33	     9.381
  22.760         83.33	    10.000
  22.780         98.33	    10.863
  22.800        100.83	    11.000
  22.820         96.67	    10.770
  22.840         80.83	     9.849
  22.860         79.17	     9.747
  22.880         70.83	     9.220
  22.900         70.83	     9.220
  22.920         80.00	     9.798
  22.940         91.67	    10.488
  22.960        106.67	    11.314
  22.980         95.00	    10.677
  23.000         97.50	    10.817
  23.020         80.83	     9.849
  23.040         62.50	     8.660
  23.060         70.83	     9.220
  23.080         50.00	     7.746
  23.100         60.00	     8.485
  23.120         58.33	     8.367
  23.140         44.17	     7.280
  23.160         50.83	     7.810
  23.180         55.83	     8.185
  23.200         50.83	     7.810
  23.220         59.17	     8.426
  23.240         58.33	     8.367
  23.260         67.50	     9.000
  23.280         64.17	     8.775
  23.300         71.67	     9.274
  23.320         65.00	     8.832
  23.340         65.83	     8.888
  23.360         61.67	     8.602
  23.380         76.67	     9.592
  23.400         93.33	    10.583
  23.420        107.50	    11.358
  23.440        125.83	    12.288
  23.460        115.00	    11.747
  23.480        134.17	    12.689
  23.500        130.83	    12.530
  23.520        117.50	    11.874
  23.540        101.67	    11.045
  23.560         98.33	    10.863
  23.580         76.67	     9.592
  23.600         76.67	     9.592
  23.620         88.33	    10.296
  23.640         94.17	    10.630
  23.660         75.83	     9.539
  23.680         70.00	     9.165
  23.700         61.67	     8.602
  23.720         76.67	     9.592
  23.740         75.83	     9.539
  23.760         77.50	     9.644
  23.780         78.33	     9.695
  23.800         69.17	     9.110
  23.820         52.50	     7.937
  23.840         74.17	     9.434
  23.860         75.00	     9.487
  23.880         56.67	     8.246
  23.900         65.83	     8.888
  23.920         89.17	    10.344
  23.940         82.50	     9.950
  23.960         93.33	    10.583
  23.980         64.17	     8.775
  24.000         86.67	    10.198
  24.020         71.67	     9.274
  24.040         84.17	    10.050
  24.060         70.00	     9.165
  24.080         72.50	     9.327
  24.100         79.17	     9.747
  24.120         83.33	    10.000
  24.140         85.00	    10.100
  24.160        108.33	    11.402
  24.180        132.50	    12.610
  24.200        105.83	    11.269
  24.220        126.67	    12.329
  24.240        121.67	    12.083
  24.260         90.00	    10.392
  24.280         92.50	    10.536
  24.300         90.83	    10.440
  24.320         70.00	     9.165
  24.340         71.67	     9.274
  24.360         67.50	     9.000
  24.380         80.00	     9.798
  24.400        100.83	    11.000
  24.420        120.83	    12.042
  24.440        160.83	    13.892
  24.460        190.00	    15.100
  24.480        217.50	    16.155
  24.500        281.67	    18.385
  24.520        351.67	    20.543
  24.540        350.83	    20.518
  24.560        297.50	    18.894
  24.580        264.17	    17.804
  24.600        240.83	    17.000
  24.620        225.00	    16.432
  24.640        154.17	    13.601
  24.660        136.67	    12.806
  24.680        145.83	    13.229
  24.700        123.33	    12.166
  24.720        130.83	    12.530
  24.740        140.00	    12.961
  24.760        155.00	    13.638
  24.780        138.33	    12.884
  24.800        126.67	    12.329
  24.820        128.33	    12.410
  24.840        108.33	    11.402
  24.860        121.67	    12.083
  24.880        107.50	    11.358
  24.900         97.50	    10.817
  24.920         90.00	    10.392
  24.940         96.67	    10.770
  24.960        112.50	    11.619
  24.980        140.83	    13.000
  25.000        167.50	    14.177
  25.020        181.67	    14.765
  25.040        242.50	    17.059
  25.060        283.33	    18.439
  25.080        247.50	    17.234
  25.100        218.33	    16.186
  25.120        209.17	    15.843
  25.140        159.17	    13.820
  25.160        124.17	    12.207
  25.180         93.33	    10.583
  25.200         97.50	    10.817
  25.220         80.00	     9.798
  25.240        100.83	    11.000
  25.260        103.33	    11.136
  25.280        194.17	    15.264
  25.300        150.83	    13.454
  25.320        125.00	    12.247
  25.340        143.33	    13.115
  25.360        152.50	    13.528
  25.380        148.33	    13.342
  25.400        150.00	    13.416
  25.420        158.33	    13.784
  25.440        135.00	    12.728
  25.460        149.17	    13.379
  25.480        136.67	    12.806
  25.500        149.17	    13.379
  25.520        163.33	    14.000
  25.540        129.17	    12.450
  25.560        112.50	    11.619
  25.580        122.50	    12.124
  25.600        111.67	    11.576
  25.620         88.33	    10.296
  25.640         84.17	    10.050
  25.660         80.00	     9.798
  25.680         62.50	     8.660
  25.700         83.33	    10.000
  25.720         67.50	     9.000
  25.740         68.33	     9.055
  25.760         60.83	     8.544
  25.780         65.83	     8.888
  25.800         69.17	     9.110
  25.820         75.00	     9.487
  25.840         50.00	     7.746
  25.860         56.67	     8.246
  25.880         58.33	     8.367
  25.900         60.00	     8.485
  25.920         50.00	     7.746
  25.940         66.67	     8.944
  25.960         73.33	     9.381
  25.980         68.33	     9.055
  26.000         79.17	     9.747
  26.020         56.67	     8.246
  26.040         55.83	     8.185
  26.060         59.17	     8.426
  26.080         63.33	     8.718
  26.100         71.67	     9.274
  26.120         62.50	     8.660
  26.140         84.17	    10.050
  26.160         79.17	     9.747
  26.180         75.83	     9.539
  26.200         91.67	    10.488
  26.220         99.17	    10.909
  26.240        135.00	    12.728
  26.260        155.83	    13.675
  26.280        170.83	    14.318
  26.300        254.17	    17.464
  26.320        230.00	    16.613
  26.340        195.00	    15.297
  26.360        235.83	    16.823
  26.380        228.33	    16.553
  26.400        223.33	    16.371
  26.420        244.17	    17.117
  26.440        278.33	    18.276
  26.460        339.17	    20.174
  26.480        522.50	    25.040
  26.500        972.50	    34.161
  26.520       1875.83	    47.445
  26.540       2840.00	    58.378
  26.560       2820.00	    58.172
  26.580       1903.33	    47.791
  26.600       1685.00	    44.967
  26.620       1582.50	    43.578
  26.640       1040.00	    35.327
  26.660        488.33	    24.207
  26.680        339.17	    20.174
  26.700        295.00	    18.815
  26.720        355.83	    20.664
  26.740        378.33	    21.307
  26.760        420.83	    22.472
  26.780        448.33	    23.195
  26.800        458.33	    23.452
  26.820        415.83	    22.338
  26.840        328.33	    19.849
  26.860        269.17	    17.972
  26.880        218.33	    16.186
  26.900        180.83	    14.731
  26.920        149.17	    13.379
  26.940        119.17	    11.958
  26.960        128.33	    12.410
  26.980        105.00	    11.225
  27.000         95.00	    10.677
  27.020         84.17	    10.050
  27.040         95.00	    10.677
  27.060         92.50	    10.536
  27.080         80.83	     9.849
  27.100         75.00	     9.487
  27.120         88.33	    10.296
  27.140         95.00	    10.677
  27.160         87.50	    10.247
  27.180         75.83	     9.539
  27.200         80.00	     9.798
  27.220         93.33	    10.583
  27.240         97.50	    10.817
  27.260         91.67	    10.488
  27.280         83.33	    10.000
  27.300         85.83	    10.149
  27.320        109.17	    11.446
  27.340        121.67	    12.083
  27.360        191.67	    15.166
  27.380        292.50	    18.735
  27.400        615.00	    27.166
  27.420        793.33	    30.854
  27.440        813.33	    31.241
  27.460        690.00	    28.775
  27.480        618.33	    27.240
  27.500        501.67	    24.536
  27.520        405.83	    22.068
  27.540        295.83	    18.841
  27.560        165.83	    14.107
  27.580        148.33	    13.342
  27.600        229.17	    16.583
  27.620        259.17	    17.635
  27.640        223.33	    16.371
  27.660        198.33	    15.427
  27.680        233.33	    16.733
  27.700        224.17	    16.401
  27.720        190.00	    15.100
  27.740        179.17	    14.663
  27.760        212.50	    15.969
  27.780        235.83	    16.823
  27.800        272.50	    18.083
  27.820        308.33	    19.235
  27.840        334.17	    20.025
  27.860        359.17	    20.761
  27.880        322.50	    19.672
  27.900        281.67	    18.385
  27.920        245.00	    17.146
  27.940        210.83	    15.906
  27.960        159.17	    13.820
  27.980        133.33	    12.649
  28.000        148.33	    13.342
  28.020        136.67	    12.806
  28.040        147.50	    13.304
  28.060        128.33	    12.410
  28.080        117.50	    11.874
  28.100        113.33	    11.662
  28.120        100.83	    11.000
  28.140        108.33	    11.402
  28.160        100.83	    11.000
  28.180        122.50	    12.124
  28.200        125.83	    12.288
  28.220        132.50	    12.610
  28.240        126.67	    12.329
  28.260        111.67	    11.576
  28.280         80.00	     9.798
  28.300         93.33	    10.583
  28.320         65.00	     8.832
  28.340         80.00	     9.798
  28.360         66.67	     8.944
  28.380         66.67	     8.944
  28.400         65.83	     8.888
  28.420         69.17	     9.110
  28.440         79.17	     9.747
  28.460         77.50	     9.644
  28.480        100.83	    11.000
  28.500        100.83	    11.000
  28.520        113.33	    11.662
  28.540        109.17	    11.446
  28.560        107.50	    11.358
  28.580        104.17	    11.180
  28.600        118.33	    11.916
  28.620        111.67	    11.576
  28.640        105.00	    11.225
  28.660         73.33	     9.381
  28.680         75.83	     9.539
  28.700         69.17	     9.110
  28.720         70.00	     9.165
  28.740         61.67	     8.602
  28.760         60.00	     8.485
  28.780         52.50	     7.937
  28.800         60.83	     8.544
  28.820         55.83	     8.185
  28.840         54.17	     8.062
  28.860         51.67	     7.874
  28.880         50.00	     7.746
  28.900         54.17	     8.062
  28.920         55.00	     8.124
  28.940         55.00	     8.124
  28.960         34.17	     6.403
  28.980         50.00	     7.746
  29.000         52.50	     7.937
  29.020         54.17	     8.062
  29.040         43.33	     7.211
  29.060         58.33	     8.367
  29.080         39.17	     6.856
  29.100         49.17	     7.681
  29.120         46.67	     7.483
  29.140         40.00	     6.928
  29.160         41.67	     7.071
  29.180         53.33	     8.000
  29.200         45.00	     7.348
  29.220         59.17	     8.426
  29.240         52.50	     7.937
  29.260         54.17	     8.062
  29.280         50.00	     7.746
  29.300         58.33	     8.367
  29.320         45.00	     7.348
  29.340         57.50	     8.307
  29.360         56.67	     8.246
  29.380         55.00	     8.124
  29.400         55.83	     8.185
  29.420         55.83	     8.185
  29.440         61.67	     8.602
  29.460         52.50	     7.937
  29.480         49.17	     7.681
  29.500         54.17	     8.062
  29.520         63.33	     8.718
  29.540         60.83	     8.544
  29.560         51.67	     7.874
  29.580         60.00	     8.485
  29.600         82.50	     9.950
  29.620        110.83	    11.533
  29.640        110.83	    11.533
  29.660         98.33	    10.863
  29.680        124.17	    12.207
  29.700        142.50	    13.077
  29.720        168.33	    14.213
  29.740        140.00	    12.961
  29.760        131.67	    12.570
  29.780        132.50	    12.610
  29.800        150.83	    13.454
  29.820        135.83	    12.767
  29.840        120.83	    12.042
  29.860        107.50	    11.358
  29.880         84.17	    10.050
  29.900         98.33	    10.863
  29.920         93.33	    10.583
  29.940         80.00	     9.798
  29.960         75.83	     9.539
  29.980         94.17	    10.630
  30.000         89.17	    10.344
  30.020        117.50	    11.874
  30.040        125.00	    12.247
  30.060        105.83	    11.269
  30.080        101.67	    11.045
  30.100        122.50	    12.124
  30.120        119.17	    11.958
  30.140        131.67	    12.570
  30.160        100.83	    11.000
  30.180         96.67	    10.770
  30.200         96.67	    10.770
  30.220        101.67	    11.045
  30.240         90.83	    10.440
  30.260         90.00	    10.392
  30.280         81.67	     9.899
  30.300         81.67	     9.899
  30.320         75.83	     9.539
  30.340         79.17	     9.747
  30.360         83.33	    10.000
  30.380         90.83	    10.440
  30.400         77.50	     9.644
  30.420         63.33	     8.718
  30.440         90.83	    10.440
  30.460         66.67	     8.944
  30.480         78.33	     9.695
  30.500         62.50	     8.660
  30.520         61.67	     8.602
  30.540         50.83	     7.810
  30.560         50.83	     7.810
  30.580         53.33	     8.000
  30.600         49.17	     7.681
  30.620         64.17	     8.775
  30.640         57.50	     8.307
  30.660         69.17	     9.110
  30.680         67.50	     9.000
  30.700         72.50	     9.327
  30.720         75.00	     9.487
  30.740         70.00	     9.165
  30.760         79.17	     9.747
  30.780         80.00	     9.798
  30.800         58.33	     8.367
  30.820         69.17	     9.110
  30.840         62.50	     8.660
  30.860         76.67	     9.592
  30.880         52.50	     7.937
  30.900         57.50	     8.307
  30.920         59.17	     8.426
  30.940         54.17	     8.062
  30.960         70.83	     9.220
  30.980         52.50	     7.937
  31.000         59.17	     8.426
  31.020         70.00	     9.165
  31.040         65.83	     8.888
  31.060         77.50	     9.644
  31.080         90.83	    10.440
  31.100        100.83	    11.000
  31.120        122.50	    12.124
  31.140         95.00	    10.677
  31.160        114.17	    11.705
  31.180         99.17	    10.909
  31.200         90.83	    10.440
  31.220         79.17	     9.747
  31.240         95.00	    10.677
  31.260         77.50	     9.644
  31.280         71.67	     9.274
  31.300         65.83	     8.888
  31.320         50.00	     7.746
  31.340         50.83	     7.810
  31.360         63.33	     8.718
  31.380         75.00	     9.487
  31.400         65.00	     8.832
  31.420         63.33	     8.718
  31.440         76.67	     9.592
  31.460         86.67	    10.198
  31.480        105.00	    11.225
  31.500         86.67	    10.198
  31.520         70.00	     9.165
  31.540         80.00	     9.798
  31.560         67.50	     9.000
  31.580         62.50	     8.660
  31.600         48.33	     7.616
  31.620         50.00	     7.746
  31.640         47.50	     7.550
  31.660         40.00	     6.928
  31.680         41.67	     7.071
  31.700         37.50	     6.708
  31.720         50.00	     7.746
  31.740         42.50	     7.141
  31.760         46.67	     7.483
  31.780         51.67	     7.874
  31.800         56.67	     8.246
  31.820         56.67	     8.246
  31.840         50.83	     7.810
  31.860         58.33	     8.367
  31.880         58.33	     8.367
  31.900         50.00	     7.746
  31.920         62.50	     8.660
  31.940         60.00	     8.485
  31.960         43.33	     7.211
  31.980         57.50	     8.307
  32.000         69.17	     9.110
  32.020         68.33	     9.055
  32.040         63.33	     8.718
  32.060         69.17	     9.110
  32.080         70.00	     9.165
  32.100         67.50	     9.000
  32.120         67.50	     9.000
  32.140         79.17	     9.747
  32.160         85.00	    10.100
  32.180         65.83	     8.888
  32.200         73.33	     9.381
  32.220         67.50	     9.000
  32.240         55.00	     8.124
  32.260         59.17	     8.426
  32.280         55.00	     8.124
  32.300         46.67	     7.483
  32.320         45.00	     7.348
  32.340         50.00	     7.746
  32.360         40.83	     7.000
  32.380         55.00	     8.124
  32.400         40.83	     7.000
  32.420         45.00	     7.348
  32.440         62.50	     8.660
  32.460         36.67	     6.633
  32.480         39.17	     6.856
  32.500         44.17	     7.280
  32.520         36.67	     6.633
  32.540         40.00	     6.928
  32.560         45.83	     7.416
  32.580         52.50	     7.937
  32.600         32.50	     6.245
  32.620         45.83	     7.416
  32.640         45.00	     7.348
  32.660         41.67	     7.071
  32.680         36.67	     6.633
  32.700         38.33	     6.782
  32.720         42.50	     7.141
  32.740         45.83	     7.416
  32.760         45.00	     7.348
  32.780         48.33	     7.616
  32.800         46.67	     7.483
  32.820         55.00	     8.124
  32.840         45.83	     7.416
  32.860         36.67	     6.633
  32.880         48.33	     7.616
  32.900         52.50	     7.937
  32.920         50.00	     7.746
  32.940         52.50	     7.937
  32.960         74.17	     9.434
  32.980         55.00	     8.124
  33.000         45.00	     7.348
  33.020         55.00	     8.124
  33.040         48.33	     7.616
  33.060         55.00	     8.124
  33.080         48.33	     7.616
  33.100         38.33	     6.782
  33.120         50.00	     7.746
  33.140         44.17	     7.280
  33.160         42.50	     7.141
  33.180         48.33	     7.616
  33.200         52.50	     7.937
  33.220         41.67	     7.071
  33.240         47.50	     7.550
  33.260         41.67	     7.071
  33.280         49.17	     7.681
  33.300         54.17	     8.062
  33.320         40.00	     6.928
  33.340         34.17	     6.403
  33.360         37.50	     6.708
  33.380         52.50	     7.937
  33.400         48.33	     7.616
  33.420         50.83	     7.810
  33.440         47.50	     7.550
  33.460         43.33	     7.211
  33.480         45.83	     7.416
  33.500         41.67	     7.071
  33.520         47.50	     7.550
  33.540         50.00	     7.746
  33.560         44.17	     7.280
  33.580         47.50	     7.550
  33.600         43.33	     7.211
  33.620         42.50	     7.141
  33.640         52.50	     7.937
  33.660         48.33	     7.616
  33.680         45.00	     7.348
  33.700         41.67	     7.071
  33.720         45.83	     7.416
  33.740         49.17	     7.681
  33.760         72.50	     9.327
  33.780         55.83	     8.185
  33.800         70.00	     9.165
  33.820         91.67	    10.488
  33.840         95.00	    10.677
  33.860         81.67	     9.899
  33.880         63.33	     8.718
  33.900         80.83	     9.849
  33.920         70.83	     9.220
  33.940         88.33	    10.296
  33.960         65.00	     8.832
  33.980         68.33	     9.055
  34.000         62.50	     8.660
  34.020         53.33	     8.000
  34.040         59.17	     8.426
  34.060         58.33	     8.367
  34.080         57.50	     8.307
  34.100         50.83	     7.810
  34.120         62.50	     8.660
  34.140         47.50	     7.550
  34.160         55.00	     8.124
  34.180         67.50	     9.000
  34.200         54.17	     8.062
  34.220         58.33	     8.367
  34.240         53.33	     8.000
  34.260         60.00	     8.485
  34.280         67.50	     9.000
  34.300         59.17	     8.426
  34.320         80.00	     9.798
  34.340         86.67	    10.198
  34.360         88.33	    10.296
  34.380         90.00	    10.392
  34.400        101.67	    11.045
  34.420         97.50	    10.817
  34.440        104.17	    11.180
  34.460        100.83	    11.000
  34.480         89.17	    10.344
  34.500         90.00	    10.392
  34.520         93.33	    10.583
  34.540         94.17	    10.630
  34.560         76.67	     9.592
  34.580         95.83	    10.724
  34.600         85.83	    10.149
  34.620         75.00	     9.487
  34.640         94.17	    10.630
  34.660         77.50	     9.644
  34.680         72.50	     9.327
  34.700         89.17	    10.344
  34.720         94.17	    10.630
  34.740         87.50	    10.247
  34.760        107.50	    11.358
  34.780        123.33	    12.166
  34.800        112.50	    11.619
  34.820        113.33	    11.662
  34.840        115.83	    11.790
  34.860         95.83	    10.724
  34.880        123.33	    12.166
  34.900        115.83	    11.790
  34.920        111.67	    11.576
  34.940        123.33	    12.166
  34.960        115.83	    11.790
  34.980         90.83	    10.440
  35.000         99.17	    10.909
  35.020         87.50	    10.247
  35.040         93.33	    10.583
  35.060         70.83	     9.220
  35.080         81.67	     9.899
  35.100         77.50	     9.644
  35.120         81.67	     9.899
  35.140         86.67	    10.198
  35.160         65.83	     8.888
  35.180         84.17	    10.050
  35.200         65.00	     8.832
  35.220         75.83	     9.539
  35.240         68.33	     9.055
  35.260         60.00	     8.485
  35.280         74.17	     9.434
  35.300         85.00	    10.100
  35.320         97.50	    10.817
  35.340         88.33	    10.296
  35.360         98.33	    10.863
  35.380        108.33	    11.402
  35.400        130.00	    12.490
  35.420        135.00	    12.728
  35.440        184.17	    14.866
  35.460        169.17	    14.248
  35.480        166.67	    14.142
  35.500        178.33	    14.629
  35.520        172.50	    14.387
  35.540        142.50	    13.077
  35.560        124.17	    12.207
  35.580        118.33	    11.916
  35.600        106.67	    11.314
  35.620         75.00	     9.487
  35.640         74.17	     9.434
  35.660         92.50	    10.536
  35.680         64.17	     8.775
  35.700         73.33	     9.381
  35.720         53.33	     8.000
  35.740         54.17	     8.062
  35.760         57.50	     8.307
  35.780         59.17	     8.426
  35.800         64.17	     8.775
  35.820         53.33	     8.000
  35.840         68.33	     9.055
  35.860         54.17	     8.062
  35.880         59.17	     8.426
  35.900         55.83	     8.185
  35.920         60.83	     8.544
  35.940         71.67	     9.274
  35.960         63.33	     8.718
  35.980         68.33	     9.055
  36.000         80.00	     9.798
  36.020         59.17	     8.426
  36.040         65.00	     8.832
  36.060         63.33	     8.718
  36.080         68.33	     9.055
  36.100         60.00	     8.485
  36.120         46.67	     7.483
  36.140         57.50	     8.307
  36.160         65.00	     8.832
  36.180         54.17	     8.062
  36.200         60.83	     8.544
  36.220         52.50	     7.937
  36.240         54.17	     8.062
  36.260         46.67	     7.483
  36.280         61.67	     8.602
  36.300         87.50	    10.247
  36.320         89.17	    10.344
  36.340         80.83	     9.849
  36.360         89.17	    10.344
  36.380        109.17	    11.446
  36.400        130.83	    12.530
  36.420        153.33	    13.565
  36.440        180.00	    14.697
  36.460        184.17	    14.866
  36.480        158.33	    13.784
  36.500        145.83	    13.229
  36.520        132.50	    12.610
  36.540        114.17	    11.705
  36.560        117.50	    11.874
  36.580        102.50	    11.091
  36.600         95.83	    10.724
  36.620         95.83	    10.724
  36.640         94.17	    10.630
  36.660         82.50	     9.950
  36.680         96.67	    10.770
  36.700         78.33	     9.695
  36.720         73.33	     9.381
  36.740         67.50	     9.000
  36.760         78.33	     9.695
  36.780         67.50	     9.000
  36.800         67.50	     9.000
  36.820         55.83	     8.185
  36.840         61.67	     8.602
  36.860         60.83	     8.544
  36.880         51.67	     7.874
  36.900         51.67	     7.874
  36.920         55.83	     8.185
  36.940         58.33	     8.367
  36.960         47.50	     7.550
  36.980         48.33	     7.616
  37.000         60.00	     8.485
  37.020         64.17	     8.775
  37.040         62.50	     8.660
  37.060         77.50	     9.644
  37.080         49.17	     7.681
  37.100         66.67	     8.944
  37.120         63.33	     8.718
  37.140         60.83	     8.544
  37.160         55.00	     8.124
  37.180         69.17	     9.110
  37.200         54.17	     8.062
  37.220         57.50	     8.307
  37.240         53.33	     8.000
  37.260         69.17	     9.110
  37.280         79.17	     9.747
  37.300         66.67	     8.944
  37.320         76.67	     9.592
  37.340         76.67	     9.592
  37.360         68.33	     9.055
  37.380         64.17	     8.775
  37.400         81.67	     9.899
  37.420         60.83	     8.544
  37.440         75.83	     9.539
  37.460         78.33	     9.695
  37.480         92.50	    10.536
  37.500         83.33	    10.000
  37.520         95.83	    10.724
  37.540        105.83	    11.269
  37.560        104.17	    11.180
  37.580         95.00	    10.677
  37.600        113.33	    11.662
  37.620         95.83	    10.724
  37.640         97.50	    10.817
  37.660         96.67	    10.770
  37.680         76.67	     9.592
  37.700         79.17	     9.747
  37.720         56.67	     8.246
  37.740         59.17	     8.426
  37.760         50.83	     7.810
  37.780         50.83	     7.810
  37.800         53.33	     8.000
  37.820         47.50	     7.550
  37.840         60.00	     8.485
  37.860         40.00	     6.928
  37.880         40.83	     7.000
  37.900         42.50	     7.141
  37.920         44.17	     7.280
  37.940         39.17	     6.856
  37.960         44.17	     7.280
  37.980         45.00	     7.348
  38.000         42.50	     7.141
  38.020         32.50	     6.245
  38.040         44.17	     7.280
  38.060         43.33	     7.211
  38.080         34.17	     6.403
  38.100         44.17	     7.280
  38.120         36.67	     6.633
  38.140         47.50	     7.550
  38.160         38.33	     6.782
  38.180         41.67	     7.071
  38.200         38.33	     6.782
  38.220         40.00	     6.928
  38.240         30.00	     6.000
  38.260         40.83	     7.000
  38.280         44.17	     7.280
  38.300         42.50	     7.141
  38.320         56.67	     8.246
  38.340         43.33	     7.211
  38.360         33.33	     6.325
  38.380         53.33	     8.000
  38.400         36.67	     6.633
  38.420         49.17	     7.681
  38.440         47.50	     7.550
  38.460         53.33	     8.000
  38.480         44.17	     7.280
  38.500         39.17	     6.856
  38.520         40.00	     6.928
  38.540         47.50	     7.550
  38.560         48.33	     7.616
  38.580         52.50	     7.937
  38.600         40.00	     6.928
  38.620         49.17	     7.681
  38.640         44.17	     7.280
  38.660         44.17	     7.280
  38.680         52.50	     7.937
  38.700         47.50	     7.550
  38.720         60.00	     8.485
  38.740         69.17	     9.110
  38.760         64.17	     8.775
  38.780         40.00	     6.928
  38.800         49.17	     7.681
  38.820         44.17	     7.280
  38.840         54.17	     8.062
  38.860         60.00	     8.485
  38.880         50.00	     7.746
  38.900         52.50	     7.937
  38.920         48.33	     7.616
  38.940         36.67	     6.633
  38.960         56.67	     8.246
  38.980         36.67	     6.633
  39.000         41.67	     7.071
  39.020         51.67	     7.874
  39.040         58.33	     8.367
  39.060         46.67	     7.483
  39.080         45.83	     7.416
  39.100         47.50	     7.550
  39.120         46.67	     7.483
  39.140         38.33	     6.782
  39.160         46.67	     7.483
  39.180         36.67	     6.633
  39.200         42.50	     7.141
  39.220         42.50	     7.141
  39.240         42.50	     7.141
  39.260         47.50	     7.550
  39.280         60.00	     8.485
  39.300         80.00	     9.798
  39.320         99.17	    10.909
  39.340        140.00	    12.961
  39.360        180.00	    14.697
  39.380        173.33	    14.422
  39.400        120.83	    12.042
  39.420        105.83	    11.269
  39.440        102.50	    11.091
  39.460        104.17	    11.180
  39.480        110.00	    11.489
  39.500         91.67	    10.488
  39.520         75.00	     9.487
  39.540         51.67	     7.874
  39.560         63.33	     8.718
  39.580         50.00	     7.746
  39.600         62.50	     8.660
  39.620         52.50	     7.937
  39.640         55.83	     8.185
  39.660         36.67	     6.633
  39.680         55.83	     8.185
  39.700         55.83	     8.185
  39.720         53.33	     8.000
  39.740         36.67	     6.633
  39.760         51.67	     7.874
  39.780         47.50	     7.550
  39.800         47.50	     7.550
  39.820         44.17	     7.280
  39.840         50.00	     7.746
  39.860         66.67	     8.944
  39.880         68.33	     9.055
  39.900         71.67	     9.274
  39.920         43.33	     7.211
  39.940         44.17	     7.280
  39.960         53.33	     8.000
  39.980         46.67	     7.483
  40.000         55.00	     8.124
  40.020         61.67	     8.602
  40.040         60.83	     8.544
  40.060         55.83	     8.185
  40.080         44.17	     7.280
  40.100         50.00	     7.746
  40.120         53.33	     8.000
  40.140         60.83	     8.544
  40.160         96.67	    10.770
  40.180        101.67	    11.045
  40.200        113.33	    11.662
  40.220        101.67	    11.045
  40.240         81.67	     9.899
  40.260         81.67	     9.899
  40.280         78.33	     9.695
  40.300         75.83	     9.539
  40.320         65.00	     8.832
  40.340         50.83	     7.810
  40.360         48.33	     7.616
  40.380         53.33	     8.000
  40.400         41.67	     7.071
  40.420         45.00	     7.348
  40.440         44.17	     7.280
  40.460         44.17	     7.280
  40.480         36.67	     6.633
  40.500         40.00	     6.928
  40.520         42.50	     7.141
  40.540         37.50	     6.708
  40.560         36.67	     6.633
  40.580         42.50	     7.141
  40.600         50.83	     7.810
  40.620         55.83	     8.185
  40.640         32.50	     6.245
  40.660         43.33	     7.211
  40.680         53.33	     8.000
  40.700         40.83	     7.000
  40.720         46.67	     7.483
  40.740         45.83	     7.416
  40.760         57.50	     8.307
  40.780         41.67	     7.071
  40.800         60.00	     8.485
  40.820         47.50	     7.550
  40.840         57.50	     8.307
  40.860         58.33	     8.367
  40.880         39.17	     6.856
  40.900         55.83	     8.185
  40.920         50.83	     7.810
  40.940         35.83	     6.557
  40.960         54.17	     8.062
  40.980         40.83	     7.000
  41.000         60.00	     8.485
  41.020         40.00	     6.928
  41.040         55.00	     8.124
  41.060         44.17	     7.280
  41.080         50.00	     7.746
  41.100         40.00	     6.928
  41.120         47.50	     7.550
  41.140         64.17	     8.775
  41.160         59.17	     8.426
  41.180         47.50	     7.550
  41.200         60.00	     8.485
  41.220         50.00	     7.746
  41.240         59.17	     8.426
  41.260         48.33	     7.616
  41.280         49.17	     7.681
  41.300         40.83	     7.000
  41.320         42.50	     7.141
  41.340         45.83	     7.416
  41.360         43.33	     7.211
  41.380         34.17	     6.403
  41.400         52.50	     7.937
  41.420         53.33	     8.000
  41.440         55.00	     8.124
  41.460         49.17	     7.681
  41.480         70.00	     9.165
  41.500         55.83	     8.185
  41.520         75.83	     9.539
  41.540         59.17	     8.426
  41.560         80.83	     9.849
  41.580         88.33	    10.296
  41.600        104.17	    11.180
  41.620         90.00	    10.392
  41.640         83.33	    10.000
  41.660         74.17	     9.434
  41.680         81.67	     9.899
  41.700         80.83	     9.849
  41.720         88.33	    10.296
  41.740         71.67	     9.274
  41.760         71.67	     9.274
  41.780         81.67	     9.899
  41.800         68.33	     9.055
  41.820         78.33	     9.695
  41.840         87.50	    10.247
  41.860         77.50	     9.644
  41.880         58.33	     8.367
  41.900         73.33	     9.381
  41.920         68.33	     9.055
  41.940         61.67	     8.602
  41.960         62.50	     8.660
  41.980         59.17	     8.426
  42.000         75.00	     9.487
  42.020         63.33	     8.718
  42.040         57.50	     8.307
  42.060         69.17	     9.110
  42.080         50.83	     7.810
  42.100         49.17	     7.681
  42.120         55.83	     8.185
  42.140         55.83	     8.185
  42.160         60.00	     8.485
  42.180         58.33	     8.367
  42.200         65.00	     8.832
  42.220         77.50	     9.644
  42.240         96.67	    10.770
  42.260         87.50	    10.247
  42.280         83.33	    10.000
  42.300        116.67	    11.832
  42.320        129.17	    12.450
  42.340        155.83	    13.675
  42.360        136.67	    12.806
  42.380        141.67	    13.038
  42.400        105.83	    11.269
  42.420        107.50	    11.358
  42.440        110.00	    11.489
  42.460        105.00	    11.225
  42.480        105.00	    11.225
  42.500         86.67	    10.198
  42.520         79.17	     9.747
  42.540         70.00	     9.165
  42.560         80.83	     9.849
  42.580         83.33	    10.000
  42.600         70.83	     9.220
  42.620         62.50	     8.660
  42.640         62.50	     8.660
  42.660         67.50	     9.000
  42.680         70.83	     9.220
  42.700         75.83	     9.539
  42.720         76.67	     9.592
  42.740         75.00	     9.487
  42.760         65.83	     8.888
  42.780         51.67	     7.874
  42.800         59.17	     8.426
  42.820         53.33	     8.000
  42.840         70.83	     9.220
  42.860         63.33	     8.718
  42.880         63.33	     8.718
  42.900         45.83	     7.416
  42.920         46.67	     7.483
  42.940         51.67	     7.874
  42.960         58.33	     8.367
  42.980         53.33	     8.000
  43.000         48.33	     7.616
  43.020         49.17	     7.681
  43.040         40.00	     6.928
  43.060         53.33	     8.000
  43.080         45.00	     7.348
  43.100         53.33	     8.000
  43.120         56.67	     8.246
  43.140         56.67	     8.246
  43.160         45.00	     7.348
  43.180         62.50	     8.660
  43.200         54.17	     8.062
  43.220         33.33	     6.325
  43.240         60.83	     8.544
  43.260         55.83	     8.185
  43.280         70.00	     9.165
  43.300         48.33	     7.616
  43.320         55.83	     8.185
  43.340         60.83	     8.544
  43.360         66.67	     8.944
  43.380         70.00	     9.165
  43.400         69.17	     9.110
  43.420         81.67	     9.899
  43.440         95.00	    10.677
  43.460         97.50	    10.817
  43.480         95.83	    10.724
  43.500         96.67	    10.770
  43.520         90.00	    10.392
  43.540        110.00	    11.489
  43.560        100.83	    11.000
  43.580         97.50	    10.817
  43.600        103.33	    11.136
  43.620         95.83	    10.724
  43.640         81.67	     9.899
  43.660         80.83	     9.849
  43.680        100.00	    10.954
  43.700        101.67	    11.045
  43.720         89.17	    10.344
  43.740         90.83	    10.440
  43.760         85.00	    10.100
  43.780         81.67	     9.899
  43.800         90.83	    10.440
  43.820         85.83	    10.149
  43.840         97.50	    10.817
  43.860         89.17	    10.344
  43.880         91.67	    10.488
  43.900         80.83	     9.849
  43.920         97.50	    10.817
  43.940         84.17	    10.050
  43.960         90.83	    10.440
  43.980         85.00	    10.100
  44.000        104.17	    11.180
  44.020        100.00	    10.954
  44.040        114.17	    11.705
  44.060        107.50	    11.358
  44.080        128.33	    12.410
  44.100        133.33	    12.649
  44.120        146.67	    13.266
  44.140        144.17	    13.153
  44.160        154.17	    13.601
  44.180        170.00	    14.283
  44.200        156.67	    13.711
  44.220        179.17	    14.663
  44.240        206.67	    15.748
  44.260        190.83	    15.133
  44.280        240.00	    16.971
  44.300        230.83	    16.643
  44.320        220.83	    16.279
  44.340        238.33	    16.912
  44.360        294.17	    18.788
  44.380        287.50	    18.574
  44.400        265.83	    17.861
  44.420        285.83	    18.520
  44.440        291.67	    18.708
  44.460        300.00	    18.974
  44.480        267.50	    17.916
  44.500        257.50	    17.578
  44.520        264.17	    17.804
  44.540        274.17	    18.138
  44.560        253.33	    17.436
  44.580        241.67	    17.029
  44.600        221.67	    16.310
  44.620        216.67	    16.125
  44.640        194.17	    15.264
  44.660        200.00	    15.492
  44.680        194.17	    15.264
  44.700        183.33	    14.832
  44.720        150.83	    13.454
  44.740        160.00	    13.856
  44.760        139.17	    12.923
  44.780        160.83	    13.892
  44.800        118.33	    11.916
  44.820        139.17	    12.923
  44.840        134.17	    12.689
  44.860        147.50	    13.304
  44.880        130.00	    12.490
  44.900        112.50	    11.619
  44.920        138.33	    12.884
  44.940        114.17	    11.705
  44.960        118.33	    11.916
  44.980         99.17	    10.909
  45.000        111.67	    11.576
  45.020         94.17	    10.630
  45.040        103.33	    11.136
  45.060         90.83	    10.440
  45.080         78.33	     9.695
  45.100         92.50	    10.536
  45.120         99.17	    10.909
  45.140         82.50	     9.950
  45.160         81.67	     9.899
  45.180         74.17	     9.434
  45.200         85.83	    10.149
  45.220         76.67	     9.592
  45.240         95.83	    10.724
  45.260         65.83	     8.888
  45.280         76.67	     9.592
  45.300        100.83	    11.000
  45.320         80.83	     9.849
  45.340         88.33	    10.296
  45.360        113.33	    11.662
  45.380        113.33	    11.662
  45.400        121.67	    12.083
  45.420        129.17	    12.450
  45.440        154.17	    13.601
  45.460        170.00	    14.283
  45.480        150.83	    13.454
  45.500        141.67	    13.038
  45.520        160.83	    13.892
  45.540        135.83	    12.767
  45.560        113.33	    11.662
  45.580        129.17	    12.450
  45.600        102.50	    11.091
  45.620        110.00	    11.489
  45.640        120.00	    12.000
  45.660        145.00	    13.191
  45.680        180.00	    14.697
  45.700        206.67	    15.748
  45.720        160.00	    13.856
  45.740        128.33	    12.410
  45.760         95.83	    10.724
  45.780         97.50	    10.817
  45.800        120.00	    12.000
  45.820        119.17	    11.958
  45.840        127.50	    12.369
  45.860         68.33	     9.055
  45.880         74.17	     9.434
  45.900         65.83	     8.888
  45.920         49.17	     7.681
  45.940         69.17	     9.110
  45.960         46.67	     7.483
  45.980         41.67	     7.071
  46.000         54.17	     8.062
  46.020         50.00	     7.746
  46.040         48.33	     7.616
  46.060         43.33	     7.211
  46.080         43.33	     7.211
  46.100         40.00	     6.928
  46.120         40.00	     6.928
  46.140         50.00	     7.746
  46.160         44.17	     7.280
  46.180         45.00	     7.348
  46.200         38.33	     6.782
  46.220         45.00	     7.348
  46.240         43.33	     7.211
  46.260         51.67	     7.874
  46.280         36.67	     6.633
  46.300         36.67	     6.633
  46.320         32.50	     6.245
  46.340         35.83	     6.557
  46.360         40.00	     6.928
  46.380         43.33	     7.211
  46.400         35.00	     6.481
  46.420         37.50	     6.708
  46.440         43.33	     7.211
  46.460         41.67	     7.071
  46.480         51.67	     7.874
  46.500         46.67	     7.483
  46.520         61.67	     8.602
  46.540         37.50	     6.708
  46.560         40.83	     7.000
  46.580         37.50	     6.708
  46.600         42.50	     7.141
  46.620         32.50	     6.245
  46.640         50.83	     7.810
  46.660         39.17	     6.856
  46.680         39.17	     6.856
  46.700         46.67	     7.483
  46.720         35.00	     6.481
  46.740         38.33	     6.782
  46.760         32.50	     6.245
  46.780         35.00	     6.481
  46.800         34.17	     6.403
  46.820         37.50	     6.708
  46.840         47.50	     7.550
  46.860         33.33	     6.325
  46.880         39.17	     6.856
  46.900         40.00	     6.928
  46.920         39.17	     6.856
  46.940         36.67	     6.633
  46.960         39.17	     6.856
  46.980         40.83	     7.000
  47.000         38.33	     6.782
  47.020         45.00	     7.348
  47.040         54.17	     8.062
  47.060         49.17	     7.681
  47.080         55.00	     8.124
  47.100         38.33	     6.782
  47.120         41.67	     7.071
  47.140         45.83	     7.416
  47.160         34.17	     6.403
  47.180         47.50	     7.550
  47.200         36.67	     6.633
  47.220         36.67	     6.633
  47.240         45.83	     7.416
  47.260         40.83	     7.000
  47.280         31.67	     6.164
  47.300         34.17	     6.403
  47.320         41.67	     7.071
  47.340         38.33	     6.782
  47.360         30.83	     6.083
  47.380         36.67	     6.633
  47.400         32.50	     6.245
  47.420         36.67	     6.633
  47.440         27.50	     5.745
  47.460         34.17	     6.403
  47.480         37.50	     6.708
  47.500         46.67	     7.483
  47.520         35.00	     6.481
  47.540         41.67	     7.071
  47.560         43.33	     7.211
  47.580         45.83	     7.416
  47.600         40.83	     7.000
  47.620         30.00	     6.000
  47.640         44.17	     7.280
  47.660         42.50	     7.141
  47.680         43.33	     7.211
  47.700         36.67	     6.633
  47.720         47.50	     7.550
  47.740         46.67	     7.483
  47.760         47.50	     7.550
  47.780         55.83	     8.185
  47.800         56.67	     8.246
  47.820         55.00	     8.124
  47.840         66.67	     8.944
  47.860        114.17	    11.705
  47.880        154.17	    13.601
  47.900        130.00	    12.490
  47.920        116.67	    11.832
  47.940         75.83	     9.539
  47.960         70.83	     9.220
  47.980         81.67	     9.899
  48.000        110.83	    11.533
  48.020        111.67	    11.576
  48.040         96.67	    10.770
  48.060         70.00	     9.165
  48.080         65.83	     8.888
  48.100         65.83	     8.888
  48.120         55.00	     8.124
  48.140         74.17	     9.434
  48.160         53.33	     8.000
  48.180         53.33	     8.000
  48.200         60.00	     8.485
  48.220         70.00	     9.165
  48.240         52.50	     7.937
  48.260         50.00	     7.746
  48.280         45.83	     7.416
  48.300         46.67	     7.483
  48.320         56.67	     8.246
  48.340         58.33	     8.367
  48.360         40.00	     6.928
  48.380         47.50	     7.550
  48.400         40.83	     7.000
  48.420         47.50	     7.550
  48.440         46.67	     7.483
  48.460         40.83	     7.000
  48.480         33.33	     6.325
  48.500         36.67	     6.633
  48.520         46.67	     7.483
  48.540         37.50	     6.708
  48.560         53.33	     8.000
  48.580         59.17	     8.426
  48.600         52.50	     7.937
  48.620         60.83	     8.544
  48.640         50.83	     7.810
  48.660         50.83	     7.810
  48.680         52.50	     7.937
  48.700         53.33	     8.000
  48.720         53.33	     8.000
  48.740         53.33	     8.000
  48.760         43.33	     7.211
  48.780         43.33	     7.211
  48.800         55.00	     8.124
  48.820         55.83	     8.185
  48.840         45.00	     7.348
  48.860         44.17	     7.280
  48.880         37.50	     6.708
  48.900         37.50	     6.708
  48.920         28.33	     5.831
  48.940         35.83	     6.557
  48.960         42.50	     7.141
  48.980         35.00	     6.481
  49.000         34.17	     6.403
  49.020         49.17	     7.681
  49.040         31.67	     6.164
  49.060         33.33	     6.325
  49.080         43.33	     7.211
  49.100         44.17	     7.280
  49.120         50.83	     7.810
  49.140         41.67	     7.071
  49.160         51.67	     7.874
  49.180         49.17	     7.681
  49.200         42.50	     7.141
  49.220         45.83	     7.416
  49.240         48.33	     7.616
  49.260         41.67	     7.071
  49.280         45.83	     7.416
  49.300         51.67	     7.874
  49.320         38.33	     6.782
  49.340         41.67	     7.071
  49.360         26.67	     5.657
  49.380         58.33	     8.367
  49.400         40.83	     7.000
  49.420         41.67	     7.071
  49.440         40.83	     7.000
  49.460         49.17	     7.681
  49.480         50.00	     7.746
  49.500         43.33	     7.211
  49.520         44.17	     7.280
  49.540         45.83	     7.416
  49.560         53.33	     8.000
  49.580         48.33	     7.616
  49.600         56.67	     8.246
  49.620         56.67	     8.246
  49.640         60.83	     8.544
  49.660         49.17	     7.681
  49.680         62.50	     8.660
  49.700         62.50	     8.660
  49.720         60.00	     8.485
  49.740         65.83	     8.888
  49.760         62.50	     8.660
  49.780         56.67	     8.246
  49.800         65.00	     8.832
  49.820         83.33	    10.000
  49.840         72.50	     9.327
  49.860         72.50	     9.327
  49.880         72.50	     9.327
  49.900         71.67	     9.274
  49.920         85.83	    10.149
  49.940         96.67	    10.770
  49.960        100.00	    10.954
  49.980        142.50	    13.077
  50.000        163.33	    14.000
  50.020        236.67	    16.852
  50.040        321.67	    19.647
  50.060        341.67	    20.248
  50.080        250.83	    17.349
  50.100        158.33	    13.784
  50.120        110.00	    11.489
  50.140        135.83	    12.767
  50.160        215.00	    16.062
  50.180        201.67	    15.556
  50.200        178.33	    14.629
  50.220        117.50	    11.874
  50.240        105.00	    11.225
  50.260         70.83	     9.220
  50.280         70.00	     9.165
  50.300         70.00	     9.165
  50.320         75.83	     9.539
  50.340         67.50	     9.000
  50.360         72.50	     9.327
  50.380         50.83	     7.810
  50.400         55.83	     8.185
  50.420         57.50	     8.307
  50.440         69.17	     9.110
  50.460         88.33	    10.296
  50.480         93.33	    10.583
  50.500        135.83	    12.767
  50.520        125.00	    12.247
  50.540        135.00	    12.728
  50.560        100.00	    10.954
  50.580        110.00	    11.489
  50.600        106.67	    11.314
  50.620        113.33	    11.662
  50.640         98.33	    10.863
  50.660        109.17	    11.446
  50.680         93.33	    10.583
  50.700         68.33	     9.055
  50.720         83.33	    10.000
  50.740         80.00	     9.798
  50.760         75.00	     9.487
  50.780         49.17	     7.681
  50.800         47.50	     7.550
  50.820         50.83	     7.810
  50.840         47.50	     7.550
  50.860         32.50	     6.245
  50.880         44.17	     7.280
  50.900         37.50	     6.708
  50.920         43.33	     7.211
  50.940         55.00	     8.124
  50.960         51.67	     7.874
  50.980         55.83	     8.185
  51.000         79.17	     9.747
  51.020         72.50	     9.327
  51.040         65.00	     8.832
  51.060         56.67	     8.246
  51.080         50.83	     7.810
  51.100         55.00	     8.124
  51.120         74.17	     9.434
  51.140         75.00	     9.487
  51.160         67.50	     9.000
  51.180         61.67	     8.602
  51.200         52.50	     7.937
  51.220         61.67	     8.602
  51.240         53.33	     8.000
  51.260         46.67	     7.483
  51.280         50.83	     7.810
  51.300         42.50	     7.141
  51.320         53.33	     8.000
  51.340         43.33	     7.211
  51.360         35.00	     6.481
  51.380         36.67	     6.633
  51.400         38.33	     6.782
  51.420         42.50	     7.141
  51.440         39.17	     6.856
  51.460         33.33	     6.325
  51.480         30.83	     6.083
  51.500         33.33	     6.325
  51.520         28.33	     5.831
  51.540         44.17	     7.280
  51.560         39.17	     6.856
  51.580         35.83	     6.557
  51.600         38.33	     6.782
  51.620         36.67	     6.633
  51.640         30.83	     6.083
  51.660         32.50	     6.245
  51.680         28.33	     5.831
  51.700         34.17	     6.403
  51.720         38.33	     6.782
  51.740         40.83	     7.000
  51.760         29.17	     5.916
  51.780         26.67	     5.657
  51.800         34.17	     6.403
  51.820         43.33	     7.211
  51.840         36.67	     6.633
  51.860         35.00	     6.481
  51.880         35.83	     6.557
  51.900         34.17	     6.403
  51.920         39.17	     6.856
  51.940         35.00	     6.481
  51.960         34.17	     6.403
  51.980         40.00	     6.928
  52.000         61.67	     8.602
  52.020         38.33	     6.782
  52.040         35.83	     6.557
  52.060         40.00	     6.928
  52.080         55.83	     8.185
  52.100         41.67	     7.071
  52.120         42.50	     7.141
  52.140         45.83	     7.416
  52.160         45.83	     7.416
  52.180         53.33	     8.000
  52.200         47.50	     7.550
  52.220         54.17	     8.062
  52.240         56.67	     8.246
  52.260         40.83	     7.000
  52.280         40.00	     6.928
  52.300         47.50	     7.550
  52.320         47.50	     7.550
  52.340         41.67	     7.071
  52.360         48.33	     7.616
  52.380         48.33	     7.616
  52.400         55.83	     8.185
  52.420         52.50	     7.937
  52.440         55.83	     8.185
  52.460         45.00	     7.348
  52.480         59.17	     8.426
  52.500         47.50	     7.550
  52.520         44.17	     7.280
  52.540         39.17	     6.856
  52.560         47.50	     7.550
  52.580         40.83	     7.000
  52.600         53.33	     8.000
  52.620         45.83	     7.416
  52.640         45.83	     7.416
  52.660         45.83	     7.416
  52.680         45.00	     7.348
  52.700         42.50	     7.141
  52.720         41.67	     7.071
  52.740         45.00	     7.348
  52.760         50.00	     7.746
  52.780         38.33	     6.782
  52.800         46.67	     7.483
  52.820         50.00	     7.746
  52.840         41.67	     7.071
  52.860         42.50	     7.141
  52.880         44.17	     7.280
  52.900         31.67	     6.164
  52.920         52.50	     7.937
  52.940         45.00	     7.348
  52.960         35.83	     6.557
  52.980         30.83	     6.083
  53.000         35.83	     6.557
  53.020         43.33	     7.211
  53.040         41.67	     7.071
  53.060         45.83	     7.416
  53.080         51.67	     7.874
  53.100         45.83	     7.416
  53.120         36.67	     6.633
  53.140         35.00	     6.481
  53.160         55.00	     8.124
  53.180         42.50	     7.141
  53.200         57.50	     8.307
  53.220         44.17	     7.280
  53.240         40.00	     6.928
  53.260         37.50	     6.708
  53.280         45.00	     7.348
  53.300         54.17	     8.062
  53.320         34.17	     6.403
  53.340         33.33	     6.325
  53.360         43.33	     7.211
  53.380         34.17	     6.403
  53.400         47.50	     7.550
  53.420         41.67	     7.071
  53.440         34.17	     6.403
  53.460         40.00	     6.928
  53.480         41.67	     7.071
  53.500         34.17	     6.403
  53.520         33.33	     6.325
  53.540         38.33	     6.782
  53.560         40.00	     6.928
  53.580         41.67	     7.071
  53.600         35.00	     6.481
  53.620         37.50	     6.708
  53.640         45.00	     7.348
  53.660         33.33	     6.325
  53.680         30.83	     6.083
  53.700         44.17	     7.280
  53.720         29.17	     5.916
  53.740         32.50	     6.245
  53.760         40.83	     7.000
  53.780         34.17	     6.403
  53.800         35.00	     6.481
  53.820         36.67	     6.633
  53.840         44.17	     7.280
  53.860         41.67	     7.071
  53.880         34.17	     6.403
  53.900         32.50	     6.245
  53.920         46.67	     7.483
  53.940         29.17	     5.916
  53.960         50.00	     7.746
  53.980         29.17	     5.916
  54.000         48.33	     7.616
  54.020         34.17	     6.403
  54.040         33.33	     6.325
  54.060         45.00	     7.348
  54.080         51.67	     7.874
  54.100         42.50	     7.141
  54.120         43.33	     7.211
  54.140         38.33	     6.782
  54.160         52.50	     7.937
  54.180         47.50	     7.550
  54.200         53.33	     8.000
  54.220         58.33	     8.367
  54.240         50.83	     7.810
  54.260         67.50	     9.000
  54.280         70.00	     9.165
  54.300         49.17	     7.681
  54.320         59.17	     8.426
  54.340         40.83	     7.000
  54.360         60.00	     8.485
  54.380         54.17	     8.062
  54.400         60.83	     8.544
  54.420         48.33	     7.616
  54.440         41.67	     7.071
  54.460         40.00	     6.928
  54.480         55.83	     8.185
  54.500         42.50	     7.141
  54.520         43.33	     7.211
  54.540         42.50	     7.141
  54.560         53.33	     8.000
  54.580         41.67	     7.071
  54.600         41.67	     7.071
  54.620         48.33	     7.616
  54.640         64.17	     8.775
  54.660         42.50	     7.141
  54.680         58.33	     8.367
  54.700         73.33	     9.381
  54.720         86.67	    10.198
  54.740         90.83	    10.440
  54.760        110.00	    11.489
  54.780        160.83	    13.892
  54.800        105.83	    11.269
  54.820         86.67	    10.198
  54.840         78.33	     9.695
  54.860         59.17	     8.426
  54.880         74.17	     9.434
  54.900        100.00	    10.954
  54.920         89.17	    10.344
  54.940         89.17	    10.344
  54.960         84.17	    10.050
  54.980         66.67	     8.944
  55.000         56.67	     8.246
  55.020         50.00	     7.746
  55.040         43.33	     7.211
  55.060         40.83	     7.000
  55.080         50.00	     7.746
  55.100         47.50	     7.550
  55.120         68.33	     9.055
  55.140         58.33	     8.367
  55.160         67.50	     9.000
  55.180         78.33	     9.695
  55.200         95.83	    10.724
  55.220        132.50	    12.610
  55.240        120.00	    12.000
  55.260        104.17	    11.180
  55.280         85.00	    10.100
  55.300         60.00	     8.485
  55.320         57.50	     8.307
  55.340         66.67	     8.944
  55.360         80.00	     9.798
  55.380         90.83	    10.440
  55.400         77.50	     9.644
  55.420         57.50	     8.307
  55.440         56.67	     8.246
  55.460         45.00	     7.348
  55.480         41.67	     7.071
  55.500         48.33	     7.616
  55.520         53.33	     8.000
  55.540         57.50	     8.307
  55.560         49.17	     7.681
  55.580         61.67	     8.602
  55.600         55.83	     8.185
  55.620         56.67	     8.246
  55.640         76.67	     9.592
  55.660         64.17	     8.775
  55.680         78.33	     9.695
  55.700         63.33	     8.718
  55.720         60.83	     8.544
  55.740         65.83	     8.888
  55.760         53.33	     8.000
  55.780         47.50	     7.550
  55.800         57.50	     8.307
  55.820         63.33	     8.718
  55.840         65.83	     8.888
  55.860         50.83	     7.810
  55.880         60.83	     8.544
  55.900         58.33	     8.367
  55.920         45.83	     7.416
  55.940         38.33	     6.782
  55.960         43.33	     7.211
  55.980         44.17	     7.280
  56.000         44.17	     7.280
  56.020         41.67	     7.071
  56.040         32.50	     6.245
  56.060         48.33	     7.616
  56.080         49.17	     7.681
  56.100         45.00	     7.348
  56.120         45.83	     7.416
  56.140         45.83	     7.416
  56.160         39.17	     6.856
  56.180         38.33	     6.782
  56.200         38.33	     6.782
  56.220         48.33	     7.616
  56.240         44.17	     7.280
  56.260         36.67	     6.633
  56.280         50.00	     7.746
  56.300         49.17	     7.681
  56.320         45.83	     7.416
  56.340         47.50	     7.550
  56.360         63.33	     8.718
  56.380         48.33	     7.616
  56.400         44.17	     7.280
  56.420         55.00	     8.124
  56.440         35.83	     6.557
  56.460         46.67	     7.483
  56.480         45.00	     7.348
  56.500         52.50	     7.937
  56.520         59.17	     8.426
  56.540         44.17	     7.280
  56.560         34.17	     6.403
  56.580         40.83	     7.000
  56.600         37.50	     6.708
  56.620         46.67	     7.483
  56.640         55.00	     8.124
  56.660         52.50	     7.937
  56.680         40.83	     7.000
  56.700         41.67	     7.071
  56.720         51.67	     7.874
  56.740         37.50	     6.708
  56.760         50.83	     7.810
  56.780         47.50	     7.550
  56.800         47.50	     7.550
  56.820         42.50	     7.141
  56.840         53.33	     8.000
  56.860         40.83	     7.000
  56.880         42.50	     7.141
  56.900         52.50	     7.937
  56.920         41.67	     7.071
  56.940         37.50	     6.708
  56.960         43.33	     7.211
  56.980         41.67	     7.071
  57.000         37.50	     6.708
  57.020         44.17	     7.280
  57.040         45.83	     7.416
  57.060         43.33	     7.211
  57.080         40.83	     7.000
  57.100         37.50	     6.708
  57.120         45.00	     7.348
  57.140         46.67	     7.483
  57.160         50.00	     7.746
  57.180         50.83	     7.810
  57.200         50.83	     7.810
  57.220         42.50	     7.141
  57.240         51.67	     7.874
  57.260         31.67	     6.164
  57.280         31.67	     6.164
  57.300         49.17	     7.681
  57.320         37.50	     6.708
  57.340         30.00	     6.000
  57.360         31.67	     6.164
  57.380         44.17	     7.280
  57.400         55.83	     8.185
  57.420         33.33	     6.325
  57.440         36.67	     6.633
  57.460         33.33	     6.325
  57.480         37.50	     6.708
  57.500         40.00	     6.928
  57.520         39.17	     6.856
  57.540         41.67	     7.071
  57.560         34.17	     6.403
  57.580         46.67	     7.483
  57.600         64.17	     8.775
  57.620         53.33	     8.000
  57.640         55.00	     8.124
  57.660         40.00	     6.928
  57.680         50.83	     7.810
  57.700         47.50	     7.550
  57.720         35.83	     6.557
  57.740         37.50	     6.708
  57.760         41.67	     7.071
  57.780         44.17	     7.280
  57.800         44.17	     7.280
  57.820         39.17	     6.856
  57.840         39.17	     6.856
  57.860         45.00	     7.348
  57.880         40.00	     6.928
  57.900         58.33	     8.367
  57.920         45.00	     7.348
  57.940         44.17	     7.280
  57.960         43.33	     7.211
  57.980         48.33	     7.616
  58.000         59.17	     8.426
  58.020         46.67	     7.483
  58.040         43.33	     7.211
  58.060         51.67	     7.874
  58.080         50.00	     7.746
  58.100         54.17	     8.062
  58.120         39.17	     6.856
  58.140         41.67	     7.071
  58.160         40.83	     7.000
  58.180         44.17	     7.280
  58.200         42.50	     7.141
  58.220         32.50	     6.245
  58.240         45.00	     7.348
  58.260         44.17	     7.280
  58.280         43.33	     7.211
  58.300         55.00	     8.124
  58.320         41.67	     7.071
  58.340         35.00	     6.481
  58.360         50.83	     7.810
  58.380         46.67	     7.483
  58.400         41.67	     7.071
  58.420         49.17	     7.681
  58.440         49.17	     7.681
  58.460         58.33	     8.367
  58.480         70.00	     9.165
  58.500        104.17	    11.180
  58.520        134.17	    12.689
  58.540        135.83	    12.767
  58.560         97.50	    10.817
  58.580         70.00	     9.165
  58.600         75.83	     9.539
  58.620         65.83	     8.888
  58.640         85.00	    10.100
  58.660         96.67	    10.770
  58.680        101.67	    11.045
  58.700         78.33	     9.695
  58.720         85.83	    10.149
  58.740         65.00	     8.832
  58.760         63.33	     8.718
  58.780         55.83	     8.185
  58.800         69.17	     9.110
  58.820         65.83	     8.888
  58.840         59.17	     8.426
  58.860         75.83	     9.539
  58.880         77.50	     9.644
  58.900         72.50	     9.327
  58.920         97.50	    10.817
  58.940         80.83	     9.849
  58.960         54.17	     8.062
  58.980         60.83	     8.544
  59.000         60.00	     8.485
  59.020         65.83	     8.888
  59.040         80.00	     9.798
  59.060         79.17	     9.747
  59.080         82.50	     9.950
  59.100         81.67	     9.899
  59.120         78.33	     9.695
  59.140         59.17	     8.426
  59.160         69.17	     9.110
  59.180         65.83	     8.888
  59.200         60.83	     8.544
  59.220         65.83	     8.888
  59.240         56.67	     8.246
  59.260         41.67	     7.071
  59.280         53.33	     8.000
  59.300         57.50	     8.307
  59.320         46.67	     7.483
  59.340         35.83	     6.557
  59.360         36.67	     6.633
  59.380         49.17	     7.681
  59.400         40.83	     7.000
  59.420         42.50	     7.141
  59.440         33.33	     6.325
  59.460         38.33	     6.782
  59.480         60.00	     8.485
  59.500         48.33	     7.616
  59.520         50.00	     7.746
  59.540         48.33	     7.616
  59.560         55.00	     8.124
  59.580         53.33	     8.000
  59.600         53.33	     8.000
  59.620         40.00	     6.928
  59.640         50.83	     7.810
  59.660         66.67	     8.944
  59.680         51.67	     7.874
  59.700         54.17	     8.062
  59.720         70.00	     9.165
  59.740         80.00	     9.798
  59.760         81.67	     9.899
  59.780        106.67	    11.314
  59.800        115.00	    11.747
  59.820        155.83	    13.675
  59.840        192.50	    15.199
  59.860        209.17	    15.843
  59.880        172.50	    14.387
  59.900        142.50	    13.077
  59.920        132.50	    12.610
  59.940        115.83	    11.790
  59.960        106.67	    11.314
  59.980        125.83	    12.288
  60.000        125.00	    12.247
  60.020        125.00	    12.247
  60.040        132.50	    12.610
  60.060        110.83	    11.533
  60.080         81.67	     9.899
  60.100         71.67	     9.274
  60.120         63.33	     8.718
  60.140         65.00	     8.832
  60.160         58.33	     8.367
  60.180         64.17	     8.775
  60.200         59.17	     8.426
  60.220         56.67	     8.246
  60.240         45.83	     7.416
  60.260         53.33	     8.000
  60.280         45.00	     7.348
  60.300         67.50	     9.000
  60.320         65.00	     8.832
  60.340         44.17	     7.280
  60.360         63.33	     8.718
  60.380         53.33	     8.000
  60.400         45.00	     7.348
  60.420         58.33	     8.367
  60.440         55.00	     8.124
  60.460         59.17	     8.426
  60.480         52.50	     7.937
  60.500         56.67	     8.246
  60.520         58.33	     8.367
  60.540         53.33	     8.000
  60.560         55.00	     8.124
  60.580         55.00	     8.124
  60.600         69.17	     9.110
  60.620         58.33	     8.367
  60.640         52.50	     7.937
  60.660         61.67	     8.602
  60.680         48.33	     7.616
  60.700         50.83	     7.810
  60.720         61.67	     8.602
  60.740         67.50	     9.000
  60.760         60.00	     8.485
  60.780         69.17	     9.110
  60.800         65.83	     8.888
  60.820         79.17	     9.747
  60.840         59.17	     8.426
  60.860         66.67	     8.944
  60.880         65.00	     8.832
  60.900         55.83	     8.185
  60.920         64.17	     8.775
  60.940         46.67	     7.483
  60.960         67.50	     9.000
  60.980         77.50	     9.644
  61.000         53.33	     8.000
  61.020         70.83	     9.220
  61.040         60.83	     8.544
  61.060         52.50	     7.937
  61.080         53.33	     8.000
  61.100         44.17	     7.280
  61.120         63.33	     8.718
  61.140         47.50	     7.550
  61.160         57.50	     8.307
  61.180         40.83	     7.000
  61.200         48.33	     7.616
  61.220         65.83	     8.888
  61.240         48.33	     7.616
  61.260         58.33	     8.367
  61.280         55.83	     8.185
  61.300         55.00	     8.124
  61.320         69.17	     9.110
  61.340         61.67	     8.602
  61.360         71.67	     9.274
  61.380         89.17	    10.344
  61.400         97.50	    10.817
  61.420         78.33	     9.695
  61.440         67.50	     9.000
  61.460         86.67	    10.198
  61.480         68.33	     9.055
  61.500         69.17	     9.110
  61.520         89.17	    10.344
  61.540         92.50	    10.536
  61.560         97.50	    10.817
  61.580         70.83	     9.220
  61.600         79.17	     9.747
  61.620        115.00	    11.747
  61.640         90.83	    10.440
  61.660         86.67	    10.198
  61.680         73.33	     9.381
  61.700         57.50	     8.307
  61.720         78.33	     9.695
  61.740         63.33	     8.718
  61.760         60.00	     8.485
  61.780         72.50	     9.327
  61.800         91.67	    10.488
  61.820         65.83	     8.888
  61.840         54.17	     8.062
  61.860         60.00	     8.485
  61.880         53.33	     8.000
  61.900         51.67	     7.874
  61.920         54.17	     8.062
  61.940         57.50	     8.307
  61.960         51.67	     7.874
  61.980         60.83	     8.544
  62.000         55.83	     8.185
  62.020         51.67	     7.874
  62.040         48.33	     7.616
  62.060         48.33	     7.616
  62.080         54.17	     8.062
  62.100         45.00	     7.348
  62.120         50.83	     7.810
  62.140         42.50	     7.141
  62.160         44.17	     7.280
  62.180         35.00	     6.481
  62.200         35.83	     6.557
  62.220         35.83	     6.557
  62.240         35.83	     6.557
  62.260         45.00	     7.348
  62.280         34.17	     6.403
  62.300         38.33	     6.782
  62.320         44.17	     7.280
  62.340         34.17	     6.403
  62.360         47.50	     7.550
  62.380         35.00	     6.481
  62.400         30.83	     6.083
  62.420         51.67	     7.874
  62.440         45.83	     7.416
  62.460         55.00	     8.124
  62.480         38.33	     6.782
  62.500         56.67	     8.246
  62.520         58.33	     8.367
  62.540         48.33	     7.616
  62.560         45.83	     7.416
  62.580         44.17	     7.280
  62.600         41.67	     7.071
  62.620         49.17	     7.681
  62.640         56.67	     8.246
  62.660         54.17	     8.062
  62.680         50.00	     7.746
  62.700         54.17	     8.062
  62.720         45.83	     7.416
  62.740         43.33	     7.211
  62.760         50.00	     7.746
  62.780         50.00	     7.746
  62.800         45.83	     7.416
  62.820         43.33	     7.211
  62.840         43.33	     7.211
  62.860         40.83	     7.000
  62.880         40.83	     7.000
  62.900         35.83	     6.557
  62.920         25.00	     5.477
  62.940         36.67	     6.633
  62.960         40.83	     7.000
  62.980         40.83	     7.000
  63.000         35.83	     6.557
  63.020         43.33	     7.211
  63.040         39.17	     6.856
  63.060         40.83	     7.000
  63.080         40.00	     6.928
  63.100         34.17	     6.403
  63.120         35.83	     6.557
  63.140         44.17	     7.280
  63.160         38.33	     6.782
  63.180         45.00	     7.348
  63.200         29.17	     5.916
  63.220         38.33	     6.782
  63.240         41.67	     7.071
  63.260         38.33	     6.782
  63.280         44.17	     7.280
  63.300         45.83	     7.416
  63.320         40.83	     7.000
  63.340         51.67	     7.874
  63.360         50.00	     7.746
  63.380         46.67	     7.483
  63.400         56.67	     8.246
  63.420         56.67	     8.246
  63.440         49.17	     7.681
  63.460         60.00	     8.485
  63.480         40.00	     6.928
  63.500         40.83	     7.000
  63.520         38.33	     6.782
  63.540         56.67	     8.246
  63.560         50.00	     7.746
  63.580         50.83	     7.810
  63.600         21.67	     5.099
  63.620         42.50	     7.141
  63.640         46.67	     7.483
  63.660         41.67	     7.071
  63.680         50.00	     7.746
  63.700         40.83	     7.000
  63.720         44.17	     7.280
  63.740         32.50	     6.245
  63.760         46.67	     7.483
  63.780         45.83	     7.416
  63.800         46.67	     7.483
  63.820         45.83	     7.416
  63.840         62.50	     8.660
  63.860         56.67	     8.246
  63.880         69.17	     9.110
  63.900         75.00	     9.487
  63.920         93.33	    10.583
  63.940         82.50	     9.950
  63.960         89.17	    10.344
  63.980         87.50	    10.247
  64.000         76.67	     9.592
  64.020         57.50	     8.307
  64.040         72.50	     9.327
  64.060         64.17	     8.775
  64.080         68.33	     9.055
  64.100         69.17	     9.110
  64.120         74.17	     9.434
  64.140         64.17	     8.775
  64.160         68.33	     9.055
  64.180         56.67	     8.246
  64.200         50.83	     7.810
  64.220         49.17	     7.681
  64.240         44.17	     7.280
  64.260         49.17	     7.681
  64.280         40.83	     7.000
  64.300         43.33	     7.211
  64.320         44.17	     7.280
  64.340         56.67	     8.246
  64.360         43.33	     7.211
  64.380         45.83	     7.416
  64.400         47.50	     7.550
  64.420         49.17	     7.681
  64.440         50.83	     7.810
  64.460         46.67	     7.483
  64.480         50.83	     7.810
  64.500         51.67	     7.874
  64.520         55.83	     8.185
  64.540         64.17	     8.775
  64.560         77.50	     9.644
  64.580        102.50	    11.091
  64.600         85.00	    10.100
  64.620         58.33	     8.367
  64.640         84.17	    10.050
  64.660         66.67	     8.944
  64.680         72.50	     9.327
  64.700         51.67	     7.874
  64.720         55.00	     8.124
  64.740         59.17	     8.426
  64.760         70.83	     9.220
  64.780         75.00	     9.487
  64.800         65.00	     8.832
  64.820         65.83	     8.888
  64.840         57.50	     8.307
  64.860         58.33	     8.367
  64.880         50.83	     7.810
  64.900         52.50	     7.937
  64.920         55.00	     8.124
  64.940         53.33	     8.000
  64.960         85.83	    10.149
  64.980         53.33	     8.000
  65.000         65.00	     8.832
