
Filename:
	C:\Program Files\Thermo Electron\WinXRD\Datafiles\F_HERMAN\GEO\G64_RT.raw

File Created:
	February 20, 2020 - 10:07 PM

Specimen Id:
	G64_RT

Specimen Name:
	

Specimen Description:
	

Comment:
Scan Type: 2Theta Scan
Start Angle: 3 deg.
Stop Angle: 65 deg.
Num Points: 3101
Step Size: 0.02 deg.
Scan Rate: 1.000000
Scan Mode: Continuous
Wavelength: 1.540562
\Kalpha1: 1.540562	\Kalpha2: 1.544390	\Kbeta: 1.392218

Optics:
		Detector:
			 Type: Fixed Slits
		Tube: 
			 Type: Fixed Slits


Datas:
 Pos [deg]       Rate [CPS]      ESD [-]

Range 1 ---> Iteration 1
   3.000        431.67	    22.760
   3.020        456.67	    23.409
   3.040        416.67	    22.361
   3.060        422.50	    22.517
   3.080        407.50	    22.113
   3.100        435.83	    22.869
   3.120        409.17	    22.159
   3.140        438.33	    22.935
   3.160        436.67	    22.891
   3.180        403.33	    22.000
   3.200        420.83	    22.472
   3.220        384.17	    21.471
   3.240        385.00	    21.494
   3.260        406.67	    22.091
   3.280        380.83	    21.378
   3.300        405.83	    22.068
   3.320        396.67	    21.817
   3.340        368.33	    21.024
   3.360        393.33	    21.726
   3.380        395.83	    21.794
   3.400        370.83	    21.095
   3.420        371.67	    21.119
   3.440        355.00	    20.640
   3.460        375.83	    21.237
   3.480        384.17	    21.471
   3.500        338.33	    20.149
   3.520        339.17	    20.174
   3.540        379.17	    21.331
   3.560        389.17	    21.610
   3.580        353.33	    20.591
   3.600        367.50	    21.000
   3.620        344.17	    20.322
   3.640        343.33	    20.298
   3.660        365.83	    20.952
   3.680        335.00	    20.050
   3.700        355.00	    20.640
   3.720        331.67	    19.950
   3.740        338.33	    20.149
   3.760        345.00	    20.347
   3.780        309.17	    19.261
   3.800        341.67	    20.248
   3.820        328.33	    19.849
   3.840        324.17	    19.723
   3.860        313.33	    19.391
   3.880        307.50	    19.209
   3.900        322.50	    19.672
   3.920        306.67	    19.183
   3.940        314.17	    19.416
   3.960        299.17	    18.947
   3.980        342.50	    20.273
   4.000        347.50	    20.421
   4.020        309.17	    19.261
   4.040        300.83	    19.000
   4.060        297.50	    18.894
   4.080        290.83	    18.682
   4.100        329.17	    19.875
   4.120        335.83	    20.075
   4.140        321.67	    19.647
   4.160        330.00	    19.900
   4.180        301.67	    19.026
   4.200        296.67	    18.868
   4.220        327.50	    19.824
   4.240        263.33	    17.776
   4.260        303.33	    19.079
   4.280        306.67	    19.183
   4.300        273.33	    18.111
   4.320        302.50	    19.053
   4.340        275.00	    18.166
   4.360        265.00	    17.833
   4.380        295.83	    18.841
   4.400        279.17	    18.303
   4.420        295.83	    18.841
   4.440        295.83	    18.841
   4.460        261.67	    17.720
   4.480        296.67	    18.868
   4.500        289.17	    18.628
   4.520        275.83	    18.193
   4.540        276.67	    18.221
   4.560        277.50	    18.248
   4.580        264.17	    17.804
   4.600        284.17	    18.466
   4.620        266.67	    17.889
   4.640        260.00	    17.664
   4.660        260.83	    17.692
   4.680        262.50	    17.748
   4.700        274.17	    18.138
   4.720        270.83	    18.028
   4.740        239.17	    16.941
   4.760        257.50	    17.578
   4.780        260.00	    17.664
   4.800        281.67	    18.385
   4.820        262.50	    17.748
   4.840        255.00	    17.493
   4.860        250.00	    17.321
   4.880        255.00	    17.493
   4.900        232.50	    16.703
   4.920        234.17	    16.763
   4.940        236.67	    16.852
   4.960        240.83	    17.000
   4.980        257.50	    17.578
   5.000        222.50	    16.340
   5.020        248.33	    17.263
   5.040        250.83	    17.349
   5.060        247.50	    17.234
   5.080        259.17	    17.635
   5.100        250.00	    17.321
   5.120        248.33	    17.263
   5.140        254.17	    17.464
   5.160        241.67	    17.029
   5.180        241.67	    17.029
   5.200        249.17	    17.292
   5.220        238.33	    16.912
   5.240        220.00	    16.248
   5.260        227.50	    16.523
   5.280        234.17	    16.763
   5.300        249.17	    17.292
   5.320        235.83	    16.823
   5.340        208.33	    15.811
   5.360        215.00	    16.062
   5.380        205.83	    15.716
   5.400        240.83	    17.000
   5.420        239.17	    16.941
   5.440        222.50	    16.340
   5.460        235.00	    16.793
   5.480        227.50	    16.523
   5.500        204.17	    15.652
   5.520        220.00	    16.248
   5.540        246.67	    17.205
   5.560        239.17	    16.941
   5.580        235.83	    16.823
   5.600        217.50	    16.155
   5.620        234.17	    16.763
   5.640        220.00	    16.248
   5.660        205.00	    15.684
   5.680        221.67	    16.310
   5.700        214.17	    16.031
   5.720        201.67	    15.556
   5.740        195.00	    15.297
   5.760        228.33	    16.553
   5.780        233.33	    16.733
   5.800        200.83	    15.524
   5.820        219.17	    16.217
   5.840        202.50	    15.588
   5.860        202.50	    15.588
   5.880        223.33	    16.371
   5.900        245.83	    17.176
   5.920        260.83	    17.692
   5.940        220.83	    16.279
   5.960        245.00	    17.146
   5.980        238.33	    16.912
   6.000        225.00	    16.432
   6.020        249.17	    17.292
   6.040        225.83	    16.462
   6.060        233.33	    16.733
   6.080        218.33	    16.186
   6.100        252.50	    17.407
   6.120        255.00	    17.493
   6.140        260.00	    17.664
   6.160        241.67	    17.029
   6.180        260.00	    17.664
   6.200        248.33	    17.263
   6.220        202.50	    15.588
   6.240        210.00	    15.875
   6.260        197.50	    15.395
   6.280        215.83	    16.093
   6.300        170.00	    14.283
   6.320        202.50	    15.588
   6.340        215.83	    16.093
   6.360        212.50	    15.969
   6.380        182.50	    14.799
   6.400        202.50	    15.588
   6.420        172.50	    14.387
   6.440        213.33	    16.000
   6.460        185.83	    14.933
   6.480        177.50	    14.595
   6.500        192.50	    15.199
   6.520        191.67	    15.166
   6.540        190.00	    15.100
   6.560        182.50	    14.799
   6.580        189.17	    15.067
   6.600        185.83	    14.933
   6.620        192.50	    15.199
   6.640        211.67	    15.937
   6.660        185.00	    14.900
   6.680        179.17	    14.663
   6.700        188.33	    15.033
   6.720        204.17	    15.652
   6.740        205.00	    15.684
   6.760        181.67	    14.765
   6.780        203.33	    15.620
   6.800        199.17	    15.460
   6.820        180.00	    14.697
   6.840        166.67	    14.142
   6.860        173.33	    14.422
   6.880        165.83	    14.107
   6.900        188.33	    15.033
   6.920        181.67	    14.765
   6.940        180.00	    14.697
   6.960        185.00	    14.900
   6.980        169.17	    14.248
   7.000        196.67	    15.362
   7.020        170.83	    14.318
   7.040        185.00	    14.900
   7.060        161.67	    13.928
   7.080        169.17	    14.248
   7.100        150.00	    13.416
   7.120        173.33	    14.422
   7.140        177.50	    14.595
   7.160        176.67	    14.560
   7.180        174.17	    14.457
   7.200        185.00	    14.900
   7.220        175.00	    14.491
   7.240        159.17	    13.820
   7.260        175.00	    14.491
   7.280        160.00	    13.856
   7.300        165.00	    14.071
   7.320        174.17	    14.457
   7.340        168.33	    14.213
   7.360        166.67	    14.142
   7.380        160.83	    13.892
   7.400        168.33	    14.213
   7.420        182.50	    14.799
   7.440        146.67	    13.266
   7.460        165.83	    14.107
   7.480        169.17	    14.248
   7.500        155.00	    13.638
   7.520        165.00	    14.071
   7.540        143.33	    13.115
   7.560        156.67	    13.711
   7.580        168.33	    14.213
   7.600        145.83	    13.229
   7.620        165.83	    14.107
   7.640        143.33	    13.115
   7.660        166.67	    14.142
   7.680        148.33	    13.342
   7.700        156.67	    13.711
   7.720        131.67	    12.570
   7.740        166.67	    14.142
   7.760        157.50	    13.748
   7.780        160.83	    13.892
   7.800        165.83	    14.107
   7.820        163.33	    14.000
   7.840        153.33	    13.565
   7.860        137.50	    12.845
   7.880        156.67	    13.711
   7.900        149.17	    13.379
   7.920        155.83	    13.675
   7.940        125.83	    12.288
   7.960        150.00	    13.416
   7.980        137.50	    12.845
   8.000        137.50	    12.845
   8.020        143.33	    13.115
   8.040        153.33	    13.565
   8.060        170.00	    14.283
   8.080        149.17	    13.379
   8.100        145.83	    13.229
   8.120        128.33	    12.410
   8.140        140.00	    12.961
   8.160        139.17	    12.923
   8.180        164.17	    14.036
   8.200        154.17	    13.601
   8.220        154.17	    13.601
   8.240        143.33	    13.115
   8.260        124.17	    12.207
   8.280        141.67	    13.038
   8.300        178.33	    14.629
   8.320        140.00	    12.961
   8.340        147.50	    13.304
   8.360        141.67	    13.038
   8.380        153.33	    13.565
   8.400        160.00	    13.856
   8.420        168.33	    14.213
   8.440        158.33	    13.784
   8.460        162.50	    13.964
   8.480        162.50	    13.964
   8.500        155.00	    13.638
   8.520        171.67	    14.353
   8.540        130.83	    12.530
   8.560        173.33	    14.422
   8.580        171.67	    14.353
   8.600        174.17	    14.457
   8.620        188.33	    15.033
   8.640        190.00	    15.100
   8.660        205.00	    15.684
   8.680        228.33	    16.553
   8.700        240.00	    16.971
   8.720        275.83	    18.193
   8.740        289.17	    18.628
   8.760        315.83	    19.468
   8.780        430.83	    22.738
   8.800        529.17	    25.199
   8.820        470.83	    23.770
   8.840        338.33	    20.149
   8.860        255.83	    17.521
   8.880        179.17	    14.663
   8.900        156.67	    13.711
   8.920        145.00	    13.191
   8.940        145.00	    13.191
   8.960        160.00	    13.856
   8.980        128.33	    12.410
   9.000        144.17	    13.153
   9.020        134.17	    12.689
   9.040        159.17	    13.820
   9.060        147.50	    13.304
   9.080        156.67	    13.711
   9.100        122.50	    12.124
   9.120        137.50	    12.845
   9.140        135.00	    12.728
   9.160        143.33	    13.115
   9.180        144.17	    13.153
   9.200        148.33	    13.342
   9.220        137.50	    12.845
   9.240        126.67	    12.329
   9.260        110.83	    11.533
   9.280        150.00	    13.416
   9.300        130.00	    12.490
   9.320        138.33	    12.884
   9.340        150.00	    13.416
   9.360        145.00	    13.191
   9.380        150.83	    13.454
   9.400        146.67	    13.266
   9.420        135.00	    12.728
   9.440        151.67	    13.491
   9.460        119.17	    11.958
   9.480        120.00	    12.000
   9.500        118.33	    11.916
   9.520        118.33	    11.916
   9.540        103.33	    11.136
   9.560        112.50	    11.619
   9.580        123.33	    12.166
   9.600         98.33	    10.863
   9.620        128.33	    12.410
   9.640        128.33	    12.410
   9.660        139.17	    12.923
   9.680        150.83	    13.454
   9.700        154.17	    13.601
   9.720        122.50	    12.124
   9.740        105.83	    11.269
   9.760        108.33	    11.402
   9.780        115.00	    11.747
   9.800        126.67	    12.329
   9.820        107.50	    11.358
   9.840        128.33	    12.410
   9.860        124.17	    12.207
   9.880        126.67	    12.329
   9.900        130.83	    12.530
   9.920        109.17	    11.446
   9.940        126.67	    12.329
   9.960        135.83	    12.767
   9.980        115.83	    11.790
  10.000        105.83	    11.269
  10.020        107.50	    11.358
  10.040         96.67	    10.770
  10.060        111.67	    11.576
  10.080        103.33	    11.136
  10.100        100.00	    10.954
  10.120        111.67	    11.576
  10.140         99.17	    10.909
  10.160        103.33	    11.136
  10.180        106.67	    11.314
  10.200         98.33	    10.863
  10.220        134.17	    12.689
  10.240        118.33	    11.916
  10.260        123.33	    12.166
  10.280        107.50	    11.358
  10.300        138.33	    12.884
  10.320         93.33	    10.583
  10.340        123.33	    12.166
  10.360        132.50	    12.610
  10.380        118.33	    11.916
  10.400        140.00	    12.961
  10.420        155.00	    13.638
  10.440        185.00	    14.900
  10.460        219.17	    16.217
  10.480        203.33	    15.620
  10.500        192.50	    15.199
  10.520        178.33	    14.629
  10.540        106.67	    11.314
  10.560        106.67	    11.314
  10.580        126.67	    12.329
  10.600        111.67	    11.576
  10.620        105.00	    11.225
  10.640        118.33	    11.916
  10.660        110.00	    11.489
  10.680        120.83	    12.042
  10.700        119.17	    11.958
  10.720        106.67	    11.314
  10.740        127.50	    12.369
  10.760        102.50	    11.091
  10.780        107.50	    11.358
  10.800        125.00	    12.247
  10.820        115.83	    11.790
  10.840        111.67	    11.576
  10.860        108.33	    11.402
  10.880        108.33	    11.402
  10.900        110.00	    11.489
  10.920        101.67	    11.045
  10.940        104.17	    11.180
  10.960        102.50	    11.091
  10.980        101.67	    11.045
  11.000        105.83	    11.269
  11.020        104.17	    11.180
  11.040        108.33	    11.402
  11.060        102.50	    11.091
  11.080        120.83	    12.042
  11.100        106.67	    11.314
  11.120        105.83	    11.269
  11.140        105.83	    11.269
  11.160        120.00	    12.000
  11.180        100.83	    11.000
  11.200        100.83	    11.000
  11.220        108.33	    11.402
  11.240        106.67	    11.314
  11.260         99.17	    10.909
  11.280         92.50	    10.536
  11.300         95.00	    10.677
  11.320        100.83	    11.000
  11.340        116.67	    11.832
  11.360        102.50	    11.091
  11.380        111.67	    11.576
  11.400         98.33	    10.863
  11.420        123.33	    12.166
  11.440         95.83	    10.724
  11.460        106.67	    11.314
  11.480        113.33	    11.662
  11.500        108.33	    11.402
  11.520        114.17	    11.705
  11.540        101.67	    11.045
  11.560        106.67	    11.314
  11.580        118.33	    11.916
  11.600        116.67	    11.832
  11.620        102.50	    11.091
  11.640        122.50	    12.124
  11.660        115.83	    11.790
  11.680        111.67	    11.576
  11.700        115.83	    11.790
  11.720        109.17	    11.446
  11.740        111.67	    11.576
  11.760        100.83	    11.000
  11.780        112.50	    11.619
  11.800         95.83	    10.724
  11.820        109.17	    11.446
  11.840         99.17	    10.909
  11.860         95.83	    10.724
  11.880        115.83	    11.790
  11.900        124.17	    12.207
  11.920        110.83	    11.533
  11.940        120.83	    12.042
  11.960        124.17	    12.207
  11.980        120.83	    12.042
  12.000        115.00	    11.747
  12.020        154.17	    13.601
  12.040        164.17	    14.036
  12.060        229.17	    16.583
  12.080        336.67	    20.100
  12.100        430.83	    22.738
  12.120        478.33	    23.958
  12.140        438.33	    22.935
  12.160        340.00	    20.199
  12.180        195.83	    15.330
  12.200        122.50	    12.124
  12.220        124.17	    12.207
  12.240        152.50	    13.528
  12.260        175.00	    14.491
  12.280        180.83	    14.731
  12.300        176.67	    14.560
  12.320        159.17	    13.820
  12.340        175.83	    14.526
  12.360        183.33	    14.832
  12.380        200.00	    15.492
  12.400        214.17	    16.031
  12.420        256.67	    17.550
  12.440        260.00	    17.664
  12.460        233.33	    16.733
  12.480        191.67	    15.166
  12.500        128.33	    12.410
  12.520        112.50	    11.619
  12.540         86.67	    10.198
  12.560         92.50	    10.536
  12.580        114.17	    11.705
  12.600         85.83	    10.149
  12.620        115.00	    11.747
  12.640         90.83	    10.440
  12.660        103.33	    11.136
  12.680         82.50	     9.950
  12.700         73.33	     9.381
  12.720         98.33	    10.863
  12.740         98.33	    10.863
  12.760         97.50	    10.817
  12.780         75.00	     9.487
  12.800        105.83	    11.269
  12.820         96.67	    10.770
  12.840         78.33	     9.695
  12.860         90.83	    10.440
  12.880         95.00	    10.677
  12.900         96.67	    10.770
  12.920         90.83	    10.440
  12.940        100.83	    11.000
  12.960         80.00	     9.798
  12.980        105.83	    11.269
  13.000         88.33	    10.296
  13.020         78.33	     9.695
  13.040         97.50	    10.817
  13.060         99.17	    10.909
  13.080         81.67	     9.899
  13.100        101.67	    11.045
  13.120        103.33	    11.136
  13.140        115.83	    11.790
  13.160        101.67	    11.045
  13.180         85.83	    10.149
  13.200         84.17	    10.050
  13.220         72.50	     9.327
  13.240         95.00	    10.677
  13.260         78.33	     9.695
  13.280        101.67	    11.045
  13.300        114.17	    11.705
  13.320         93.33	    10.583
  13.340         95.83	    10.724
  13.360         93.33	    10.583
  13.380         90.83	    10.440
  13.400         88.33	    10.296
  13.420         97.50	    10.817
  13.440         80.83	     9.849
  13.460        100.83	    11.000
  13.480        110.83	    11.533
  13.500         82.50	     9.950
  13.520         79.17	     9.747
  13.540         95.83	    10.724
  13.560        110.83	    11.533
  13.580         97.50	    10.817
  13.600         95.83	    10.724
  13.620         89.17	    10.344
  13.640         70.00	     9.165
  13.660        105.00	    11.225
  13.680         78.33	     9.695
  13.700        103.33	    11.136
  13.720        109.17	    11.446
  13.740        107.50	    11.358
  13.760        117.50	    11.874
  13.780        104.17	    11.180
  13.800        113.33	    11.662
  13.820         98.33	    10.863
  13.840         89.17	    10.344
  13.860         94.17	    10.630
  13.880         85.00	    10.100
  13.900         82.50	     9.950
  13.920         75.00	     9.487
  13.940        105.00	    11.225
  13.960         90.83	    10.440
  13.980         85.00	    10.100
  14.000         80.00	     9.798
  14.020         92.50	    10.536
  14.040         80.00	     9.798
  14.060         73.33	     9.381
  14.080         77.50	     9.644
  14.100         84.17	    10.050
  14.120         77.50	     9.644
  14.140         85.00	    10.100
  14.160         94.17	    10.630
  14.180         70.00	     9.165
  14.200         75.00	     9.487
  14.220         91.67	    10.488
  14.240         82.50	     9.950
  14.260         66.67	     8.944
  14.280         65.83	     8.888
  14.300         87.50	    10.247
  14.320         68.33	     9.055
  14.340         73.33	     9.381
  14.360         71.67	     9.274
  14.380         94.17	    10.630
  14.400         81.67	     9.899
  14.420         80.83	     9.849
  14.440         70.00	     9.165
  14.460         74.17	     9.434
  14.480         84.17	    10.050
  14.500         64.17	     8.775
  14.520         83.33	    10.000
  14.540         80.83	     9.849
  14.560         76.67	     9.592
  14.580         75.00	     9.487
  14.600         90.83	    10.440
  14.620         76.67	     9.592
  14.640         89.17	    10.344
  14.660         89.17	    10.344
  14.680         79.17	     9.747
  14.700         85.83	    10.149
  14.720         80.83	     9.849
  14.740         66.67	     8.944
  14.760         77.50	     9.644
  14.780         70.83	     9.220
  14.800         81.67	     9.899
  14.820         76.67	     9.592
  14.840         85.83	    10.149
  14.860         70.83	     9.220
  14.880         75.83	     9.539
  14.900         95.83	    10.724
  14.920         87.50	    10.247
  14.940         75.83	     9.539
  14.960         78.33	     9.695
  14.980         86.67	    10.198
  15.000         79.17	     9.747
  15.020         90.00	    10.392
  15.040         75.83	     9.539
  15.060         85.00	    10.100
  15.080         82.50	     9.950
  15.100         68.33	     9.055
  15.120         83.33	    10.000
  15.140         65.83	     8.888
  15.160         86.67	    10.198
  15.180         76.67	     9.592
  15.200         81.67	     9.899
  15.220         82.50	     9.950
  15.240         78.33	     9.695
  15.260         74.17	     9.434
  15.280         62.50	     8.660
  15.300         76.67	     9.592
  15.320         79.17	     9.747
  15.340         74.17	     9.434
  15.360         85.83	    10.149
  15.380         90.83	    10.440
  15.400         94.17	    10.630
  15.420         72.50	     9.327
  15.440         79.17	     9.747
  15.460         69.17	     9.110
  15.480         83.33	    10.000
  15.500         78.33	     9.695
  15.520         73.33	     9.381
  15.540         80.00	     9.798
  15.560         64.17	     8.775
  15.580         65.83	     8.888
  15.600         76.67	     9.592
  15.620         65.00	     8.832
  15.640         73.33	     9.381
  15.660         70.83	     9.220
  15.680         52.50	     7.937
  15.700         74.17	     9.434
  15.720         75.83	     9.539
  15.740         71.67	     9.274
  15.760         85.83	    10.149
  15.780         83.33	    10.000
  15.800         60.00	     8.485
  15.820         80.83	     9.849
  15.840         70.83	     9.220
  15.860         75.00	     9.487
  15.880         58.33	     8.367
  15.900         76.67	     9.592
  15.920         79.17	     9.747
  15.940         80.00	     9.798
  15.960         61.67	     8.602
  15.980         68.33	     9.055
  16.000         59.17	     8.426
  16.020         85.00	    10.100
  16.040         70.83	     9.220
  16.060         61.67	     8.602
  16.080         75.00	     9.487
  16.100         70.00	     9.165
  16.120         77.50	     9.644
  16.140         75.00	     9.487
  16.160         72.50	     9.327
  16.180         63.33	     8.718
  16.200         80.00	     9.798
  16.220         65.00	     8.832
  16.240         58.33	     8.367
  16.260         73.33	     9.381
  16.280         63.33	     8.718
  16.300         65.83	     8.888
  16.320         73.33	     9.381
  16.340         80.00	     9.798
  16.360         65.83	     8.888
  16.380         83.33	    10.000
  16.400         55.00	     8.124
  16.420         70.00	     9.165
  16.440         71.67	     9.274
  16.460         58.33	     8.367
  16.480         55.00	     8.124
  16.500         71.67	     9.274
  16.520         69.17	     9.110
  16.540         70.83	     9.220
  16.560         65.83	     8.888
  16.580         71.67	     9.274
  16.600         60.00	     8.485
  16.620         76.67	     9.592
  16.640         73.33	     9.381
  16.660         63.33	     8.718
  16.680         85.00	    10.100
  16.700         63.33	     8.718
  16.720         60.83	     8.544
  16.740         71.67	     9.274
  16.760         63.33	     8.718
  16.780         77.50	     9.644
  16.800         62.50	     8.660
  16.820         70.83	     9.220
  16.840         81.67	     9.899
  16.860         60.00	     8.485
  16.880         76.67	     9.592
  16.900         58.33	     8.367
  16.920         64.17	     8.775
  16.940         63.33	     8.718
  16.960         73.33	     9.381
  16.980         57.50	     8.307
  17.000         76.67	     9.592
  17.020         62.50	     8.660
  17.040         73.33	     9.381
  17.060         73.33	     9.381
  17.080         57.50	     8.307
  17.100         75.00	     9.487
  17.120         70.83	     9.220
  17.140         65.83	     8.888
  17.160         79.17	     9.747
  17.180         69.17	     9.110
  17.200         65.00	     8.832
  17.220         70.83	     9.220
  17.240         72.50	     9.327
  17.260         72.50	     9.327
  17.280         72.50	     9.327
  17.300         79.17	     9.747
  17.320         73.33	     9.381
  17.340         61.67	     8.602
  17.360         79.17	     9.747
  17.380         65.83	     8.888
  17.400        101.67	    11.045
  17.420         85.00	    10.100
  17.440         82.50	     9.950
  17.460         62.50	     8.660
  17.480         61.67	     8.602
  17.500         75.00	     9.487
  17.520         76.67	     9.592
  17.540         63.33	     8.718
  17.560         76.67	     9.592
  17.580         88.33	    10.296
  17.600         81.67	     9.899
  17.620        100.00	    10.954
  17.640         95.00	    10.677
  17.660        104.17	    11.180
  17.680        114.17	    11.705
  17.700        143.33	    13.115
  17.720        158.33	    13.784
  17.740        167.50	    14.177
  17.760        154.17	    13.601
  17.780        180.83	    14.731
  17.800        130.83	    12.530
  17.820        115.83	    11.790
  17.840         93.33	    10.583
  17.860         65.83	     8.888
  17.880         62.50	     8.660
  17.900         73.33	     9.381
  17.920         75.00	     9.487
  17.940         60.00	     8.485
  17.960         71.67	     9.274
  17.980         75.00	     9.487
  18.000         72.50	     9.327
  18.020         80.00	     9.798
  18.040         59.17	     8.426
  18.060         89.17	    10.344
  18.080         60.83	     8.544
  18.100         61.67	     8.602
  18.120         75.83	     9.539
  18.140         68.33	     9.055
  18.160         67.50	     9.000
  18.180         73.33	     9.381
  18.200         78.33	     9.695
  18.220         62.50	     8.660
  18.240         63.33	     8.718
  18.260         83.33	    10.000
  18.280         70.83	     9.220
  18.300         84.17	    10.050
  18.320         83.33	    10.000
  18.340         95.00	    10.677
  18.360         93.33	    10.583
  18.380         86.67	    10.198
  18.400         69.17	     9.110
  18.420         75.83	     9.539
  18.440         77.50	     9.644
  18.460         77.50	     9.644
  18.480        108.33	    11.402
  18.500         85.83	    10.149
  18.520         95.83	    10.724
  18.540         93.33	    10.583
  18.560         99.17	    10.909
  18.580         90.00	    10.392
  18.600        105.83	    11.269
  18.620         73.33	     9.381
  18.640         90.83	    10.440
  18.660         90.00	    10.392
  18.680        104.17	    11.180
  18.700        130.00	    12.490
  18.720        134.17	    12.689
  18.740        129.17	    12.450
  18.760        112.50	    11.619
  18.780         94.17	    10.630
  18.800         79.17	     9.747
  18.820         85.83	    10.149
  18.840         82.50	     9.950
  18.860         80.83	     9.849
  18.880         73.33	     9.381
  18.900         77.50	     9.644
  18.920         81.67	     9.899
  18.940         66.67	     8.944
  18.960         60.00	     8.485
  18.980         69.17	     9.110
  19.000         71.67	     9.274
  19.020         79.17	     9.747
  19.040         66.67	     8.944
  19.060         64.17	     8.775
  19.080         75.00	     9.487
  19.100         89.17	    10.344
  19.120         74.17	     9.434
  19.140         81.67	     9.899
  19.160         71.67	     9.274
  19.180         81.67	     9.899
  19.200         79.17	     9.747
  19.220         78.33	     9.695
  19.240         64.17	     8.775
  19.260         77.50	     9.644
  19.280         68.33	     9.055
  19.300         68.33	     9.055
  19.320         78.33	     9.695
  19.340         67.50	     9.000
  19.360         60.00	     8.485
  19.380         64.17	     8.775
  19.400         70.00	     9.165
  19.420         59.17	     8.426
  19.440         75.83	     9.539
  19.460         80.00	     9.798
  19.480         77.50	     9.644
  19.500         75.00	     9.487
  19.520         74.17	     9.434
  19.540         75.83	     9.539
  19.560         86.67	    10.198
  19.580         82.50	     9.950
  19.600         91.67	    10.488
  19.620         88.33	    10.296
  19.640         83.33	    10.000
  19.660         85.00	    10.100
  19.680         90.83	    10.440
  19.700         90.83	    10.440
  19.720         87.50	    10.247
  19.740         86.67	    10.198
  19.760         88.33	    10.296
  19.780         88.33	    10.296
  19.800         79.17	     9.747
  19.820        100.00	    10.954
  19.840         83.33	    10.000
  19.860         88.33	    10.296
  19.880         76.67	     9.592
  19.900         70.83	     9.220
  19.920         78.33	     9.695
  19.940         75.00	     9.487
  19.960         85.00	    10.100
  19.980         61.67	     8.602
  20.000         87.50	    10.247
  20.020         66.67	     8.944
  20.040         76.67	     9.592
  20.060         66.67	     8.944
  20.080         83.33	    10.000
  20.100         86.67	    10.198
  20.120         73.33	     9.381
  20.140         67.50	     9.000
  20.160         64.17	     8.775
  20.180         70.83	     9.220
  20.200         63.33	     8.718
  20.220         74.17	     9.434
  20.240         65.00	     8.832
  20.260         70.00	     9.165
  20.280         55.00	     8.124
  20.300         60.83	     8.544
  20.320         57.50	     8.307
  20.340         53.33	     8.000
  20.360         65.00	     8.832
  20.380         68.33	     9.055
  20.400         63.33	     8.718
  20.420         64.17	     8.775
  20.440         60.83	     8.544
  20.460         75.83	     9.539
  20.480         75.83	     9.539
  20.500         69.17	     9.110
  20.520         81.67	     9.899
  20.540         73.33	     9.381
  20.560         60.83	     8.544
  20.580         73.33	     9.381
  20.600         65.83	     8.888
  20.620         68.33	     9.055
  20.640         74.17	     9.434
  20.660         83.33	    10.000
  20.680         93.33	    10.583
  20.700         95.83	    10.724
  20.720        144.17	    13.153
  20.740        185.00	    14.900
  20.760        379.17	    21.331
  20.780        469.17	    23.728
  20.800        388.33	    21.587
  20.820        340.83	    20.224
  20.840        279.17	    18.303
  20.860        188.33	    15.033
  20.880        119.17	    11.958
  20.900        106.67	    11.314
  20.920        100.83	    11.000
  20.940        110.00	    11.489
  20.960         98.33	    10.863
  20.980         90.00	    10.392
  21.000         84.17	    10.050
  21.020         76.67	     9.592
  21.040         65.00	     8.832
  21.060         65.00	     8.832
  21.080         68.33	     9.055
  21.100         60.00	     8.485
  21.120         74.17	     9.434
  21.140         59.17	     8.426
  21.160         55.83	     8.185
  21.180         60.00	     8.485
  21.200         64.17	     8.775
  21.220         57.50	     8.307
  21.240         68.33	     9.055
  21.260         53.33	     8.000
  21.280         52.50	     7.937
  21.300         54.17	     8.062
  21.320         75.83	     9.539
  21.340         76.67	     9.592
  21.360         60.83	     8.544
  21.380         66.67	     8.944
  21.400         63.33	     8.718
  21.420         54.17	     8.062
  21.440         60.00	     8.485
  21.460         78.33	     9.695
  21.480         67.50	     9.000
  21.500         78.33	     9.695
  21.520         65.00	     8.832
  21.540         70.83	     9.220
  21.560         70.00	     9.165
  21.580         50.83	     7.810
  21.600         65.00	     8.832
  21.620         61.67	     8.602
  21.640         64.17	     8.775
  21.660         68.33	     9.055
  21.680         61.67	     8.602
  21.700         57.50	     8.307
  21.720         60.83	     8.544
  21.740         65.00	     8.832
  21.760         54.17	     8.062
  21.780         52.50	     7.937
  21.800         77.50	     9.644
  21.820         86.67	    10.198
  21.840         66.67	     8.944
  21.860         95.00	    10.677
  21.880         84.17	    10.050
  21.900         93.33	    10.583
  21.920        116.67	    11.832
  21.940        164.17	    14.036
  21.960        177.50	    14.595
  21.980        175.83	    14.526
  22.000        163.33	    14.000
  22.020        135.00	    12.728
  22.040        115.00	    11.747
  22.060        110.00	    11.489
  22.080         90.00	    10.392
  22.100         77.50	     9.644
  22.120         60.83	     8.544
  22.140         61.67	     8.602
  22.160         65.00	     8.832
  22.180         85.00	    10.100
  22.200         85.83	    10.149
  22.220         58.33	     8.367
  22.240         60.83	     8.544
  22.260         67.50	     9.000
  22.280         69.17	     9.110
  22.300         70.83	     9.220
  22.320         60.83	     8.544
  22.340         74.17	     9.434
  22.360         73.33	     9.381
  22.380         68.33	     9.055
  22.400         76.67	     9.592
  22.420         58.33	     8.367
  22.440         60.00	     8.485
  22.460         71.67	     9.274
  22.480         69.17	     9.110
  22.500         75.00	     9.487
  22.520         65.83	     8.888
  22.540         55.00	     8.124
  22.560         56.67	     8.246
  22.580         83.33	    10.000
  22.600         65.00	     8.832
  22.620         58.33	     8.367
  22.640         50.00	     7.746
  22.660         60.00	     8.485
  22.680         67.50	     9.000
  22.700         73.33	     9.381
  22.720         74.17	     9.434
  22.740         95.00	    10.677
  22.760         83.33	    10.000
  22.780         83.33	    10.000
  22.800         79.17	     9.747
  22.820         97.50	    10.817
  22.840         99.17	    10.909
  22.860         80.00	     9.798
  22.880         86.67	    10.198
  22.900         83.33	    10.000
  22.920         74.17	     9.434
  22.940         93.33	    10.583
  22.960         87.50	    10.247
  22.980         90.83	    10.440
  23.000         76.67	     9.592
  23.020         70.00	     9.165
  23.040         71.67	     9.274
  23.060         82.50	     9.950
  23.080         72.50	     9.327
  23.100         75.00	     9.487
  23.120         77.50	     9.644
  23.140         69.17	     9.110
  23.160         75.00	     9.487
  23.180         67.50	     9.000
  23.200         85.83	    10.149
  23.220         71.67	     9.274
  23.240         77.50	     9.644
  23.260         74.17	     9.434
  23.280         75.83	     9.539
  23.300         66.67	     8.944
  23.320         81.67	     9.899
  23.340         76.67	     9.592
  23.360        103.33	    11.136
  23.380        154.17	    13.601
  23.400        159.17	    13.820
  23.420        164.17	    14.036
  23.440        172.50	    14.387
  23.460        185.00	    14.900
  23.480        180.83	    14.731
  23.500        140.83	    13.000
  23.520        120.83	    12.042
  23.540        100.00	    10.954
  23.560         94.17	    10.630
  23.580         90.00	    10.392
  23.600         90.00	    10.392
  23.620         75.83	     9.539
  23.640         85.00	    10.100
  23.660         82.50	     9.950
  23.680         84.17	    10.050
  23.700         98.33	    10.863
  23.720         85.00	    10.100
  23.740         78.33	     9.695
  23.760        101.67	    11.045
  23.780         96.67	    10.770
  23.800         78.33	     9.695
  23.820         61.67	     8.602
  23.840         85.00	    10.100
  23.860         63.33	     8.718
  23.880         75.00	     9.487
  23.900         82.50	     9.950
  23.920         76.67	     9.592
  23.940         75.83	     9.539
  23.960         72.50	     9.327
  23.980         88.33	    10.296
  24.000         95.83	    10.724
  24.020         94.17	    10.630
  24.040        110.83	    11.533
  24.060        118.33	    11.916
  24.080        123.33	    12.166
  24.100        158.33	    13.784
  24.120        152.50	    13.528
  24.140        151.67	    13.491
  24.160        162.50	    13.964
  24.180        242.50	    17.059
  24.200        365.00	    20.928
  24.220        596.67	    26.758
  24.240        687.50	    28.723
  24.260        465.00	    23.622
  24.280        384.17	    21.471
  24.300        362.50	    20.857
  24.320        186.67	    14.967
  24.340        115.00	    11.747
  24.360         80.00	     9.798
  24.380         92.50	    10.536
  24.400         90.83	    10.440
  24.420         96.67	    10.770
  24.440        109.17	    11.446
  24.460        153.33	    13.565
  24.480        180.00	    14.697
  24.500        216.67	    16.125
  24.520        215.00	    16.062
  24.540        220.00	    16.248
  24.560        223.33	    16.371
  24.580        188.33	    15.033
  24.600        180.83	    14.731
  24.620        140.83	    13.000
  24.640        135.00	    12.728
  24.660        135.00	    12.728
  24.680        120.00	    12.000
  24.700        105.83	    11.269
  24.720        101.67	    11.045
  24.740        112.50	    11.619
  24.760         88.33	    10.296
  24.780        105.83	    11.269
  24.800         98.33	    10.863
  24.820        102.50	    11.091
  24.840        111.67	    11.576
  24.860        100.83	    11.000
  24.880         95.83	    10.724
  24.900         96.67	    10.770
  24.920         86.67	    10.198
  24.940         87.50	    10.247
  24.960         96.67	    10.770
  24.980        110.83	    11.533
  25.000        102.50	    11.091
  25.020        120.83	    12.042
  25.040        162.50	    13.964
  25.060        175.83	    14.526
  25.080        222.50	    16.340
  25.100        180.00	    14.697
  25.120        197.50	    15.395
  25.140        183.33	    14.832
  25.160        127.50	    12.369
  25.180        119.17	    11.958
  25.200         88.33	    10.296
  25.220         95.00	    10.677
  25.240        105.83	    11.269
  25.260         96.67	    10.770
  25.280         95.83	    10.724
  25.300        112.50	    11.619
  25.320        118.33	    11.916
  25.340         94.17	    10.630
  25.360        112.50	    11.619
  25.380        124.17	    12.207
  25.400        152.50	    13.528
  25.420        136.67	    12.806
  25.440        154.17	    13.601
  25.460        140.83	    13.000
  25.480        150.00	    13.416
  25.500        163.33	    14.000
  25.520        140.00	    12.961
  25.540        143.33	    13.115
  25.560        152.50	    13.528
  25.580        130.00	    12.490
  25.600        115.00	    11.747
  25.620        109.17	    11.446
  25.640         89.17	    10.344
  25.660         91.67	    10.488
  25.680         70.83	     9.220
  25.700         86.67	    10.198
  25.720         67.50	     9.000
  25.740         75.83	     9.539
  25.760         80.00	     9.798
  25.780         78.33	     9.695
  25.800         71.67	     9.274
  25.820         76.67	     9.592
  25.840         60.83	     8.544
  25.860         63.33	     8.718
  25.880         76.67	     9.592
  25.900         72.50	     9.327
  25.920         72.50	     9.327
  25.940         75.00	     9.487
  25.960         56.67	     8.246
  25.980         54.17	     8.062
  26.000         61.67	     8.602
  26.020         80.83	     9.849
  26.040         63.33	     8.718
  26.060         66.67	     8.944
  26.080         73.33	     9.381
  26.100         84.17	    10.050
  26.120         87.50	    10.247
  26.140         85.00	    10.100
  26.160         93.33	    10.583
  26.180         63.33	     8.718
  26.200         80.83	     9.849
  26.220         97.50	    10.817
  26.240        104.17	    11.180
  26.260        110.83	    11.533
  26.280        116.67	    11.832
  26.300        143.33	    13.115
  26.320        140.83	    13.000
  26.340        177.50	    14.595
  26.360        169.17	    14.248
  26.380        195.00	    15.297
  26.400        202.50	    15.588
  26.420        247.50	    17.234
  26.440        255.83	    17.521
  26.460        320.00	    19.596
  26.480        434.17	    22.825
  26.500        656.67	    28.071
  26.520       1093.33	    36.222
  26.540       1826.67	    46.819
  26.560       2589.17	    55.740
  26.580       2562.50	    55.453
  26.600       1983.33	    48.785
  26.620       1481.67	    42.166
  26.640       1424.17	    41.340
  26.660        971.67	    34.147
  26.680        491.67	    24.290
  26.700        312.50	    19.365
  26.720        326.67	    19.799
  26.740        421.67	    22.494
  26.760        488.33	    24.207
  26.780        493.33	    24.331
  26.800        454.17	    23.345
  26.820        408.33	    22.136
  26.840        370.83	    21.095
  26.860        328.33	    19.849
  26.880        260.83	    17.692
  26.900        207.50	    15.780
  26.920        185.83	    14.933
  26.940        145.83	    13.229
  26.960        148.33	    13.342
  26.980        149.17	    13.379
  27.000        137.50	    12.845
  27.020        134.17	    12.689
  27.040        109.17	    11.446
  27.060        103.33	    11.136
  27.080         89.17	    10.344
  27.100         97.50	    10.817
  27.120         93.33	    10.583
  27.140         89.17	    10.344
  27.160         75.00	     9.487
  27.180         89.17	    10.344
  27.200        104.17	    11.180
  27.220         93.33	    10.583
  27.240        100.83	    11.000
  27.260        114.17	    11.705
  27.280         95.00	    10.677
  27.300        100.83	    11.000
  27.320         98.33	    10.863
  27.340        126.67	    12.329
  27.360        140.00	    12.961
  27.380        160.83	    13.892
  27.400        236.67	    16.852
  27.420        280.83	    18.358
  27.440        280.83	    18.358
  27.460        255.00	    17.493
  27.480        210.00	    15.875
  27.500        211.67	    15.937
  27.520        203.33	    15.620
  27.540        139.17	    12.923
  27.560        125.83	    12.288
  27.580        115.83	    11.790
  27.600        134.17	    12.689
  27.620        181.67	    14.765
  27.640        259.17	    17.635
  27.660        291.67	    18.708
  27.680        305.00	    19.131
  27.700        304.17	    19.105
  27.720        289.17	    18.628
  27.740        330.83	    19.925
  27.760        292.50	    18.735
  27.780        266.67	    17.889
  27.800        329.17	    19.875
  27.820        376.67	    21.260
  27.840        453.33	    23.324
  27.860        372.50	    21.142
  27.880        338.33	    20.149
  27.900        362.50	    20.857
  27.920        275.83	    18.193
  27.940        199.17	    15.460
  27.960        167.50	    14.177
  27.980        162.50	    13.964
  28.000        135.00	    12.728
  28.020        140.83	    13.000
  28.040        145.83	    13.229
  28.060        211.67	    15.937
  28.080        207.50	    15.780
  28.100        175.00	    14.491
  28.120        160.83	    13.892
  28.140        135.00	    12.728
  28.160        144.17	    13.153
  28.180        144.17	    13.153
  28.200        112.50	    11.619
  28.220        125.00	    12.247
  28.240         93.33	    10.583
  28.260         94.17	    10.630
  28.280         91.67	    10.488
  28.300         69.17	     9.110
  28.320         85.83	    10.149
  28.340         68.33	     9.055
  28.360         71.67	     9.274
  28.380         69.17	     9.110
  28.400         71.67	     9.274
  28.420         69.17	     9.110
  28.440         73.33	     9.381
  28.460         80.00	     9.798
  28.480         92.50	    10.536
  28.500        114.17	    11.705
  28.520        107.50	    11.358
  28.540         98.33	    10.863
  28.560         99.17	    10.909
  28.580         98.33	    10.863
  28.600         80.00	     9.798
  28.620         86.67	    10.198
  28.640         83.33	    10.000
  28.660         67.50	     9.000
  28.680         79.17	     9.747
  28.700         70.00	     9.165
  28.720         65.00	     8.832
  28.740         66.67	     8.944
  28.760         57.50	     8.307
  28.780         54.17	     8.062
  28.800         51.67	     7.874
  28.820         52.50	     7.937
  28.840         52.50	     7.937
  28.860         63.33	     8.718
  28.880         48.33	     7.616
  28.900         47.50	     7.550
  28.920         56.67	     8.246
  28.940         59.17	     8.426
  28.960         45.83	     7.416
  28.980         46.67	     7.483
  29.000         59.17	     8.426
  29.020         53.33	     8.000
  29.040         52.50	     7.937
  29.060         51.67	     7.874
  29.080         57.50	     8.307
  29.100         51.67	     7.874
  29.120         40.83	     7.000
  29.140         55.83	     8.185
  29.160         45.00	     7.348
  29.180         55.00	     8.124
  29.200         50.00	     7.746
  29.220         41.67	     7.071
  29.240         50.00	     7.746
  29.260         59.17	     8.426
  29.280         55.00	     8.124
  29.300         48.33	     7.616
  29.320         55.83	     8.185
  29.340         67.50	     9.000
  29.360         69.17	     9.110
  29.380         65.00	     8.832
  29.400         60.00	     8.485
  29.420         56.67	     8.246
  29.440         56.67	     8.246
  29.460         55.83	     8.185
  29.480         69.17	     9.110
  29.500         45.83	     7.416
  29.520         55.83	     8.185
  29.540         75.83	     9.539
  29.560         80.83	     9.849
  29.580         60.83	     8.544
  29.600         58.33	     8.367
  29.620         81.67	     9.899
  29.640         81.67	     9.899
  29.660         85.00	    10.100
  29.680         62.50	     8.660
  29.700         94.17	    10.630
  29.720        105.83	    11.269
  29.740        125.83	    12.288
  29.760        128.33	    12.410
  29.780        143.33	    13.115
  29.800        130.00	    12.490
  29.820        119.17	    11.958
  29.840        120.83	    12.042
  29.860        107.50	    11.358
  29.880         99.17	    10.909
  29.900        101.67	    11.045
  29.920         79.17	     9.747
  29.940         93.33	    10.583
  29.960         91.67	    10.488
  29.980         86.67	    10.198
  30.000        112.50	    11.619
  30.020        125.00	    12.247
  30.040        110.83	    11.533
  30.060        111.67	    11.576
  30.080         87.50	    10.247
  30.100         98.33	    10.863
  30.120         98.33	    10.863
  30.140         94.17	    10.630
  30.160         84.17	    10.050
  30.180         76.67	     9.592
  30.200         81.67	     9.899
  30.220         92.50	    10.536
  30.240         60.83	     8.544
  30.260         81.67	     9.899
  30.280         83.33	    10.000
  30.300         97.50	    10.817
  30.320         99.17	    10.909
  30.340        116.67	    11.832
  30.360        150.00	    13.416
  30.380        177.50	    14.595
  30.400        152.50	    13.528
  30.420        113.33	    11.662
  30.440        159.17	    13.820
  30.460        138.33	    12.884
  30.480         97.50	    10.817
  30.500         68.33	     9.055
  30.520         68.33	     9.055
  30.540         50.83	     7.810
  30.560         46.67	     7.483
  30.580         61.67	     8.602
  30.600         57.50	     8.307
  30.620         50.83	     7.810
  30.640         61.67	     8.602
  30.660         55.83	     8.185
  30.680         67.50	     9.000
  30.700         65.83	     8.888
  30.720         66.67	     8.944
  30.740         75.00	     9.487
  30.760         77.50	     9.644
  30.780         80.00	     9.798
  30.800         78.33	     9.695
  30.820         74.17	     9.434
  30.840         65.00	     8.832
  30.860         71.67	     9.274
  30.880         57.50	     8.307
  30.900         47.50	     7.550
  30.920         59.17	     8.426
  30.940         54.17	     8.062
  30.960         53.33	     8.000
  30.980         68.33	     9.055
  31.000         57.50	     8.307
  31.020         73.33	     9.381
  31.040         69.17	     9.110
  31.060         68.33	     9.055
  31.080         63.33	     8.718
  31.100         82.50	     9.950
  31.120         94.17	    10.630
  31.140        100.00	    10.954
  31.160         82.50	     9.950
  31.180         93.33	    10.583
  31.200         82.50	     9.950
  31.220         95.83	    10.724
  31.240         68.33	     9.055
  31.260         71.67	     9.274
  31.280         85.00	    10.100
  31.300         81.67	     9.899
  31.320         72.50	     9.327
  31.340         64.17	     8.775
  31.360         50.00	     7.746
  31.380         68.33	     9.055
  31.400         63.33	     8.718
  31.420         63.33	     8.718
  31.440         75.83	     9.539
  31.460         76.67	     9.592
  31.480         68.33	     9.055
  31.500         62.50	     8.660
  31.520         69.17	     9.110
  31.540         72.50	     9.327
  31.560         72.50	     9.327
  31.580         57.50	     8.307
  31.600         50.00	     7.746
  31.620         56.67	     8.246
  31.640         59.17	     8.426
  31.660         51.67	     7.874
  31.680         52.50	     7.937
  31.700         57.50	     8.307
  31.720         56.67	     8.246
  31.740         48.33	     7.616
  31.760         46.67	     7.483
  31.780         57.50	     8.307
  31.800         63.33	     8.718
  31.820         63.33	     8.718
  31.840         50.83	     7.810
  31.860         58.33	     8.367
  31.880         73.33	     9.381
  31.900         49.17	     7.681
  31.920         70.00	     9.165
  31.940         75.00	     9.487
  31.960         83.33	    10.000
  31.980         65.83	     8.888
  32.000         76.67	     9.592
  32.020         65.00	     8.832
  32.040         59.17	     8.426
  32.060         71.67	     9.274
  32.080         75.00	     9.487
  32.100         68.33	     9.055
  32.120         68.33	     9.055
  32.140         69.17	     9.110
  32.160         92.50	    10.536
  32.180        127.50	    12.369
  32.200        149.17	    13.379
  32.220        120.83	    12.042
  32.240         96.67	    10.770
  32.260         92.50	    10.536
  32.280        108.33	    11.402
  32.300         88.33	    10.296
  32.320         68.33	     9.055
  32.340         73.33	     9.381
  32.360         73.33	     9.381
  32.380         56.67	     8.246
  32.400         42.50	     7.141
  32.420         40.00	     6.928
  32.440         56.67	     8.246
  32.460         50.83	     7.810
  32.480         44.17	     7.280
  32.500         38.33	     6.782
  32.520         49.17	     7.681
  32.540         44.17	     7.280
  32.560         42.50	     7.141
  32.580         43.33	     7.211
  32.600         43.33	     7.211
  32.620         44.17	     7.280
  32.640         46.67	     7.483
  32.660         51.67	     7.874
  32.680         43.33	     7.211
  32.700         51.67	     7.874
  32.720         45.00	     7.348
  32.740         45.83	     7.416
  32.760         47.50	     7.550
  32.780         55.83	     8.185
  32.800         46.67	     7.483
  32.820         40.00	     6.928
  32.840         55.83	     8.185
  32.860         49.17	     7.681
  32.880         50.00	     7.746
  32.900         45.83	     7.416
  32.920         54.17	     8.062
  32.940         43.33	     7.211
  32.960         52.50	     7.937
  32.980         65.83	     8.888
  33.000         83.33	    10.000
  33.020         65.00	     8.832
  33.040         68.33	     9.055
  33.060         49.17	     7.681
  33.080         48.33	     7.616
  33.100         48.33	     7.616
  33.120         51.67	     7.874
  33.140         38.33	     6.782
  33.160         45.00	     7.348
  33.180         45.00	     7.348
  33.200         52.50	     7.937
  33.220         52.50	     7.937
  33.240         47.50	     7.550
  33.260         58.33	     8.367
  33.280         62.50	     8.660
  33.300         65.83	     8.888
  33.320         56.67	     8.246
  33.340         58.33	     8.367
  33.360         58.33	     8.367
  33.380         66.67	     8.944
  33.400         70.00	     9.165
  33.420         62.50	     8.660
  33.440         56.67	     8.246
  33.460         40.00	     6.928
  33.480         63.33	     8.718
  33.500         60.83	     8.544
  33.520         53.33	     8.000
  33.540         62.50	     8.660
  33.560         47.50	     7.550
  33.580         33.33	     6.325
  33.600         44.17	     7.280
  33.620         54.17	     8.062
  33.640         46.67	     7.483
  33.660         56.67	     8.246
  33.680         56.67	     8.246
  33.700         50.83	     7.810
  33.720         53.33	     8.000
  33.740         50.00	     7.746
  33.760         53.33	     8.000
  33.780         43.33	     7.211
  33.800         59.17	     8.426
  33.820         55.00	     8.124
  33.840         62.50	     8.660
  33.860         71.67	     9.274
  33.880         79.17	     9.747
  33.900         54.17	     8.062
  33.920         75.00	     9.487
  33.940         63.33	     8.718
  33.960         58.33	     8.367
  33.980         74.17	     9.434
  34.000         80.83	     9.849
  34.020         68.33	     9.055
  34.040         60.83	     8.544
  34.060         63.33	     8.718
  34.080         77.50	     9.644
  34.100         55.00	     8.124
  34.120         55.83	     8.185
  34.140         63.33	     8.718
  34.160         65.00	     8.832
  34.180         52.50	     7.937
  34.200         56.67	     8.246
  34.220         58.33	     8.367
  34.240         52.50	     7.937
  34.260         70.00	     9.165
  34.280         96.67	    10.770
  34.300         90.00	    10.392
  34.320         76.67	     9.592
  34.340         81.67	     9.899
  34.360        101.67	    11.045
  34.380        109.17	    11.446
  34.400         99.17	    10.909
  34.420        103.33	    11.136
  34.440        105.83	    11.269
  34.460        114.17	    11.705
  34.480        115.83	    11.790
  34.500        136.67	    12.806
  34.520        177.50	    14.595
  34.540        145.83	    13.229
  34.560        155.00	    13.638
  34.580        157.50	    13.748
  34.600        157.50	    13.748
  34.620        130.83	    12.530
  34.640        130.83	    12.530
  34.660        115.00	    11.747
  34.680        112.50	    11.619
  34.700        111.67	    11.576
  34.720         94.17	    10.630
  34.740         83.33	    10.000
  34.760        100.83	    11.000
  34.780        125.00	    12.247
  34.800        111.67	    11.576
  34.820        132.50	    12.610
  34.840        111.67	    11.576
  34.860        125.00	    12.247
  34.880        115.83	    11.790
  34.900        141.67	    13.038
  34.920        137.50	    12.845
  34.940        120.00	    12.000
  34.960        120.00	    12.000
  34.980         85.83	    10.149
  35.000         99.17	    10.909
  35.020         83.33	    10.000
  35.040         98.33	    10.863
  35.060         79.17	     9.747
  35.080         90.83	    10.440
  35.100        102.50	    11.091
  35.120         90.00	    10.392
  35.140         96.67	    10.770
  35.160         76.67	     9.592
  35.180         76.67	     9.592
  35.200         72.50	     9.327
  35.220         75.00	     9.487
  35.240         87.50	    10.247
  35.260         75.00	     9.487
  35.280         90.83	    10.440
  35.300         71.67	     9.274
  35.320         90.00	    10.392
  35.340         92.50	    10.536
  35.360         97.50	    10.817
  35.380        110.00	    11.489
  35.400        116.67	    11.832
  35.420        126.67	    12.329
  35.440        132.50	    12.610
  35.460        124.17	    12.207
  35.480        134.17	    12.689
  35.500        130.83	    12.530
  35.520        135.83	    12.767
  35.540        138.33	    12.884
  35.560        113.33	    11.662
  35.580         89.17	    10.344
  35.600        100.83	    11.000
  35.620         86.67	    10.198
  35.640         79.17	     9.747
  35.660         77.50	     9.644
  35.680         53.33	     8.000
  35.700         67.50	     9.000
  35.720         76.67	     9.592
  35.740         69.17	     9.110
  35.760         66.67	     8.944
  35.780         60.83	     8.544
  35.800         53.33	     8.000
  35.820         64.17	     8.775
  35.840         62.50	     8.660
  35.860         73.33	     9.381
  35.880         59.17	     8.426
  35.900         67.50	     9.000
  35.920         66.67	     8.944
  35.940         65.00	     8.832
  35.960         80.00	     9.798
  35.980         77.50	     9.644
  36.000         79.17	     9.747
  36.020         87.50	    10.247
  36.040         79.17	     9.747
  36.060         73.33	     9.381
  36.080         58.33	     8.367
  36.100         67.50	     9.000
  36.120         64.17	     8.775
  36.140         68.33	     9.055
  36.160         67.50	     9.000
  36.180         73.33	     9.381
  36.200         77.50	     9.644
  36.220         70.83	     9.220
  36.240         61.67	     8.602
  36.260         85.83	    10.149
  36.280         70.00	     9.165
  36.300        118.33	    11.916
  36.320        180.83	    14.731
  36.340        543.33	    25.534
  36.360        977.50	    34.249
  36.380        736.67	    29.732
  36.400        306.67	    19.183
  36.420        320.83	    19.621
  36.440        525.83	    25.120
  36.460        653.33	    28.000
  36.480        412.50	    22.249
  36.500        255.83	    17.521
  36.520        161.67	    13.928
  36.540        167.50	    14.177
  36.560        138.33	    12.884
  36.580        151.67	    13.491
  36.600        133.33	    12.649
  36.620        101.67	    11.045
  36.640        107.50	    11.358
  36.660        102.50	    11.091
  36.680        104.17	    11.180
  36.700         80.83	     9.849
  36.720         85.83	    10.149
  36.740         57.50	     8.307
  36.760         80.00	     9.798
  36.780         76.67	     9.592
  36.800         52.50	     7.937
  36.820         59.17	     8.426
  36.840         73.33	     9.381
  36.860         62.50	     8.660
  36.880         62.50	     8.660
  36.900         76.67	     9.592
  36.920         74.17	     9.434
  36.940         50.83	     7.810
  36.960         64.17	     8.775
  36.980         46.67	     7.483
  37.000         54.17	     8.062
  37.020         53.33	     8.000
  37.040         65.00	     8.832
  37.060         65.00	     8.832
  37.080         60.83	     8.544
  37.100         52.50	     7.937
  37.120         67.50	     9.000
  37.140         65.00	     8.832
  37.160         49.17	     7.681
  37.180         63.33	     8.718
  37.200         65.00	     8.832
  37.220         82.50	     9.950
  37.240         95.00	    10.677
  37.260        107.50	    11.358
  37.280         90.00	    10.392
  37.300         94.17	    10.630
  37.320         96.67	    10.770
  37.340         99.17	    10.909
  37.360         89.17	    10.344
  37.380         80.00	     9.798
  37.400         75.00	     9.487
  37.420         83.33	    10.000
  37.440         75.83	     9.539
  37.460         77.50	     9.644
  37.480         77.50	     9.644
  37.500         80.00	     9.798
  37.520         86.67	    10.198
  37.540         81.67	     9.899
  37.560         90.00	    10.392
  37.580         90.00	    10.392
  37.600         95.00	    10.677
  37.620         86.67	    10.198
  37.640         75.83	     9.539
  37.660        102.50	    11.091
  37.680         67.50	     9.000
  37.700         88.33	    10.296
  37.720         74.17	     9.434
  37.740         67.50	     9.000
  37.760         46.67	     7.483
  37.780         65.00	     8.832
  37.800         55.00	     8.124
  37.820         60.83	     8.544
  37.840         55.00	     8.124
  37.860         53.33	     8.000
  37.880         36.67	     6.633
  37.900         40.00	     6.928
  37.920         36.67	     6.633
  37.940         40.83	     7.000
  37.960         50.00	     7.746
  37.980         58.33	     8.367
  38.000         45.00	     7.348
  38.020         48.33	     7.616
  38.040         35.00	     6.481
  38.060         46.67	     7.483
  38.080         30.83	     6.083
  38.100         57.50	     8.307
  38.120         54.17	     8.062
  38.140         60.83	     8.544
  38.160         67.50	     9.000
  38.180         47.50	     7.550
  38.200         48.33	     7.616
  38.220         40.00	     6.928
  38.240         64.17	     8.775
  38.260         63.33	     8.718
  38.280         43.33	     7.211
  38.300         35.83	     6.557
  38.320         40.00	     6.928
  38.340         43.33	     7.211
  38.360         47.50	     7.550
  38.380         40.83	     7.000
  38.400         42.50	     7.141
  38.420         51.67	     7.874
  38.440         73.33	     9.381
  38.460         55.83	     8.185
  38.480         45.83	     7.416
  38.500         45.00	     7.348
  38.520         44.17	     7.280
  38.540         75.83	     9.539
  38.560         48.33	     7.616
  38.580         52.50	     7.937
  38.600         46.67	     7.483
  38.620         60.00	     8.485
  38.640         56.67	     8.246
  38.660         50.83	     7.810
  38.680         63.33	     8.718
  38.700         58.33	     8.367
  38.720         66.67	     8.944
  38.740         76.67	     9.592
  38.760         66.67	     8.944
  38.780         67.50	     9.000
  38.800         65.00	     8.832
  38.820         65.00	     8.832
  38.840         54.17	     8.062
  38.860         55.83	     8.185
  38.880         43.33	     7.211
  38.900         58.33	     8.367
  38.920         45.00	     7.348
  38.940         40.00	     6.928
  38.960         55.00	     8.124
  38.980         54.17	     8.062
  39.000         41.67	     7.071
  39.020         38.33	     6.782
  39.040         49.17	     7.681
  39.060         45.83	     7.416
  39.080         44.17	     7.280
  39.100         49.17	     7.681
  39.120         49.17	     7.681
  39.140         36.67	     6.633
  39.160         50.00	     7.746
  39.180         47.50	     7.550
  39.200         51.67	     7.874
  39.220         55.00	     8.124
  39.240         55.00	     8.124
  39.260         61.67	     8.602
  39.280         65.83	     8.888
  39.300         51.67	     7.874
  39.320         80.00	     9.798
  39.340        121.67	    12.083
  39.360        174.17	    14.457
  39.380        226.67	    16.492
  39.400        262.50	    17.748
  39.420        279.17	    18.303
  39.440        188.33	    15.033
  39.460        170.00	    14.283
  39.480        145.00	    13.191
  39.500        164.17	    14.036
  39.520        152.50	    13.528
  39.540         97.50	    10.817
  39.560         81.67	     9.899
  39.580         59.17	     8.426
  39.600         57.50	     8.307
  39.620         51.67	     7.874
  39.640         58.33	     8.367
  39.660         56.67	     8.246
  39.680         55.00	     8.124
  39.700         47.50	     7.550
  39.720         56.67	     8.246
  39.740         59.17	     8.426
  39.760         65.00	     8.832
  39.780         46.67	     7.483
  39.800         60.83	     8.544
  39.820         57.50	     8.307
  39.840         50.00	     7.746
  39.860         54.17	     8.062
  39.880         65.83	     8.888
  39.900         57.50	     8.307
  39.920         60.83	     8.544
  39.940         48.33	     7.616
  39.960         60.00	     8.485
  39.980         70.83	     9.220
  40.000         65.00	     8.832
  40.020         54.17	     8.062
  40.040         68.33	     9.055
  40.060         79.17	     9.747
  40.080         75.83	     9.539
  40.100         67.50	     9.000
  40.120         60.00	     8.485
  40.140         70.00	     9.165
  40.160         78.33	     9.695
  40.180        123.33	    12.166
  40.200        158.33	    13.784
  40.220        191.67	    15.166
  40.240        178.33	    14.629
  40.260        118.33	    11.916
  40.280        105.00	    11.225
  40.300        114.17	    11.705
  40.320        124.17	    12.207
  40.340        133.33	    12.649
  40.360         82.50	     9.950
  40.380         75.00	     9.487
  40.400         58.33	     8.367
  40.420         58.33	     8.367
  40.440         55.00	     8.124
  40.460         45.83	     7.416
  40.480         49.17	     7.681
  40.500         37.50	     6.708
  40.520         49.17	     7.681
  40.540         51.67	     7.874
  40.560         45.00	     7.348
  40.580         46.67	     7.483
  40.600         44.17	     7.280
  40.620         49.17	     7.681
  40.640         50.00	     7.746
  40.660         45.83	     7.416
  40.680         50.83	     7.810
  40.700         48.33	     7.616
  40.720         52.50	     7.937
  40.740         53.33	     8.000
  40.760         52.50	     7.937
  40.780         48.33	     7.616
  40.800         48.33	     7.616
  40.820         59.17	     8.426
  40.840         62.50	     8.660
  40.860         45.00	     7.348
  40.880         53.33	     8.000
  40.900         52.50	     7.937
  40.920         48.33	     7.616
  40.940         50.00	     7.746
  40.960         58.33	     8.367
  40.980         45.00	     7.348
  41.000         55.00	     8.124
  41.020         54.17	     8.062
  41.040         49.17	     7.681
  41.060         56.67	     8.246
  41.080         49.17	     7.681
  41.100         48.33	     7.616
  41.120         67.50	     9.000
  41.140         58.33	     8.367
  41.160         58.33	     8.367
  41.180         66.67	     8.944
  41.200         57.50	     8.307
  41.220         61.67	     8.602
  41.240         56.67	     8.246
  41.260         75.00	     9.487
  41.280         58.33	     8.367
  41.300         51.67	     7.874
  41.320         50.00	     7.746
  41.340         40.83	     7.000
  41.360         47.50	     7.550
  41.380         50.83	     7.810
  41.400         50.00	     7.746
  41.420         60.00	     8.485
  41.440         61.67	     8.602
  41.460         55.83	     8.185
  41.480         48.33	     7.616
  41.500         63.33	     8.718
  41.520         55.00	     8.124
  41.540         75.83	     9.539
  41.560         72.50	     9.327
  41.580         64.17	     8.775
  41.600         76.67	     9.592
  41.620         77.50	     9.644
  41.640         75.83	     9.539
  41.660         96.67	    10.770
  41.680         98.33	    10.863
  41.700         75.83	     9.539
  41.720         68.33	     9.055
  41.740         77.50	     9.644
  41.760         92.50	    10.536
  41.780         83.33	    10.000
  41.800         77.50	     9.644
  41.820         80.00	     9.798
  41.840         67.50	     9.000
  41.860         70.00	     9.165
  41.880         82.50	     9.950
  41.900         80.83	     9.849
  41.920         61.67	     8.602
  41.940         71.67	     9.274
  41.960         62.50	     8.660
  41.980         50.00	     7.746
  42.000         67.50	     9.000
  42.020         73.33	     9.381
  42.040         60.83	     8.544
  42.060         54.17	     8.062
  42.080         64.17	     8.775
  42.100         68.33	     9.055
  42.120         77.50	     9.644
  42.140         70.00	     9.165
  42.160         77.50	     9.644
  42.180         65.00	     8.832
  42.200         86.67	    10.198
  42.220         85.00	    10.100
  42.240         86.67	    10.198
  42.260        110.83	    11.533
  42.280        109.17	    11.446
  42.300        141.67	    13.038
  42.320        171.67	    14.353
  42.340        212.50	    15.969
  42.360        262.50	    17.748
  42.380        249.17	    17.292
  42.400        220.83	    16.279
  42.420        208.33	    15.811
  42.440        173.33	    14.422
  42.460        158.33	    13.784
  42.480        174.17	    14.457
  42.500        155.00	    13.638
  42.520        128.33	    12.410
  42.540        105.83	    11.269
  42.560         83.33	    10.000
  42.580         83.33	    10.000
  42.600         78.33	     9.695
  42.620         75.83	     9.539
  42.640         84.17	    10.050
  42.660         72.50	     9.327
  42.680         77.50	     9.644
  42.700         78.33	     9.695
  42.720         85.83	    10.149
  42.740         67.50	     9.000
  42.760         74.17	     9.434
  42.780         76.67	     9.592
  42.800         81.67	     9.899
  42.820         92.50	    10.536
  42.840         85.00	    10.100
  42.860         84.17	    10.050
  42.880         87.50	    10.247
  42.900         92.50	    10.536
  42.920        105.83	    11.269
  42.940         89.17	    10.344
  42.960        100.00	    10.954
  42.980         83.33	    10.000
  43.000        108.33	    11.402
  43.020        114.17	    11.705
  43.040         98.33	    10.863
  43.060        102.50	    11.091
  43.080        105.83	    11.269
  43.100        107.50	    11.358
  43.120        133.33	    12.649
  43.140        131.67	    12.570
  43.160        141.67	    13.038
  43.180        142.50	    13.077
  43.200        145.00	    13.191
  43.220        161.67	    13.928
  43.240        164.17	    14.036
  43.260        175.83	    14.526
  43.280        207.50	    15.780
  43.300        190.00	    15.100
  43.320        204.17	    15.652
  43.340        202.50	    15.588
  43.360        201.67	    15.556
  43.380        244.17	    17.117
  43.400        262.50	    17.748
  43.420        253.33	    17.436
  43.440        257.50	    17.578
  43.460        280.83	    18.358
  43.480        245.00	    17.146
  43.500        264.17	    17.804
  43.520        257.50	    17.578
  43.540        235.83	    16.823
  43.560        223.33	    16.371
  43.580        235.83	    16.823
  43.600        225.00	    16.432
  43.620        220.83	    16.279
  43.640        210.00	    15.875
  43.660        175.00	    14.491
  43.680        165.83	    14.107
  43.700        165.00	    14.071
  43.720        169.17	    14.248
  43.740        154.17	    13.601
  43.760        128.33	    12.410
  43.780        155.00	    13.638
  43.800        120.83	    12.042
  43.820        116.67	    11.832
  43.840        115.83	    11.790
  43.860        102.50	    11.091
  43.880        102.50	    11.091
  43.900        105.83	    11.269
  43.920        100.83	    11.000
  43.940         95.83	    10.724
  43.960         98.33	    10.863
  43.980        101.67	    11.045
  44.000         95.83	    10.724
  44.020         73.33	     9.381
  44.040         77.50	     9.644
  44.060         77.50	     9.644
  44.080         78.33	     9.695
  44.100         78.33	     9.695
  44.120         85.83	    10.149
  44.140         54.17	     8.062
  44.160         68.33	     9.055
  44.180         66.67	     8.944
  44.200         65.00	     8.832
  44.220         70.83	     9.220
  44.240         50.83	     7.810
  44.260         49.17	     7.681
  44.280         54.17	     8.062
  44.300         59.17	     8.426
  44.320         51.67	     7.874
  44.340         51.67	     7.874
  44.360         50.83	     7.810
  44.380         65.83	     8.888
  44.400         52.50	     7.937
  44.420         56.67	     8.246
  44.440         55.83	     8.185
  44.460         56.67	     8.246
  44.480         40.83	     7.000
  44.500         50.83	     7.810
  44.520         53.33	     8.000
  44.540         52.50	     7.937
  44.560         51.67	     7.874
  44.580         47.50	     7.550
  44.600         58.33	     8.367
  44.620         52.50	     7.937
  44.640         49.17	     7.681
  44.660         50.00	     7.746
  44.680         62.50	     8.660
  44.700         51.67	     7.874
  44.720         57.50	     8.307
  44.740         58.33	     8.367
  44.760         52.50	     7.937
  44.780         63.33	     8.718
  44.800         50.00	     7.746
  44.820         61.67	     8.602
  44.840         57.50	     8.307
  44.860         67.50	     9.000
  44.880         85.83	    10.149
  44.900         80.83	     9.849
  44.920         95.83	    10.724
  44.940         80.83	     9.849
  44.960         64.17	     8.775
  44.980         80.00	     9.798
  45.000         84.17	    10.050
  45.020         75.83	     9.539
  45.040         78.33	     9.695
  45.060         84.17	    10.050
  45.080         76.67	     9.592
  45.100         75.00	     9.487
  45.120         88.33	    10.296
  45.140         75.00	     9.487
  45.160         74.17	     9.434
  45.180         77.50	     9.644
  45.200         76.67	     9.592
  45.220         84.17	    10.050
  45.240         95.00	    10.677
  45.260         81.67	     9.899
  45.280         77.50	     9.644
  45.300         62.50	     8.660
  45.320         88.33	    10.296
  45.340         96.67	    10.770
  45.360        120.00	    12.000
  45.380        118.33	    11.916
  45.400        126.67	    12.329
  45.420        160.83	    13.892
  45.440        188.33	    15.033
  45.460        179.17	    14.663
  45.480        172.50	    14.387
  45.500        187.50	    15.000
  45.520        163.33	    14.000
  45.540        181.67	    14.765
  45.560        141.67	    13.038
  45.580        136.67	    12.806
  45.600        125.00	    12.247
  45.620        124.17	    12.207
  45.640        116.67	    11.832
  45.660        124.17	    12.207
  45.680        133.33	    12.649
  45.700        152.50	    13.528
  45.720        160.00	    13.856
  45.740        148.33	    13.342
  45.760         85.83	    10.149
  45.780         75.00	     9.487
  45.800         92.50	    10.536
  45.820        105.00	    11.225
  45.840        105.00	    11.225
  45.860         96.67	    10.770
  45.880         75.00	     9.487
  45.900         90.83	    10.440
  45.920         69.17	     9.110
  45.940         85.83	    10.149
  45.960         86.67	    10.198
  45.980        115.83	    11.790
  46.000        115.83	    11.790
  46.020         89.17	    10.344
  46.040         87.50	    10.247
  46.060         68.33	     9.055
  46.080         70.00	     9.165
  46.100         72.50	     9.327
  46.120         81.67	     9.899
  46.140         64.17	     8.775
  46.160         54.17	     8.062
  46.180         50.00	     7.746
  46.200         41.67	     7.071
  46.220         47.50	     7.550
  46.240         44.17	     7.280
  46.260         45.00	     7.348
  46.280         38.33	     6.782
  46.300         32.50	     6.245
  46.320         35.00	     6.481
  46.340         45.83	     7.416
  46.360         37.50	     6.708
  46.380         42.50	     7.141
  46.400         40.00	     6.928
  46.420         50.00	     7.746
  46.440         50.00	     7.746
  46.460         54.17	     8.062
  46.480         46.67	     7.483
  46.500         45.00	     7.348
  46.520         43.33	     7.211
  46.540         36.67	     6.633
  46.560         40.00	     6.928
  46.580         33.33	     6.325
  46.600         54.17	     8.062
  46.620         50.00	     7.746
  46.640         49.17	     7.681
  46.660         44.17	     7.280
  46.680         40.83	     7.000
  46.700         26.67	     5.657
  46.720         50.00	     7.746
  46.740         40.00	     6.928
  46.760         45.00	     7.348
  46.780         36.67	     6.633
  46.800         47.50	     7.550
  46.820         42.50	     7.141
  46.840         45.00	     7.348
  46.860         48.33	     7.616
  46.880         36.67	     6.633
  46.900         37.50	     6.708
  46.920         35.83	     6.557
  46.940         40.83	     7.000
  46.960         57.50	     8.307
  46.980         37.50	     6.708
  47.000         35.83	     6.557
  47.020         38.33	     6.782
  47.040         46.67	     7.483
  47.060         48.33	     7.616
  47.080         63.33	     8.718
  47.100         53.33	     8.000
  47.120         56.67	     8.246
  47.140         70.83	     9.220
  47.160         45.83	     7.416
  47.180         36.67	     6.633
  47.200         45.83	     7.416
  47.220         35.83	     6.557
  47.240         51.67	     7.874
  47.260         57.50	     8.307
  47.280         42.50	     7.141
  47.300         45.83	     7.416
  47.320         35.83	     6.557
  47.340         55.00	     8.124
  47.360         39.17	     6.856
  47.380         46.67	     7.483
  47.400         55.83	     8.185
  47.420         43.33	     7.211
  47.440         37.50	     6.708
  47.460         44.17	     7.280
  47.480         47.50	     7.550
  47.500         45.00	     7.348
  47.520         41.67	     7.071
  47.540         46.67	     7.483
  47.560         41.67	     7.071
  47.580         43.33	     7.211
  47.600         43.33	     7.211
  47.620         28.33	     5.831
  47.640         40.83	     7.000
  47.660         35.83	     6.557
  47.680         46.67	     7.483
  47.700         44.17	     7.280
  47.720         41.67	     7.071
  47.740         33.33	     6.325
  47.760         40.00	     6.928
  47.780         41.67	     7.071
  47.800         40.83	     7.000
  47.820         46.67	     7.483
  47.840         53.33	     8.000
  47.860         48.33	     7.616
  47.880         49.17	     7.681
  47.900         60.83	     8.544
  47.920         41.67	     7.071
  47.940         59.17	     8.426
  47.960         49.17	     7.681
  47.980         58.33	     8.367
  48.000         64.17	     8.775
  48.020         62.50	     8.660
  48.040         55.00	     8.124
  48.060         66.67	     8.944
  48.080         66.67	     8.944
  48.100         73.33	     9.381
  48.120         62.50	     8.660
  48.140         63.33	     8.718
  48.160         55.00	     8.124
  48.180         54.17	     8.062
  48.200         59.17	     8.426
  48.220         54.17	     8.062
  48.240         55.00	     8.124
  48.260         61.67	     8.602
  48.280         45.00	     7.348
  48.300         50.00	     7.746
  48.320         43.33	     7.211
  48.340         58.33	     8.367
  48.360         50.00	     7.746
  48.380         38.33	     6.782
  48.400         43.33	     7.211
  48.420         46.67	     7.483
  48.440         57.50	     8.307
  48.460         73.33	     9.381
  48.480         68.33	     9.055
  48.500         70.83	     9.220
  48.520         71.67	     9.274
  48.540         71.67	     9.274
  48.560         80.00	     9.798
  48.580         88.33	    10.296
  48.600         85.83	    10.149
  48.620         66.67	     8.944
  48.640         66.67	     8.944
  48.660         59.17	     8.426
  48.680         54.17	     8.062
  48.700         77.50	     9.644
  48.720         49.17	     7.681
  48.740         45.83	     7.416
  48.760         60.83	     8.544
  48.780         44.17	     7.280
  48.800         40.83	     7.000
  48.820         47.50	     7.550
  48.840         39.17	     6.856
  48.860         45.83	     7.416
  48.880         42.50	     7.141
  48.900         47.50	     7.550
  48.920         40.83	     7.000
  48.940         39.17	     6.856
  48.960         60.00	     8.485
  48.980         45.83	     7.416
  49.000         41.67	     7.071
  49.020         39.17	     6.856
  49.040         38.33	     6.782
  49.060         48.33	     7.616
  49.080         55.83	     8.185
  49.100         60.83	     8.544
  49.120         65.83	     8.888
  49.140         53.33	     8.000
  49.160         54.17	     8.062
  49.180         45.83	     7.416
  49.200         41.67	     7.071
  49.220         35.00	     6.481
  49.240         44.17	     7.280
  49.260         53.33	     8.000
  49.280         53.33	     8.000
  49.300         58.33	     8.367
  49.320         55.00	     8.124
  49.340         39.17	     6.856
  49.360         70.00	     9.165
  49.380         65.00	     8.832
  49.400         60.00	     8.485
  49.420         69.17	     9.110
  49.440         56.67	     8.246
  49.460         54.17	     8.062
  49.480         54.17	     8.062
  49.500         56.67	     8.246
  49.520         75.00	     9.487
  49.540         75.00	     9.487
  49.560         67.50	     9.000
  49.580         63.33	     8.718
  49.600         65.83	     8.888
  49.620         60.00	     8.485
  49.640         60.00	     8.485
  49.660         72.50	     9.327
  49.680         75.83	     9.539
  49.700         90.00	    10.392
  49.720         90.83	    10.440
  49.740         72.50	     9.327
  49.760         87.50	    10.247
  49.780        106.67	    11.314
  49.800         90.00	    10.392
  49.820         85.00	    10.100
  49.840        110.00	    11.489
  49.860        102.50	    11.091
  49.880        101.67	    11.045
  49.900        104.17	    11.180
  49.920        108.33	    11.402
  49.940         88.33	    10.296
  49.960        114.17	    11.705
  49.980        120.83	    12.042
  50.000        195.00	    15.297
  50.020        240.83	    17.000
  50.040        323.33	    19.698
  50.060        488.33	    24.207
  50.080        492.50	    24.310
  50.100        348.33	    20.445
  50.120        235.83	    16.823
  50.140        167.50	    14.177
  50.160        165.00	    14.071
  50.180        255.83	    17.521
  50.200        277.50	    18.248
  50.220        276.67	    18.221
  50.240        188.33	    15.033
  50.260        122.50	    12.124
  50.280        106.67	    11.314
  50.300         73.33	     9.381
  50.320         72.50	     9.327
  50.340         65.00	     8.832
  50.360         68.33	     9.055
  50.380         80.83	     9.849
  50.400         79.17	     9.747
  50.420         96.67	    10.770
  50.440         89.17	    10.344
  50.460         88.33	    10.296
  50.480         81.67	     9.899
  50.500         93.33	    10.583
  50.520         80.83	     9.849
  50.540         86.67	    10.198
  50.560         95.00	    10.677
  50.580         99.17	    10.909
  50.600         87.50	    10.247
  50.620         84.17	    10.050
  50.640         95.83	    10.724
  50.660         81.67	     9.899
  50.680        104.17	    11.180
  50.700         77.50	     9.644
  50.720         73.33	     9.381
  50.740         82.50	     9.950
  50.760         66.67	     8.944
  50.780         65.83	     8.888
  50.800         56.67	     8.246
  50.820         48.33	     7.616
  50.840         52.50	     7.937
  50.860         60.83	     8.544
  50.880         57.50	     8.307
  50.900         50.83	     7.810
  50.920         46.67	     7.483
  50.940         65.00	     8.832
  50.960         45.83	     7.416
  50.980         66.67	     8.944
  51.000         71.67	     9.274
  51.020        118.33	    11.916
  51.040        161.67	    13.928
  51.060        181.67	    14.765
  51.080        147.50	    13.304
  51.100         87.50	    10.247
  51.120         84.17	    10.050
  51.140         88.33	    10.296
  51.160        101.67	    11.045
  51.180        113.33	    11.662
  51.200        115.00	    11.747
  51.220         96.67	    10.770
  51.240         68.33	     9.055
  51.260         52.50	     7.937
  51.280         65.00	     8.832
  51.300         55.00	     8.124
  51.320         48.33	     7.616
  51.340         59.17	     8.426
  51.360         47.50	     7.550
  51.380         49.17	     7.681
  51.400         39.17	     6.856
  51.420         33.33	     6.325
  51.440         45.83	     7.416
  51.460         38.33	     6.782
  51.480         25.83	     5.568
  51.500         39.17	     6.856
  51.520         35.00	     6.481
  51.540         33.33	     6.325
  51.560         44.17	     7.280
  51.580         37.50	     6.708
  51.600         39.17	     6.856
  51.620         34.17	     6.403
  51.640         43.33	     7.211
  51.660         43.33	     7.211
  51.680         39.17	     6.856
  51.700         40.83	     7.000
  51.720         39.17	     6.856
  51.740         33.33	     6.325
  51.760         35.00	     6.481
  51.780         34.17	     6.403
  51.800         41.67	     7.071
  51.820         47.50	     7.550
  51.840         31.67	     6.164
  51.860         30.00	     6.000
  51.880         34.17	     6.403
  51.900         35.83	     6.557
  51.920         43.33	     7.211
  51.940         45.83	     7.416
  51.960         25.83	     5.568
  51.980         41.67	     7.071
  52.000         43.33	     7.211
  52.020         43.33	     7.211
  52.040         45.83	     7.416
  52.060         79.17	     9.747
  52.080         62.50	     8.660
  52.100         55.00	     8.124
  52.120         55.00	     8.124
  52.140         52.50	     7.937
  52.160         54.17	     8.062
  52.180         44.17	     7.280
  52.200         54.17	     8.062
  52.220         64.17	     8.775
  52.240         54.17	     8.062
  52.260         45.83	     7.416
  52.280         52.50	     7.937
  52.300         52.50	     7.937
  52.320         44.17	     7.280
  52.340         39.17	     6.856
  52.360         35.00	     6.481
  52.380         43.33	     7.211
  52.400         56.67	     8.246
  52.420         41.67	     7.071
  52.440         61.67	     8.602
  52.460         55.00	     8.124
  52.480         55.83	     8.185
  52.500         64.17	     8.775
  52.520         39.17	     6.856
  52.540         50.00	     7.746
  52.560         46.67	     7.483
  52.580         49.17	     7.681
  52.600         45.83	     7.416
  52.620         42.50	     7.141
  52.640         45.83	     7.416
  52.660         46.67	     7.483
  52.680         57.50	     8.307
  52.700         36.67	     6.633
  52.720         44.17	     7.280
  52.740         43.33	     7.211
  52.760         52.50	     7.937
  52.780         44.17	     7.280
  52.800         41.67	     7.071
  52.820         45.00	     7.348
  52.840         40.83	     7.000
  52.860         50.83	     7.810
  52.880         54.17	     8.062
  52.900         45.83	     7.416
  52.920         52.50	     7.937
  52.940         50.83	     7.810
  52.960         41.67	     7.071
  52.980         43.33	     7.211
  53.000         50.00	     7.746
  53.020         53.33	     8.000
  53.040         72.50	     9.327
  53.060         51.67	     7.874
  53.080         49.17	     7.681
  53.100         60.83	     8.544
  53.120         80.83	     9.849
  53.140         53.33	     8.000
  53.160         58.33	     8.367
  53.180         63.33	     8.718
  53.200         62.50	     8.660
  53.220         47.50	     7.550
  53.240         50.83	     7.810
  53.260         46.67	     7.483
  53.280         50.83	     7.810
  53.300         48.33	     7.616
  53.320         41.67	     7.071
  53.340         44.17	     7.280
  53.360         41.67	     7.071
  53.380         45.00	     7.348
  53.400         35.83	     6.557
  53.420         32.50	     6.245
  53.440         38.33	     6.782
  53.460         50.00	     7.746
  53.480         45.83	     7.416
  53.500         49.17	     7.681
  53.520         41.67	     7.071
  53.540         30.00	     6.000
  53.560         36.67	     6.633
  53.580         39.17	     6.856
  53.600         44.17	     7.280
  53.620         43.33	     7.211
  53.640         45.83	     7.416
  53.660         51.67	     7.874
  53.680         42.50	     7.141
  53.700         38.33	     6.782
  53.720         38.33	     6.782
  53.740         44.17	     7.280
  53.760         33.33	     6.325
  53.780         45.00	     7.348
  53.800         36.67	     6.633
  53.820         39.17	     6.856
  53.840         26.67	     5.657
  53.860         58.33	     8.367
  53.880         32.50	     6.245
  53.900         45.00	     7.348
  53.920         48.33	     7.616
  53.940         37.50	     6.708
  53.960         47.50	     7.550
  53.980         38.33	     6.782
  54.000         42.50	     7.141
  54.020         30.00	     6.000
  54.040         50.00	     7.746
  54.060         37.50	     6.708
  54.080         50.00	     7.746
  54.100         31.67	     6.164
  54.120         45.00	     7.348
  54.140         49.17	     7.681
  54.160         48.33	     7.616
  54.180         41.67	     7.071
  54.200         47.50	     7.550
  54.220         44.17	     7.280
  54.240         43.33	     7.211
  54.260         49.17	     7.681
  54.280         45.83	     7.416
  54.300         34.17	     6.403
  54.320         30.83	     6.083
  54.340         47.50	     7.550
  54.360         42.50	     7.141
  54.380         52.50	     7.937
  54.400         43.33	     7.211
  54.420         53.33	     8.000
  54.440         40.83	     7.000
  54.460         47.50	     7.550
  54.480         61.67	     8.602
  54.500         61.67	     8.602
  54.520         55.00	     8.124
  54.540         44.17	     7.280
  54.560         59.17	     8.426
  54.580         39.17	     6.856
  54.600         55.00	     8.124
  54.620         43.33	     7.211
  54.640         52.50	     7.937
  54.660         63.33	     8.718
  54.680         56.67	     8.246
  54.700         73.33	     9.381
  54.720         69.17	     9.110
  54.740         85.83	    10.149
  54.760         97.50	    10.817
  54.780        127.50	    12.369
  54.800        157.50	    13.748
  54.820        127.50	    12.369
  54.840         85.83	    10.149
  54.860         81.67	     9.899
  54.880         69.17	     9.110
  54.900         75.83	     9.539
  54.920         72.50	     9.327
  54.940        100.83	    11.000
  54.960         86.67	    10.198
  54.980         68.33	     9.055
  55.000         67.50	     9.000
  55.020         60.83	     8.544
  55.040         50.83	     7.810
  55.060         55.83	     8.185
  55.080         54.17	     8.062
  55.100         50.83	     7.810
  55.120         54.17	     8.062
  55.140         60.83	     8.544
  55.160         63.33	     8.718
  55.180         48.33	     7.616
  55.200         75.83	     9.539
  55.220         82.50	     9.950
  55.240         94.17	    10.630
  55.260         85.83	    10.149
  55.280         65.00	     8.832
  55.300         63.33	     8.718
  55.320         64.17	     8.775
  55.340         56.67	     8.246
  55.360         55.00	     8.124
  55.380         70.83	     9.220
  55.400         67.50	     9.000
  55.420         51.67	     7.874
  55.440         52.50	     7.937
  55.460         59.17	     8.426
  55.480         50.00	     7.746
  55.500         52.50	     7.937
  55.520         63.33	     8.718
  55.540         53.33	     8.000
  55.560         65.00	     8.832
  55.580         63.33	     8.718
  55.600         71.67	     9.274
  55.620         67.50	     9.000
  55.640         61.67	     8.602
  55.660         69.17	     9.110
  55.680         65.83	     8.888
  55.700         84.17	    10.050
  55.720         77.50	     9.644
  55.740         86.67	    10.198
  55.760         65.00	     8.832
  55.780         75.00	     9.487
  55.800         77.50	     9.644
  55.820         60.00	     8.485
  55.840         76.67	     9.592
  55.860         68.33	     9.055
  55.880         60.00	     8.485
  55.900         65.83	     8.888
  55.920         64.17	     8.775
  55.940         55.00	     8.124
  55.960         60.83	     8.544
  55.980         42.50	     7.141
  56.000         51.67	     7.874
  56.020         55.00	     8.124
  56.040         55.83	     8.185
  56.060         48.33	     7.616
  56.080         40.00	     6.928
  56.100         45.00	     7.348
  56.120         41.67	     7.071
  56.140         38.33	     6.782
  56.160         51.67	     7.874
  56.180         47.50	     7.550
  56.200         40.83	     7.000
  56.220         49.17	     7.681
  56.240         57.50	     8.307
  56.260         50.00	     7.746
  56.280         26.67	     5.657
  56.300         46.67	     7.483
  56.320         44.17	     7.280
  56.340         41.67	     7.071
  56.360         46.67	     7.483
  56.380         51.67	     7.874
  56.400         45.00	     7.348
  56.420         36.67	     6.633
  56.440         41.67	     7.071
  56.460         53.33	     8.000
  56.480         55.83	     8.185
  56.500         61.67	     8.602
  56.520         34.17	     6.403
  56.540         51.67	     7.874
  56.560         46.67	     7.483
  56.580         48.33	     7.616
  56.600         54.17	     8.062
  56.620         42.50	     7.141
  56.640         55.83	     8.185
  56.660         62.50	     8.660
  56.680         53.33	     8.000
  56.700         54.17	     8.062
  56.720         36.67	     6.633
  56.740         45.00	     7.348
  56.760         52.50	     7.937
  56.780         52.50	     7.937
  56.800         49.17	     7.681
  56.820         54.17	     8.062
  56.840         55.83	     8.185
  56.860         40.00	     6.928
  56.880         57.50	     8.307
  56.900         41.67	     7.071
  56.920         50.83	     7.810
  56.940         46.67	     7.483
  56.960         53.33	     8.000
  56.980         53.33	     8.000
  57.000         53.33	     8.000
  57.020         56.67	     8.246
  57.040         48.33	     7.616
  57.060         40.83	     7.000
  57.080         51.67	     7.874
  57.100         53.33	     8.000
  57.120         51.67	     7.874
  57.140         60.83	     8.544
  57.160         57.50	     8.307
  57.180         55.00	     8.124
  57.200         51.67	     7.874
  57.220         48.33	     7.616
  57.240         41.67	     7.071
  57.260         34.17	     6.403
  57.280         36.67	     6.633
  57.300         40.00	     6.928
  57.320         47.50	     7.550
  57.340         46.67	     7.483
  57.360         44.17	     7.280
  57.380         36.67	     6.633
  57.400         30.83	     6.083
  57.420         40.00	     6.928
  57.440         42.50	     7.141
  57.460         42.50	     7.141
  57.480         40.00	     6.928
  57.500         37.50	     6.708
  57.520         43.33	     7.211
  57.540         35.83	     6.557
  57.560         57.50	     8.307
  57.580         55.83	     8.185
  57.600         49.17	     7.681
  57.620         53.33	     8.000
  57.640         56.67	     8.246
  57.660         60.00	     8.485
  57.680         50.00	     7.746
  57.700         46.67	     7.483
  57.720         51.67	     7.874
  57.740         50.00	     7.746
  57.760         35.00	     6.481
  57.780         40.83	     7.000
  57.800         47.50	     7.550
  57.820         36.67	     6.633
  57.840         45.00	     7.348
  57.860         45.83	     7.416
  57.880         55.00	     8.124
  57.900         32.50	     6.245
  57.920         45.00	     7.348
  57.940         32.50	     6.245
  57.960         50.83	     7.810
  57.980         35.00	     6.481
  58.000         31.67	     6.164
  58.020         49.17	     7.681
  58.040         33.33	     6.325
  58.060         35.00	     6.481
  58.080         36.67	     6.633
  58.100         43.33	     7.211
  58.120         35.00	     6.481
  58.140         52.50	     7.937
  58.160         40.00	     6.928
  58.180         42.50	     7.141
  58.200         35.00	     6.481
  58.220         41.67	     7.071
  58.240         60.00	     8.485
  58.260         69.17	     9.110
  58.280         60.83	     8.544
  58.300         49.17	     7.681
  58.320         42.50	     7.141
  58.340         44.17	     7.280
  58.360         52.50	     7.937
  58.380         65.83	     8.888
  58.400         63.33	     8.718
  58.420         55.00	     8.124
  58.440         75.00	     9.487
  58.460         52.50	     7.937
  58.480         60.83	     8.544
  58.500         60.83	     8.544
  58.520         74.17	     9.434
  58.540         62.50	     8.660
  58.560         67.50	     9.000
  58.580         72.50	     9.327
  58.600         60.83	     8.544
  58.620         62.50	     8.660
  58.640         62.50	     8.660
  58.660         67.50	     9.000
  58.680         62.50	     8.660
  58.700         48.33	     7.616
  58.720         57.50	     8.307
  58.740         50.83	     7.810
  58.760         54.17	     8.062
  58.780         53.33	     8.000
  58.800         48.33	     7.616
  58.820         64.17	     8.775
  58.840         57.50	     8.307
  58.860         57.50	     8.307
  58.880         55.83	     8.185
  58.900         60.83	     8.544
  58.920         62.50	     8.660
  58.940         68.33	     9.055
  58.960         66.67	     8.944
  58.980         69.17	     9.110
  59.000         53.33	     8.000
  59.020         64.17	     8.775
  59.040         70.00	     9.165
  59.060         65.83	     8.888
  59.080         63.33	     8.718
  59.100         59.17	     8.426
  59.120         77.50	     9.644
  59.140         70.00	     9.165
  59.160         74.17	     9.434
  59.180         71.67	     9.274
  59.200         56.67	     8.246
  59.220         46.67	     7.483
  59.240         66.67	     8.944
  59.260         63.33	     8.718
  59.280         62.50	     8.660
  59.300         63.33	     8.718
  59.320         40.00	     6.928
  59.340         60.83	     8.544
  59.360         48.33	     7.616
  59.380         45.83	     7.416
  59.400         45.83	     7.416
  59.420         41.67	     7.071
  59.440         58.33	     8.367
  59.460         39.17	     6.856
  59.480         56.67	     8.246
  59.500         50.83	     7.810
  59.520         50.00	     7.746
  59.540         44.17	     7.280
  59.560         50.00	     7.746
  59.580         58.33	     8.367
  59.600         60.00	     8.485
  59.620         49.17	     7.681
  59.640         64.17	     8.775
  59.660         56.67	     8.246
  59.680         69.17	     9.110
  59.700         77.50	     9.644
  59.720         80.83	     9.849
  59.740         75.83	     9.539
  59.760         88.33	    10.296
  59.780         99.17	    10.909
  59.800        144.17	    13.153
  59.820        175.83	    14.526
  59.840        264.17	    17.804
  59.860        348.33	    20.445
  59.880        397.50	    21.840
  59.900        346.67	    20.396
  59.920        237.50	    16.882
  59.940        179.17	    14.663
  59.960        164.17	    14.036
  59.980        129.17	    12.450
  60.000        140.00	    12.961
  60.020        190.83	    15.133
  60.040        211.67	    15.937
  60.060        205.00	    15.684
  60.080        165.83	    14.107
  60.100        129.17	    12.450
  60.120         85.00	    10.100
  60.140         84.17	    10.050
  60.160         73.33	     9.381
  60.180         75.83	     9.539
  60.200         74.17	     9.434
  60.220         54.17	     8.062
  60.240         72.50	     9.327
  60.260         59.17	     8.426
  60.280         74.17	     9.434
  60.300         74.17	     9.434
  60.320         51.67	     7.874
  60.340         64.17	     8.775
  60.360         60.00	     8.485
  60.380         65.00	     8.832
  60.400         58.33	     8.367
  60.420         56.67	     8.246
  60.440         66.67	     8.944
  60.460         62.50	     8.660
  60.480         84.17	    10.050
  60.500         65.83	     8.888
  60.520         51.67	     7.874
  60.540         58.33	     8.367
  60.560         55.83	     8.185
  60.580         44.17	     7.280
  60.600         50.00	     7.746
  60.620         67.50	     9.000
  60.640         68.33	     9.055
  60.660         57.50	     8.307
  60.680         76.67	     9.592
  60.700         60.83	     8.544
  60.720         54.17	     8.062
  60.740         66.67	     8.944
  60.760         62.50	     8.660
  60.780         63.33	     8.718
  60.800         57.50	     8.307
  60.820         60.83	     8.544
  60.840         65.00	     8.832
  60.860         56.67	     8.246
  60.880         71.67	     9.274
  60.900         68.33	     9.055
  60.920         75.83	     9.539
  60.940         69.17	     9.110
  60.960         62.50	     8.660
  60.980         60.00	     8.485
  61.000         53.33	     8.000
  61.020         62.50	     8.660
  61.040         54.17	     8.062
  61.060         60.83	     8.544
  61.080         56.67	     8.246
  61.100         45.00	     7.348
  61.120         48.33	     7.616
  61.140         52.50	     7.937
  61.160         57.50	     8.307
  61.180         47.50	     7.550
  61.200         55.83	     8.185
  61.220         54.17	     8.062
  61.240         58.33	     8.367
  61.260         56.67	     8.246
  61.280         68.33	     9.055
  61.300         64.17	     8.775
  61.320         75.00	     9.487
  61.340         80.00	     9.798
  61.360         81.67	     9.899
  61.380         87.50	    10.247
  61.400        134.17	    12.689
  61.420        114.17	    11.705
  61.440         97.50	    10.817
  61.460         78.33	     9.695
  61.480         86.67	    10.198
  61.500         76.67	     9.592
  61.520         89.17	    10.344
  61.540         80.00	     9.798
  61.560        100.00	    10.954
  61.580        100.83	    11.000
  61.600         91.67	    10.488
  61.620         77.50	     9.644
  61.640         75.83	     9.539
  61.660         65.00	     8.832
  61.680         75.83	     9.539
  61.700         71.67	     9.274
  61.720         61.67	     8.602
  61.740         55.83	     8.185
  61.760         71.67	     9.274
  61.780         70.83	     9.220
  61.800         42.50	     7.141
  61.820         54.17	     8.062
  61.840         58.33	     8.367
  61.860         59.17	     8.426
  61.880         40.83	     7.000
  61.900         65.00	     8.832
  61.920         57.50	     8.307
  61.940         56.67	     8.246
  61.960         62.50	     8.660
  61.980         50.83	     7.810
  62.000         50.83	     7.810
  62.020         47.50	     7.550
  62.040         45.83	     7.416
  62.060         47.50	     7.550
  62.080         43.33	     7.211
  62.100         54.17	     8.062
  62.120         55.00	     8.124
  62.140         41.67	     7.071
  62.160         45.00	     7.348
  62.180         45.83	     7.416
  62.200         46.67	     7.483
  62.220         36.67	     6.633
  62.240         50.00	     7.746
  62.260         45.83	     7.416
  62.280         42.50	     7.141
  62.300         38.33	     6.782
  62.320         37.50	     6.708
  62.340         39.17	     6.856
  62.360         36.67	     6.633
  62.380         30.00	     6.000
  62.400         27.50	     5.745
  62.420         48.33	     7.616
  62.440         38.33	     6.782
  62.460         45.00	     7.348
  62.480         36.67	     6.633
  62.500         35.83	     6.557
  62.520         55.83	     8.185
  62.540         44.17	     7.280
  62.560         42.50	     7.141
  62.580         35.00	     6.481
  62.600         41.67	     7.071
  62.620         39.17	     6.856
  62.640         61.67	     8.602
  62.660         48.33	     7.616
  62.680         49.17	     7.681
  62.700         47.50	     7.550
  62.720         45.00	     7.348
  62.740         35.83	     6.557
  62.760         39.17	     6.856
  62.780         45.00	     7.348
  62.800         35.83	     6.557
  62.820         42.50	     7.141
  62.840         47.50	     7.550
  62.860         42.50	     7.141
  62.880         44.17	     7.280
  62.900         55.83	     8.185
  62.920         56.67	     8.246
  62.940         65.00	     8.832
  62.960         73.33	     9.381
  62.980         66.67	     8.944
  63.000         80.00	     9.798
  63.020         56.67	     8.246
  63.040         75.83	     9.539
  63.060         65.00	     8.832
  63.080         51.67	     7.874
  63.100         60.83	     8.544
  63.120         56.67	     8.246
  63.140         65.00	     8.832
  63.160         56.67	     8.246
  63.180         55.00	     8.124
  63.200         54.17	     8.062
  63.220         43.33	     7.211
  63.240         47.50	     7.550
  63.260         45.00	     7.348
  63.280         53.33	     8.000
  63.300         39.17	     6.856
  63.320         48.33	     7.616
  63.340         42.50	     7.141
  63.360         54.17	     8.062
  63.380         50.83	     7.810
  63.400         56.67	     8.246
  63.420         51.67	     7.874
  63.440         46.67	     7.483
  63.460         45.00	     7.348
  63.480         36.67	     6.633
  63.500         58.33	     8.367
  63.520         59.17	     8.426
  63.540         41.67	     7.071
  63.560         45.00	     7.348
  63.580         47.50	     7.550
  63.600         50.83	     7.810
  63.620         45.00	     7.348
  63.640         55.00	     8.124
  63.660         55.00	     8.124
  63.680         45.00	     7.348
  63.700         50.83	     7.810
  63.720         51.67	     7.874
  63.740         66.67	     8.944
  63.760         59.17	     8.426
  63.780         54.17	     8.062
  63.800         55.00	     8.124
  63.820         55.00	     8.124
  63.840         46.67	     7.483
  63.860         63.33	     8.718
  63.880         67.50	     9.000
  63.900         65.00	     8.832
  63.920         80.83	     9.849
  63.940         85.00	    10.100
  63.960         79.17	     9.747
  63.980         70.83	     9.220
  64.000         73.33	     9.381
  64.020         61.67	     8.602
  64.040         51.67	     7.874
  64.060         59.17	     8.426
  64.080         57.50	     8.307
  64.100         75.00	     9.487
  64.120         63.33	     8.718
  64.140         63.33	     8.718
  64.160         63.33	     8.718
  64.180         47.50	     7.550
  64.200         55.00	     8.124
  64.220         42.50	     7.141
  64.240         55.00	     8.124
  64.260         45.83	     7.416
  64.280         50.83	     7.810
  64.300         55.00	     8.124
  64.320         40.83	     7.000
  64.340         38.33	     6.782
  64.360         38.33	     6.782
  64.380         35.83	     6.557
  64.400         30.00	     6.000
  64.420         42.50	     7.141
  64.440         48.33	     7.616
  64.460         39.17	     6.856
  64.480         35.00	     6.481
  64.500         45.00	     7.348
  64.520         45.00	     7.348
  64.540         40.00	     6.928
  64.560         53.33	     8.000
  64.580         60.83	     8.544
  64.600         63.33	     8.718
  64.620         90.83	    10.440
  64.640         99.17	    10.909
  64.660         72.50	     9.327
  64.680         52.50	     7.937
  64.700         54.17	     8.062
  64.720         51.67	     7.874
  64.740         46.67	     7.483
  64.760         49.17	     7.681
  64.780         54.17	     8.062
  64.800         66.67	     8.944
  64.820         65.00	     8.832
  64.840         60.00	     8.485
  64.860         55.00	     8.124
  64.880         51.67	     7.874
  64.900         51.67	     7.874
  64.920         48.33	     7.616
  64.940         39.17	     6.856
  64.960         32.50	     6.245
  64.980         46.67	     7.483
  65.000         45.00	     7.348
