
Filename:
	C:\Program Files\Thermo Electron\WinXRD\Datafiles\F_HERMAN\GEO\G66_RT.raw

File Created:
	February 20, 2020 - 12:59 AM

Specimen Id:
	G66_RT

Specimen Name:
	

Specimen Description:
	

Comment:
Scan Type: 2Theta Scan
Start Angle: 3 deg.
Stop Angle: 65 deg.
Num Points: 3101
Step Size: 0.02 deg.
Scan Rate: 1.000000
Scan Mode: Continuous
Wavelength: 1.540562
\Kalpha1: 1.540562	\Kalpha2: 1.544390	\Kbeta: 1.392218

Optics:
		Detector:
			 Type: Fixed Slits
		Tube: 
			 Type: Fixed Slits


Datas:
 Pos [deg]       Rate [CPS]      ESD [-]

Range 1 ---> Iteration 1
   3.000        448.33	    23.195
   3.020        459.17	    23.473
   3.040        438.33	    22.935
   3.060        433.33	    22.804
   3.080        428.33	    22.672
   3.100        420.00	    22.450
   3.120        460.00	    23.495
   3.140        420.00	    22.450
   3.160        418.33	    22.405
   3.180        403.33	    22.000
   3.200        427.50	    22.650
   3.220        408.33	    22.136
   3.240        396.67	    21.817
   3.260        430.83	    22.738
   3.280        405.00	    22.045
   3.300        415.83	    22.338
   3.320        421.67	    22.494
   3.340        360.00	    20.785
   3.360        385.83	    21.517
   3.380        405.83	    22.068
   3.400        385.00	    21.494
   3.420        386.67	    21.541
   3.440        414.17	    22.293
   3.460        394.17	    21.749
   3.480        385.83	    21.517
   3.500        360.83	    20.809
   3.520        377.50	    21.284
   3.540        374.17	    21.190
   3.560        380.00	    21.354
   3.580        383.33	    21.448
   3.600        390.00	    21.633
   3.620        338.33	    20.149
   3.640        330.83	    19.925
   3.660        325.83	    19.774
   3.680        373.33	    21.166
   3.700        351.67	    20.543
   3.720        341.67	    20.248
   3.740        350.00	    20.494
   3.760        352.50	    20.567
   3.780        338.33	    20.149
   3.800        340.83	    20.224
   3.820        331.67	    19.950
   3.840        336.67	    20.100
   3.860        324.17	    19.723
   3.880        323.33	    19.698
   3.900        324.17	    19.723
   3.920        342.50	    20.273
   3.940        335.83	    20.075
   3.960        320.83	    19.621
   3.980        316.67	    19.494
   4.000        285.00	    18.493
   4.020        283.33	    18.439
   4.040        310.00	    19.287
   4.060        296.67	    18.868
   4.080        301.67	    19.026
   4.100        318.33	    19.545
   4.120        271.67	    18.055
   4.140        303.33	    19.079
   4.160        330.00	    19.900
   4.180        292.50	    18.735
   4.200        310.83	    19.313
   4.220        298.33	    18.921
   4.240        295.00	    18.815
   4.260        309.17	    19.261
   4.280        289.17	    18.628
   4.300        290.83	    18.682
   4.320        271.67	    18.055
   4.340        291.67	    18.708
   4.360        250.83	    17.349
   4.380        280.83	    18.358
   4.400        302.50	    19.053
   4.420        270.83	    18.028
   4.440        281.67	    18.385
   4.460        257.50	    17.578
   4.480        252.50	    17.407
   4.500        262.50	    17.748
   4.520        272.50	    18.083
   4.540        270.00	    18.000
   4.560        287.50	    18.574
   4.580        247.50	    17.234
   4.600        266.67	    17.889
   4.620        271.67	    18.055
   4.640        280.83	    18.358
   4.660        246.67	    17.205
   4.680        253.33	    17.436
   4.700        266.67	    17.889
   4.720        245.83	    17.176
   4.740        247.50	    17.234
   4.760        266.67	    17.889
   4.780        275.00	    18.166
   4.800        265.00	    17.833
   4.820        268.33	    17.944
   4.840        269.17	    17.972
   4.860        245.00	    17.146
   4.880        270.00	    18.000
   4.900        250.00	    17.321
   4.920        254.17	    17.464
   4.940        261.67	    17.720
   4.960        245.83	    17.176
   4.980        220.83	    16.279
   5.000        233.33	    16.733
   5.020        265.83	    17.861
   5.040        265.00	    17.833
   5.060        248.33	    17.263
   5.080        246.67	    17.205
   5.100        208.33	    15.811
   5.120        240.00	    16.971
   5.140        221.67	    16.310
   5.160        227.50	    16.523
   5.180        240.83	    17.000
   5.200        226.67	    16.492
   5.220        228.33	    16.553
   5.240        250.00	    17.321
   5.260        220.83	    16.279
   5.280        246.67	    17.205
   5.300        220.00	    16.248
   5.320        207.50	    15.780
   5.340        242.50	    17.059
   5.360        237.50	    16.882
   5.380        248.33	    17.263
   5.400        223.33	    16.371
   5.420        227.50	    16.523
   5.440        249.17	    17.292
   5.460        236.67	    16.852
   5.480        219.17	    16.217
   5.500        238.33	    16.912
   5.520        205.83	    15.716
   5.540        214.17	    16.031
   5.560        231.67	    16.673
   5.580        243.33	    17.088
   5.600        210.00	    15.875
   5.620        246.67	    17.205
   5.640        210.00	    15.875
   5.660        227.50	    16.523
   5.680        209.17	    15.843
   5.700        231.67	    16.673
   5.720        235.83	    16.823
   5.740        239.17	    16.941
   5.760        231.67	    16.673
   5.780        227.50	    16.523
   5.800        245.83	    17.176
   5.820        255.83	    17.521
   5.840        246.67	    17.205
   5.860        250.83	    17.349
   5.880        258.33	    17.607
   5.900        261.67	    17.720
   5.920        236.67	    16.852
   5.940        269.17	    17.972
   5.960        269.17	    17.972
   5.980        258.33	    17.607
   6.000        252.50	    17.407
   6.020        245.83	    17.176
   6.040        271.67	    18.055
   6.060        270.00	    18.000
   6.080        285.83	    18.520
   6.100        296.67	    18.868
   6.120        305.83	    19.157
   6.140        325.00	    19.748
   6.160        341.67	    20.248
   6.180        334.17	    20.025
   6.200        306.67	    19.183
   6.220        234.17	    16.763
   6.240        206.67	    15.748
   6.260        235.83	    16.823
   6.280        203.33	    15.620
   6.300        214.17	    16.031
   6.320        202.50	    15.588
   6.340        187.50	    15.000
   6.360        201.67	    15.556
   6.380        173.33	    14.422
   6.400        206.67	    15.748
   6.420        195.83	    15.330
   6.440        184.17	    14.866
   6.460        217.50	    16.155
   6.480        165.83	    14.107
   6.500        185.83	    14.933
   6.520        204.17	    15.652
   6.540        179.17	    14.663
   6.560        184.17	    14.866
   6.580        196.67	    15.362
   6.600        212.50	    15.969
   6.620        196.67	    15.362
   6.640        174.17	    14.457
   6.660        193.33	    15.232
   6.680        205.83	    15.716
   6.700        198.33	    15.427
   6.720        195.00	    15.297
   6.740        185.00	    14.900
   6.760        182.50	    14.799
   6.780        194.17	    15.264
   6.800        195.83	    15.330
   6.820        180.00	    14.697
   6.840        166.67	    14.142
   6.860        189.17	    15.067
   6.880        177.50	    14.595
   6.900        192.50	    15.199
   6.920        164.17	    14.036
   6.940        169.17	    14.248
   6.960        181.67	    14.765
   6.980        164.17	    14.036
   7.000        178.33	    14.629
   7.020        189.17	    15.067
   7.040        158.33	    13.784
   7.060        173.33	    14.422
   7.080        144.17	    13.153
   7.100        165.83	    14.107
   7.120        185.00	    14.900
   7.140        174.17	    14.457
   7.160        194.17	    15.264
   7.180        176.67	    14.560
   7.200        175.00	    14.491
   7.220        168.33	    14.213
   7.240        161.67	    13.928
   7.260        160.83	    13.892
   7.280        169.17	    14.248
   7.300        172.50	    14.387
   7.320        157.50	    13.748
   7.340        172.50	    14.387
   7.360        155.00	    13.638
   7.380        168.33	    14.213
   7.400        177.50	    14.595
   7.420        163.33	    14.000
   7.440        185.00	    14.900
   7.460        167.50	    14.177
   7.480        165.00	    14.071
   7.500        147.50	    13.304
   7.520        155.83	    13.675
   7.540        168.33	    14.213
   7.560        162.50	    13.964
   7.580        169.17	    14.248
   7.600        151.67	    13.491
   7.620        165.83	    14.107
   7.640        134.17	    12.689
   7.660        138.33	    12.884
   7.680        173.33	    14.422
   7.700        165.00	    14.071
   7.720        150.83	    13.454
   7.740        142.50	    13.077
   7.760        137.50	    12.845
   7.780        158.33	    13.784
   7.800        160.83	    13.892
   7.820        169.17	    14.248
   7.840        167.50	    14.177
   7.860        168.33	    14.213
   7.880        170.83	    14.318
   7.900        160.83	    13.892
   7.920        153.33	    13.565
   7.940        160.00	    13.856
   7.960        165.83	    14.107
   7.980        165.83	    14.107
   8.000        162.50	    13.964
   8.020        167.50	    14.177
   8.040        145.83	    13.229
   8.060        158.33	    13.784
   8.080        134.17	    12.689
   8.100        147.50	    13.304
   8.120        152.50	    13.528
   8.140        160.83	    13.892
   8.160        147.50	    13.304
   8.180        153.33	    13.565
   8.200        168.33	    14.213
   8.220        165.83	    14.107
   8.240        155.83	    13.675
   8.260        150.83	    13.454
   8.280        170.83	    14.318
   8.300        146.67	    13.266
   8.320        154.17	    13.601
   8.340        176.67	    14.560
   8.360        169.17	    14.248
   8.380        160.83	    13.892
   8.400        162.50	    13.964
   8.420        177.50	    14.595
   8.440        185.00	    14.900
   8.460        177.50	    14.595
   8.480        186.67	    14.967
   8.500        183.33	    14.832
   8.520        172.50	    14.387
   8.540        190.00	    15.100
   8.560        210.00	    15.875
   8.580        208.33	    15.811
   8.600        205.83	    15.716
   8.620        224.17	    16.401
   8.640        255.00	    17.493
   8.660        283.33	    18.439
   8.680        326.67	    19.799
   8.700        331.67	    19.950
   8.720        367.50	    21.000
   8.740        370.83	    21.095
   8.760        560.83	    25.942
   8.780        723.33	    29.462
   8.800        975.83	    34.220
   8.820       1097.50	    36.290
   8.840        946.67	    33.705
   8.860        627.50	    27.441
   8.880        320.00	    19.596
   8.900        196.67	    15.362
   8.920        187.50	    15.000
   8.940        181.67	    14.765
   8.960        180.83	    14.731
   8.980        170.83	    14.318
   9.000        163.33	    14.000
   9.020        159.17	    13.820
   9.040        160.83	    13.892
   9.060        160.00	    13.856
   9.080        203.33	    15.620
   9.100        205.00	    15.684
   9.120        182.50	    14.799
   9.140        181.67	    14.765
   9.160        147.50	    13.304
   9.180        123.33	    12.166
   9.200        138.33	    12.884
   9.220        136.67	    12.806
   9.240        150.83	    13.454
   9.260        132.50	    12.610
   9.280        135.83	    12.767
   9.300        151.67	    13.491
   9.320        142.50	    13.077
   9.340        152.50	    13.528
   9.360        146.67	    13.266
   9.380        163.33	    14.000
   9.400        148.33	    13.342
   9.420        149.17	    13.379
   9.440        131.67	    12.570
   9.460        123.33	    12.166
   9.480        130.83	    12.530
   9.500        111.67	    11.576
   9.520        123.33	    12.166
   9.540        140.00	    12.961
   9.560        106.67	    11.314
   9.580        130.00	    12.490
   9.600        132.50	    12.610
   9.620        127.50	    12.369
   9.640        106.67	    11.314
   9.660        108.33	    11.402
   9.680        133.33	    12.649
   9.700        118.33	    11.916
   9.720        105.83	    11.269
   9.740        117.50	    11.874
   9.760        106.67	    11.314
   9.780        119.17	    11.958
   9.800        128.33	    12.410
   9.820        109.17	    11.446
   9.840        128.33	    12.410
   9.860        110.00	    11.489
   9.880        116.67	    11.832
   9.900        132.50	    12.610
   9.920        104.17	    11.180
   9.940        116.67	    11.832
   9.960        130.83	    12.530
   9.980        114.17	    11.705
  10.000        117.50	    11.874
  10.020        130.00	    12.490
  10.040        126.67	    12.329
  10.060         99.17	    10.909
  10.080        120.00	    12.000
  10.100        125.00	    12.247
  10.120        106.67	    11.314
  10.140         98.33	    10.863
  10.160        101.67	    11.045
  10.180        115.83	    11.790
  10.200        122.50	    12.124
  10.220        111.67	    11.576
  10.240        115.00	    11.747
  10.260        100.83	    11.000
  10.280        109.17	    11.446
  10.300        103.33	    11.136
  10.320        120.00	    12.000
  10.340        124.17	    12.207
  10.360        116.67	    11.832
  10.380        122.50	    12.124
  10.400        121.67	    12.083
  10.420        140.00	    12.961
  10.440        144.17	    13.153
  10.460        135.83	    12.767
  10.480        113.33	    11.662
  10.500        132.50	    12.610
  10.520        111.67	    11.576
  10.540        114.17	    11.705
  10.560        112.50	    11.619
  10.580        112.50	    11.619
  10.600        104.17	    11.180
  10.620        106.67	    11.314
  10.640        115.00	    11.747
  10.660        107.50	    11.358
  10.680        113.33	    11.662
  10.700        130.00	    12.490
  10.720        103.33	    11.136
  10.740        109.17	    11.446
  10.760         83.33	    10.000
  10.780        124.17	    12.207
  10.800        105.83	    11.269
  10.820        109.17	    11.446
  10.840        107.50	    11.358
  10.860        107.50	    11.358
  10.880        116.67	    11.832
  10.900        108.33	    11.402
  10.920        115.00	    11.747
  10.940        117.50	    11.874
  10.960        110.00	    11.489
  10.980        107.50	    11.358
  11.000         90.83	    10.440
  11.020        116.67	    11.832
  11.040        125.00	    12.247
  11.060        113.33	    11.662
  11.080         98.33	    10.863
  11.100        100.83	    11.000
  11.120        107.50	    11.358
  11.140        100.83	    11.000
  11.160        121.67	    12.083
  11.180        100.00	    10.954
  11.200         89.17	    10.344
  11.220        114.17	    11.705
  11.240        109.17	    11.446
  11.260        105.83	    11.269
  11.280        104.17	    11.180
  11.300        113.33	    11.662
  11.320        107.50	    11.358
  11.340        101.67	    11.045
  11.360        106.67	    11.314
  11.380        124.17	    12.207
  11.400         96.67	    10.770
  11.420        110.00	    11.489
  11.440        105.00	    11.225
  11.460        108.33	    11.402
  11.480        105.83	    11.269
  11.500         96.67	    10.770
  11.520        114.17	    11.705
  11.540        120.83	    12.042
  11.560         95.00	    10.677
  11.580        113.33	    11.662
  11.600         94.17	    10.630
  11.620        107.50	    11.358
  11.640        100.00	    10.954
  11.660        102.50	    11.091
  11.680        110.83	    11.533
  11.700        120.83	    12.042
  11.720        107.50	    11.358
  11.740        123.33	    12.166
  11.760        125.83	    12.288
  11.780        120.00	    12.000
  11.800         90.83	    10.440
  11.820         98.33	    10.863
  11.840        124.17	    12.207
  11.860        133.33	    12.649
  11.880        123.33	    12.166
  11.900        140.83	    13.000
  11.920        132.50	    12.610
  11.940        121.67	    12.083
  11.960        130.83	    12.530
  11.980        140.83	    13.000
  12.000        154.17	    13.601
  12.020        162.50	    13.964
  12.040        196.67	    15.362
  12.060        251.67	    17.378
  12.080        304.17	    19.105
  12.100        545.83	    25.593
  12.120        972.50	    34.161
  12.140       1160.83	    37.323
  12.160       1028.33	    35.128
  12.180        637.50	    27.659
  12.200        363.33	    20.881
  12.220        225.83	    16.462
  12.240        260.83	    17.692
  12.260        260.83	    17.692
  12.280        258.33	    17.607
  12.300        258.33	    17.607
  12.320        239.17	    16.941
  12.340        269.17	    17.972
  12.360        292.50	    18.735
  12.380        305.83	    19.157
  12.400        370.83	    21.095
  12.420        376.67	    21.260
  12.440        420.83	    22.472
  12.460        376.67	    21.260
  12.480        288.33	    18.601
  12.500        184.17	    14.866
  12.520        147.50	    13.304
  12.540        115.83	    11.790
  12.560        110.00	    11.489
  12.580        110.83	    11.533
  12.600        124.17	    12.207
  12.620         98.33	    10.863
  12.640         91.67	    10.488
  12.660        104.17	    11.180
  12.680         84.17	    10.050
  12.700        102.50	    11.091
  12.720         92.50	    10.536
  12.740         90.83	    10.440
  12.760        100.00	    10.954
  12.780         87.50	    10.247
  12.800         82.50	     9.950
  12.820         90.83	    10.440
  12.840         94.17	    10.630
  12.860         80.83	     9.849
  12.880         90.83	    10.440
  12.900         90.83	    10.440
  12.920         80.00	     9.798
  12.940         89.17	    10.344
  12.960         81.67	     9.899
  12.980         72.50	     9.327
  13.000         92.50	    10.536
  13.020         80.00	     9.798
  13.040        100.83	    11.000
  13.060        105.83	    11.269
  13.080        105.83	    11.269
  13.100         80.00	     9.798
  13.120         95.00	    10.677
  13.140         85.00	    10.100
  13.160         77.50	     9.644
  13.180        105.00	    11.225
  13.200         77.50	     9.644
  13.220        101.67	    11.045
  13.240        102.50	    11.091
  13.260        102.50	    11.091
  13.280        101.67	    11.045
  13.300         95.83	    10.724
  13.320         90.83	    10.440
  13.340         80.83	     9.849
  13.360        104.17	    11.180
  13.380         90.83	    10.440
  13.400         81.67	     9.899
  13.420         87.50	    10.247
  13.440         97.50	    10.817
  13.460         91.67	    10.488
  13.480         90.83	    10.440
  13.500         95.83	    10.724
  13.520         88.33	    10.296
  13.540         80.00	     9.798
  13.560         88.33	    10.296
  13.580         75.83	     9.539
  13.600         92.50	    10.536
  13.620        118.33	    11.916
  13.640         99.17	    10.909
  13.660        106.67	    11.314
  13.680         94.17	    10.630
  13.700         70.83	     9.220
  13.720         97.50	    10.817
  13.740        111.67	    11.576
  13.760        118.33	    11.916
  13.780        147.50	    13.304
  13.800        155.83	    13.675
  13.820        120.00	    12.000
  13.840        120.83	    12.042
  13.860        109.17	    11.446
  13.880         86.67	    10.198
  13.900         92.50	    10.536
  13.920         90.83	    10.440
  13.940         90.83	    10.440
  13.960         90.83	    10.440
  13.980        109.17	    11.446
  14.000         86.67	    10.198
  14.020         85.00	    10.100
  14.040         92.50	    10.536
  14.060         77.50	     9.644
  14.080         80.00	     9.798
  14.100         79.17	     9.747
  14.120         80.00	     9.798
  14.140         82.50	     9.950
  14.160         74.17	     9.434
  14.180         69.17	     9.110
  14.200         90.00	    10.392
  14.220         88.33	    10.296
  14.240         75.00	     9.487
  14.260         67.50	     9.000
  14.280         79.17	     9.747
  14.300         79.17	     9.747
  14.320         70.83	     9.220
  14.340         94.17	    10.630
  14.360         84.17	    10.050
  14.380         70.00	     9.165
  14.400         68.33	     9.055
  14.420         80.83	     9.849
  14.440         81.67	     9.899
  14.460         70.00	     9.165
  14.480         78.33	     9.695
  14.500         65.83	     8.888
  14.520         65.00	     8.832
  14.540         84.17	    10.050
  14.560         70.00	     9.165
  14.580         86.67	    10.198
  14.600         82.50	     9.950
  14.620         79.17	     9.747
  14.640         79.17	     9.747
  14.660         78.33	     9.695
  14.680         57.50	     8.307
  14.700         66.67	     8.944
  14.720         88.33	    10.296
  14.740         88.33	    10.296
  14.760         90.83	    10.440
  14.780         78.33	     9.695
  14.800         74.17	     9.434
  14.820         78.33	     9.695
  14.840         95.00	    10.677
  14.860         71.67	     9.274
  14.880         90.00	    10.392
  14.900         74.17	     9.434
  14.920         97.50	    10.817
  14.940         85.83	    10.149
  14.960         78.33	     9.695
  14.980         70.00	     9.165
  15.000         74.17	     9.434
  15.020         84.17	    10.050
  15.040         90.00	    10.392
  15.060         78.33	     9.695
  15.080         67.50	     9.000
  15.100         83.33	    10.000
  15.120         85.00	    10.100
  15.140         74.17	     9.434
  15.160         95.00	    10.677
  15.180         70.00	     9.165
  15.200         88.33	    10.296
  15.220         60.83	     8.544
  15.240         75.83	     9.539
  15.260         87.50	    10.247
  15.280         72.50	     9.327
  15.300         65.00	     8.832
  15.320         79.17	     9.747
  15.340         71.67	     9.274
  15.360         62.50	     8.660
  15.380         58.33	     8.367
  15.400         67.50	     9.000
  15.420         75.83	     9.539
  15.440         62.50	     8.660
  15.460         66.67	     8.944
  15.480         83.33	    10.000
  15.500         65.00	     8.832
  15.520         69.17	     9.110
  15.540         74.17	     9.434
  15.560         77.50	     9.644
  15.580         78.33	     9.695
  15.600         84.17	    10.050
  15.620         79.17	     9.747
  15.640         70.00	     9.165
  15.660         84.17	    10.050
  15.680         75.83	     9.539
  15.700         69.17	     9.110
  15.720         70.00	     9.165
  15.740         65.83	     8.888
  15.760         71.67	     9.274
  15.780         72.50	     9.327
  15.800         82.50	     9.950
  15.820         70.00	     9.165
  15.840         65.83	     8.888
  15.860         72.50	     9.327
  15.880         72.50	     9.327
  15.900         68.33	     9.055
  15.920         67.50	     9.000
  15.940         61.67	     8.602
  15.960         65.00	     8.832
  15.980         84.17	    10.050
  16.000         83.33	    10.000
  16.020         73.33	     9.381
  16.040         88.33	    10.296
  16.060         61.67	     8.602
  16.080         75.00	     9.487
  16.100         66.67	     8.944
  16.120         71.67	     9.274
  16.140         64.17	     8.775
  16.160         68.33	     9.055
  16.180         81.67	     9.899
  16.200         85.00	    10.100
  16.220         74.17	     9.434
  16.240         60.83	     8.544
  16.260         51.67	     7.874
  16.280         68.33	     9.055
  16.300         59.17	     8.426
  16.320         64.17	     8.775
  16.340         78.33	     9.695
  16.360         72.50	     9.327
  16.380         82.50	     9.950
  16.400         66.67	     8.944
  16.420         68.33	     9.055
  16.440         56.67	     8.246
  16.460         72.50	     9.327
  16.480         65.83	     8.888
  16.500         52.50	     7.937
  16.520         70.83	     9.220
  16.540         67.50	     9.000
  16.560         52.50	     7.937
  16.580         67.50	     9.000
  16.600         66.67	     8.944
  16.620         68.33	     9.055
  16.640         65.00	     8.832
  16.660         77.50	     9.644
  16.680         60.00	     8.485
  16.700         81.67	     9.899
  16.720         69.17	     9.110
  16.740         67.50	     9.000
  16.760         71.67	     9.274
  16.780         73.33	     9.381
  16.800         73.33	     9.381
  16.820         70.83	     9.220
  16.840         62.50	     8.660
  16.860         82.50	     9.950
  16.880         63.33	     8.718
  16.900         71.67	     9.274
  16.920         64.17	     8.775
  16.940         64.17	     8.775
  16.960         57.50	     8.307
  16.980         75.00	     9.487
  17.000         66.67	     8.944
  17.020         80.00	     9.798
  17.040         71.67	     9.274
  17.060         83.33	    10.000
  17.080         60.83	     8.544
  17.100         68.33	     9.055
  17.120         68.33	     9.055
  17.140         70.00	     9.165
  17.160         80.00	     9.798
  17.180         76.67	     9.592
  17.200         61.67	     8.602
  17.220         63.33	     8.718
  17.240         72.50	     9.327
  17.260         73.33	     9.381
  17.280         71.67	     9.274
  17.300         65.83	     8.888
  17.320         70.83	     9.220
  17.340         55.00	     8.124
  17.360         63.33	     8.718
  17.380         82.50	     9.950
  17.400         75.00	     9.487
  17.420         71.67	     9.274
  17.440         88.33	    10.296
  17.460         70.00	     9.165
  17.480         67.50	     9.000
  17.500         74.17	     9.434
  17.520         70.83	     9.220
  17.540         87.50	    10.247
  17.560         81.67	     9.899
  17.580         85.00	    10.100
  17.600         83.33	    10.000
  17.620        101.67	    11.045
  17.640         90.83	    10.440
  17.660        119.17	    11.958
  17.680        133.33	    12.649
  17.700        200.00	    15.492
  17.720        300.83	    19.000
  17.740        346.67	    20.396
  17.760        414.17	    22.293
  17.780        430.00	    22.716
  17.800        325.83	    19.774
  17.820        242.50	    17.059
  17.840        172.50	    14.387
  17.860        122.50	    12.124
  17.880         85.83	    10.149
  17.900         82.50	     9.950
  17.920         80.00	     9.798
  17.940         89.17	    10.344
  17.960         92.50	    10.536
  17.980         87.50	    10.247
  18.000         96.67	    10.770
  18.020         70.83	     9.220
  18.040         68.33	     9.055
  18.060         73.33	     9.381
  18.080         85.00	    10.100
  18.100         67.50	     9.000
  18.120         77.50	     9.644
  18.140         75.00	     9.487
  18.160         68.33	     9.055
  18.180         66.67	     8.944
  18.200         75.00	     9.487
  18.220         70.00	     9.165
  18.240         73.33	     9.381
  18.260         74.17	     9.434
  18.280         82.50	     9.950
  18.300         97.50	    10.817
  18.320         87.50	    10.247
  18.340        118.33	    11.916
  18.360        117.50	    11.874
  18.380        105.00	    11.225
  18.400        103.33	    11.136
  18.420        105.83	    11.269
  18.440        107.50	    11.358
  18.460        110.00	    11.489
  18.480        144.17	    13.153
  18.500        149.17	    13.379
  18.520        136.67	    12.806
  18.540        134.17	    12.689
  18.560        116.67	    11.832
  18.580        108.33	    11.402
  18.600        111.67	    11.576
  18.620        159.17	    13.820
  18.640        128.33	    12.410
  18.660        168.33	    14.213
  18.680        160.00	    13.856
  18.700        176.67	    14.560
  18.720        182.50	    14.799
  18.740        190.00	    15.100
  18.760        162.50	    13.964
  18.780        147.50	    13.304
  18.800        113.33	    11.662
  18.820        100.83	    11.000
  18.840         90.83	    10.440
  18.860         67.50	     9.000
  18.880         72.50	     9.327
  18.900         78.33	     9.695
  18.920         87.50	    10.247
  18.940         75.00	     9.487
  18.960         79.17	     9.747
  18.980         65.00	     8.832
  19.000         81.67	     9.899
  19.020         64.17	     8.775
  19.040         80.00	     9.798
  19.060         76.67	     9.592
  19.080         72.50	     9.327
  19.100         67.50	     9.000
  19.120         74.17	     9.434
  19.140         69.17	     9.110
  19.160         85.83	    10.149
  19.180         75.83	     9.539
  19.200         76.67	     9.592
  19.220         62.50	     8.660
  19.240         71.67	     9.274
  19.260         67.50	     9.000
  19.280         84.17	    10.050
  19.300         68.33	     9.055
  19.320         85.83	    10.149
  19.340         70.83	     9.220
  19.360         95.00	    10.677
  19.380         68.33	     9.055
  19.400         77.50	     9.644
  19.420         68.33	     9.055
  19.440         65.83	     8.888
  19.460         70.00	     9.165
  19.480         75.00	     9.487
  19.500         75.83	     9.539
  19.520         71.67	     9.274
  19.540         62.50	     8.660
  19.560         89.17	    10.344
  19.580         83.33	    10.000
  19.600         80.83	     9.849
  19.620         65.83	     8.888
  19.640         80.00	     9.798
  19.660         83.33	    10.000
  19.680         86.67	    10.198
  19.700         80.00	     9.798
  19.720         87.50	    10.247
  19.740         94.17	    10.630
  19.760         84.17	    10.050
  19.780        105.83	    11.269
  19.800         95.83	    10.724
  19.820         95.83	    10.724
  19.840         95.00	    10.677
  19.860         92.50	    10.536
  19.880        100.83	    11.000
  19.900         72.50	     9.327
  19.920         91.67	    10.488
  19.940         80.00	     9.798
  19.960         92.50	    10.536
  19.980         83.33	    10.000
  20.000         70.83	     9.220
  20.020         74.17	     9.434
  20.040         79.17	     9.747
  20.060         87.50	    10.247
  20.080         72.50	     9.327
  20.100         75.83	     9.539
  20.120         79.17	     9.747
  20.140         85.00	    10.100
  20.160         69.17	     9.110
  20.180         73.33	     9.381
  20.200         75.83	     9.539
  20.220         68.33	     9.055
  20.240         60.00	     8.485
  20.260         63.33	     8.718
  20.280         74.17	     9.434
  20.300         75.00	     9.487
  20.320         62.50	     8.660
  20.340         65.83	     8.888
  20.360         61.67	     8.602
  20.380         74.17	     9.434
  20.400         66.67	     8.944
  20.420         65.83	     8.888
  20.440         63.33	     8.718
  20.460         58.33	     8.367
  20.480         70.83	     9.220
  20.500         80.00	     9.798
  20.520         53.33	     8.000
  20.540         88.33	    10.296
  20.560         80.83	     9.849
  20.580         79.17	     9.747
  20.600         76.67	     9.592
  20.620         68.33	     9.055
  20.640         93.33	    10.583
  20.660         91.67	    10.488
  20.680        135.00	    12.728
  20.700        176.67	    14.560
  20.720        219.17	    16.217
  20.740        328.33	    19.849
  20.760        518.33	    24.940
  20.780        731.67	    29.631
  20.800        671.67	    28.390
  20.820        558.33	    25.884
  20.840        467.50	    23.685
  20.860        322.50	    19.672
  20.880        220.83	    16.279
  20.900        189.17	    15.067
  20.920        233.33	    16.733
  20.940        265.00	    17.833
  20.960        255.83	    17.521
  20.980        195.00	    15.297
  21.000        177.50	    14.595
  21.020        122.50	    12.124
  21.040         91.67	    10.488
  21.060         72.50	     9.327
  21.080         85.00	    10.100
  21.100         75.83	     9.539
  21.120         75.83	     9.539
  21.140         88.33	    10.296
  21.160         80.83	     9.849
  21.180         61.67	     8.602
  21.200         61.67	     8.602
  21.220         62.50	     8.660
  21.240         62.50	     8.660
  21.260         65.83	     8.888
  21.280         67.50	     9.000
  21.300         68.33	     9.055
  21.320         63.33	     8.718
  21.340         59.17	     8.426
  21.360         74.17	     9.434
  21.380         61.67	     8.602
  21.400         56.67	     8.246
  21.420         56.67	     8.246
  21.440         71.67	     9.274
  21.460         66.67	     8.944
  21.480         71.67	     9.274
  21.500         75.83	     9.539
  21.520         70.00	     9.165
  21.540         78.33	     9.695
  21.560         54.17	     8.062
  21.580         54.17	     8.062
  21.600         61.67	     8.602
  21.620         66.67	     8.944
  21.640         64.17	     8.775
  21.660         65.00	     8.832
  21.680         56.67	     8.246
  21.700         59.17	     8.426
  21.720         75.00	     9.487
  21.740         78.33	     9.695
  21.760         64.17	     8.775
  21.780         65.00	     8.832
  21.800         64.17	     8.775
  21.820         66.67	     8.944
  21.840         71.67	     9.274
  21.860         66.67	     8.944
  21.880        103.33	    11.136
  21.900         97.50	    10.817
  21.920        129.17	    12.450
  21.940        174.17	    14.457
  21.960        207.50	    15.780
  21.980        236.67	    16.852
  22.000        215.00	    16.062
  22.020        178.33	    14.629
  22.040        160.83	    13.892
  22.060        141.67	    13.038
  22.080        120.00	    12.000
  22.100        108.33	    11.402
  22.120         67.50	     9.000
  22.140         80.00	     9.798
  22.160         62.50	     8.660
  22.180         66.67	     8.944
  22.200         66.67	     8.944
  22.220         75.00	     9.487
  22.240         61.67	     8.602
  22.260         72.50	     9.327
  22.280         73.33	     9.381
  22.300         66.67	     8.944
  22.320         65.00	     8.832
  22.340         75.83	     9.539
  22.360         75.83	     9.539
  22.380         82.50	     9.950
  22.400         83.33	    10.000
  22.420        112.50	    11.619
  22.440        111.67	    11.576
  22.460        101.67	    11.045
  22.480        122.50	    12.124
  22.500        112.50	    11.619
  22.520        100.00	    10.954
  22.540         75.83	     9.539
  22.560         76.67	     9.592
  22.580         75.00	     9.487
  22.600         54.17	     8.062
  22.620         79.17	     9.747
  22.640         70.83	     9.220
  22.660         79.17	     9.747
  22.680         70.00	     9.165
  22.700         63.33	     8.718
  22.720         64.17	     8.775
  22.740         72.50	     9.327
  22.760         91.67	    10.488
  22.780         72.50	     9.327
  22.800         84.17	    10.050
  22.820         81.67	     9.899
  22.840         93.33	    10.583
  22.860        104.17	    11.180
  22.880         87.50	    10.247
  22.900         80.83	     9.849
  22.920         74.17	     9.434
  22.940         95.00	    10.677
  22.960         98.33	    10.863
  22.980         89.17	    10.344
  23.000         65.00	     8.832
  23.020         85.00	    10.100
  23.040         73.33	     9.381
  23.060         80.00	     9.798
  23.080         64.17	     8.775
  23.100         65.83	     8.888
  23.120         65.00	     8.832
  23.140         61.67	     8.602
  23.160         70.83	     9.220
  23.180         70.83	     9.220
  23.200         60.83	     8.544
  23.220         68.33	     9.055
  23.240         83.33	    10.000
  23.260         69.17	     9.110
  23.280         75.00	     9.487
  23.300         69.17	     9.110
  23.320         77.50	     9.644
  23.340         77.50	     9.644
  23.360         91.67	    10.488
  23.380         85.83	    10.149
  23.400         97.50	    10.817
  23.420        115.83	    11.790
  23.440        154.17	    13.601
  23.460        193.33	    15.232
  23.480        270.00	    18.000
  23.500        257.50	    17.578
  23.520        213.33	    16.000
  23.540        177.50	    14.595
  23.560        162.50	    13.964
  23.580        157.50	    13.748
  23.600         96.67	    10.770
  23.620        120.83	    12.042
  23.640        111.67	    11.576
  23.660        126.67	    12.329
  23.680         96.67	    10.770
  23.700         93.33	    10.583
  23.720         90.00	    10.392
  23.740         99.17	    10.909
  23.760        105.00	    11.225
  23.780         81.67	     9.899
  23.800         88.33	    10.296
  23.820         84.17	    10.050
  23.840         95.00	    10.677
  23.860         65.00	     8.832
  23.880         83.33	    10.000
  23.900         66.67	     8.944
  23.920         76.67	     9.592
  23.940        102.50	    11.091
  23.960        107.50	    11.358
  23.980        109.17	    11.446
  24.000        109.17	    11.446
  24.020         95.83	    10.724
  24.040        110.83	    11.533
  24.060        109.17	    11.446
  24.080        110.83	    11.533
  24.100        110.00	    11.489
  24.120        100.83	    11.000
  24.140        123.33	    12.166
  24.160        135.00	    12.728
  24.180        143.33	    13.115
  24.200        136.67	    12.806
  24.220        146.67	    13.266
  24.240        166.67	    14.142
  24.260        163.33	    14.000
  24.280        120.83	    12.042
  24.300        120.83	    12.042
  24.320        120.00	    12.000
  24.340        106.67	    11.314
  24.360        107.50	    11.358
  24.380         98.33	    10.863
  24.400        124.17	    12.207
  24.420        124.17	    12.207
  24.440        174.17	    14.457
  24.460        226.67	    16.492
  24.480        289.17	    18.628
  24.500        327.50	    19.824
  24.520        326.67	    19.799
  24.540        340.83	    20.224
  24.560        351.67	    20.543
  24.580        356.67	    20.688
  24.600        263.33	    17.776
  24.620        238.33	    16.912
  24.640        223.33	    16.371
  24.660        165.00	    14.071
  24.680        164.17	    14.036
  24.700        152.50	    13.528
  24.720        145.00	    13.191
  24.740        157.50	    13.748
  24.760        156.67	    13.711
  24.780        190.00	    15.100
  24.800        158.33	    13.784
  24.820        169.17	    14.248
  24.840        144.17	    13.153
  24.860        130.83	    12.530
  24.880        120.83	    12.042
  24.900        125.00	    12.247
  24.920        148.33	    13.342
  24.940        175.83	    14.526
  24.960        170.83	    14.318
  24.980        155.00	    13.638
  25.000        163.33	    14.000
  25.020        190.83	    15.133
  25.040        203.33	    15.620
  25.060        275.00	    18.166
  25.080        275.00	    18.166
  25.100        280.00	    18.330
  25.120        320.83	    19.621
  25.140        245.83	    17.176
  25.160        227.50	    16.523
  25.180        195.83	    15.330
  25.200        132.50	    12.610
  25.220        136.67	    12.806
  25.240        127.50	    12.369
  25.260        130.00	    12.490
  25.280        140.83	    13.000
  25.300        222.50	    16.340
  25.320        241.67	    17.029
  25.340        203.33	    15.620
  25.360        211.67	    15.937
  25.380        203.33	    15.620
  25.400        198.33	    15.427
  25.420        205.83	    15.716
  25.440        190.83	    15.133
  25.460        189.17	    15.067
  25.480        168.33	    14.213
  25.500        181.67	    14.765
  25.520        195.00	    15.297
  25.540        138.33	    12.884
  25.560        162.50	    13.964
  25.580        149.17	    13.379
  25.600        145.83	    13.229
  25.620        122.50	    12.124
  25.640        123.33	    12.166
  25.660        127.50	    12.369
  25.680         96.67	    10.770
  25.700         90.83	    10.440
  25.720         85.83	    10.149
  25.740         90.00	    10.392
  25.760         80.00	     9.798
  25.780         90.00	    10.392
  25.800         82.50	     9.950
  25.820         90.00	    10.392
  25.840         90.00	    10.392
  25.860         82.50	     9.950
  25.880         85.00	    10.100
  25.900         79.17	     9.747
  25.920         75.83	     9.539
  25.940         75.83	     9.539
  25.960         73.33	     9.381
  25.980         82.50	     9.950
  26.000         88.33	    10.296
  26.020         78.33	     9.695
  26.040         86.67	    10.198
  26.060         85.00	    10.100
  26.080         72.50	     9.327
  26.100         94.17	    10.630
  26.120         90.00	    10.392
  26.140         77.50	     9.644
  26.160         90.83	    10.440
  26.180        105.00	    11.225
  26.200         99.17	    10.909
  26.220        126.67	    12.329
  26.240         94.17	    10.630
  26.260        133.33	    12.649
  26.280        135.83	    12.767
  26.300        190.00	    15.100
  26.320        420.00	    22.450
  26.340        553.33	    25.768
  26.360        441.67	    23.022
  26.380        378.33	    21.307
  26.400        455.83	    23.388
  26.420        420.00	    22.450
  26.440        371.67	    21.119
  26.460        372.50	    21.142
  26.480        485.00	    24.125
  26.500        679.17	    28.548
  26.520       1189.17	    37.776
  26.540       2533.33	    55.136
  26.560       4376.67	    72.471
  26.580       4780.00	    75.736
  26.600       3650.00	    66.182
  26.620       2689.17	    56.807
  26.640       2674.17	    56.648
  26.660       2059.17	    49.709
  26.680       1037.50	    35.285
  26.700        555.00	    25.807
  26.720        548.33	    25.652
  26.740        670.83	    28.373
  26.760        810.83	    31.193
  26.780        905.00	    32.955
  26.800       1067.50	    35.791
  26.820       1109.17	    36.483
  26.840       1034.17	    35.228
  26.860        821.67	    31.401
  26.880        658.33	    28.107
  26.900        562.50	    25.981
  26.920        401.67	    21.954
  26.940        309.17	    19.261
  26.960        304.17	    19.105
  26.980        319.17	    19.570
  27.000        280.00	    18.330
  27.020        275.83	    18.193
  27.040        272.50	    18.083
  27.060        220.83	    16.279
  27.080        195.00	    15.297
  27.100        137.50	    12.845
  27.120        125.00	    12.247
  27.140        122.50	    12.124
  27.160        112.50	    11.619
  27.180         90.83	    10.440
  27.200         85.00	    10.100
  27.220         95.83	    10.724
  27.240         97.50	    10.817
  27.260         86.67	    10.198
  27.280         91.67	    10.488
  27.300         85.00	    10.100
  27.320        104.17	    11.180
  27.340         93.33	    10.583
  27.360        108.33	    11.402
  27.380        125.83	    12.288
  27.400        146.67	    13.266
  27.420        150.00	    13.416
  27.440        200.00	    15.492
  27.460        261.67	    17.720
  27.480        258.33	    17.607
  27.500        191.67	    15.166
  27.520        164.17	    14.036
  27.540        170.00	    14.283
  27.560        157.50	    13.748
  27.580        130.83	    12.530
  27.600        177.50	    14.595
  27.620        210.00	    15.875
  27.640        240.83	    17.000
  27.660        264.17	    17.804
  27.680        301.67	    19.026
  27.700        365.83	    20.952
  27.720        332.50	    19.975
  27.740        312.50	    19.365
  27.760        339.17	    20.174
  27.780        360.83	    20.809
  27.800        447.50	    23.173
  27.820        514.17	    24.839
  27.840        591.67	    26.646
  27.860        647.50	    27.875
  27.880        814.17	    31.257
  27.900        908.33	    33.015
  27.920        694.17	    28.862
  27.940        490.00	    24.249
  27.960        498.33	    24.454
  27.980        475.00	    23.875
  28.000        367.50	    21.000
  28.020        278.33	    18.276
  28.040        240.83	    17.000
  28.060        230.00	    16.613
  28.080        231.67	    16.673
  28.100        216.67	    16.125
  28.120        195.83	    15.330
  28.140        170.00	    14.283
  28.160        146.67	    13.266
  28.180        134.17	    12.689
  28.200        140.83	    13.000
  28.220        125.00	    12.247
  28.240        125.83	    12.288
  28.260        123.33	    12.166
  28.280         91.67	    10.488
  28.300         95.00	    10.677
  28.320         88.33	    10.296
  28.340         85.00	    10.100
  28.360         76.67	     9.592
  28.380         66.67	     8.944
  28.400         80.83	     9.849
  28.420         79.17	     9.747
  28.440         74.17	     9.434
  28.460         83.33	    10.000
  28.480         95.00	    10.677
  28.500        102.50	    11.091
  28.520        115.00	    11.747
  28.540        134.17	    12.689
  28.560        131.67	    12.570
  28.580        105.83	    11.269
  28.600        112.50	    11.619
  28.620        110.83	    11.533
  28.640        121.67	    12.083
  28.660        102.50	    11.091
  28.680        109.17	    11.446
  28.700        104.17	    11.180
  28.720         69.17	     9.110
  28.740         88.33	    10.296
  28.760         84.17	    10.050
  28.780         80.00	     9.798
  28.800         68.33	     9.055
  28.820         70.83	     9.220
  28.840         60.00	     8.485
  28.860         65.83	     8.888
  28.880         65.00	     8.832
  28.900         52.50	     7.937
  28.920         51.67	     7.874
  28.940         61.67	     8.602
  28.960         58.33	     8.367
  28.980         64.17	     8.775
  29.000         53.33	     8.000
  29.020         54.17	     8.062
  29.040         64.17	     8.775
  29.060         65.83	     8.888
  29.080         64.17	     8.775
  29.100         55.00	     8.124
  29.120         67.50	     9.000
  29.140         55.83	     8.185
  29.160         53.33	     8.000
  29.180         69.17	     9.110
  29.200         51.67	     7.874
  29.220         48.33	     7.616
  29.240         62.50	     8.660
  29.260         66.67	     8.944
  29.280         50.83	     7.810
  29.300         51.67	     7.874
  29.320         56.67	     8.246
  29.340         60.00	     8.485
  29.360         51.67	     7.874
  29.380         60.00	     8.485
  29.400         65.00	     8.832
  29.420         49.17	     7.681
  29.440         73.33	     9.381
  29.460         65.83	     8.888
  29.480         70.83	     9.220
  29.500         70.83	     9.220
  29.520         70.83	     9.220
  29.540         88.33	    10.296
  29.560         70.83	     9.220
  29.580         72.50	     9.327
  29.600         81.67	     9.899
  29.620         82.50	     9.950
  29.640         90.00	    10.392
  29.660        109.17	    11.446
  29.680        110.00	    11.489
  29.700        128.33	    12.410
  29.720        159.17	    13.820
  29.740        163.33	    14.000
  29.760        141.67	    13.038
  29.780        145.83	    13.229
  29.800        143.33	    13.115
  29.820        142.50	    13.077
  29.840        132.50	    12.610
  29.860        106.67	    11.314
  29.880        112.50	    11.619
  29.900        113.33	    11.662
  29.920         88.33	    10.296
  29.940         97.50	    10.817
  29.960         97.50	    10.817
  29.980         98.33	    10.863
  30.000        102.50	    11.091
  30.020         79.17	     9.747
  30.040         84.17	    10.050
  30.060         98.33	    10.863
  30.080        100.83	    11.000
  30.100         90.83	    10.440
  30.120        111.67	    11.576
  30.140        112.50	    11.619
  30.160        102.50	    11.091
  30.180        100.83	    11.000
  30.200         94.17	    10.630
  30.220         84.17	    10.050
  30.240         90.00	    10.392
  30.260         91.67	    10.488
  30.280        108.33	    11.402
  30.300        102.50	    11.091
  30.320        115.83	    11.790
  30.340        107.50	    11.358
  30.360        135.00	    12.728
  30.380        130.00	    12.490
  30.400        151.67	    13.491
  30.420        152.50	    13.528
  30.440        146.67	    13.266
  30.460        115.00	    11.747
  30.480        100.83	    11.000
  30.500         91.67	    10.488
  30.520         95.00	    10.677
  30.540         80.00	     9.798
  30.560         79.17	     9.747
  30.580         68.33	     9.055
  30.600         60.83	     8.544
  30.620         74.17	     9.434
  30.640         60.00	     8.485
  30.660         73.33	     9.381
  30.680         65.83	     8.888
  30.700         69.17	     9.110
  30.720        103.33	    11.136
  30.740         92.50	    10.536
  30.760        109.17	    11.446
  30.780         87.50	    10.247
  30.800        115.83	    11.790
  30.820        101.67	    11.045
  30.840         85.83	    10.149
  30.860         68.33	     9.055
  30.880         65.83	     8.888
  30.900         70.00	     9.165
  30.920         65.00	     8.832
  30.940         78.33	     9.695
  30.960         81.67	     9.899
  30.980         65.83	     8.888
  31.000         80.00	     9.798
  31.020         90.83	    10.440
  31.040         70.83	     9.220
  31.060         92.50	    10.536
  31.080         86.67	    10.198
  31.100         91.67	    10.488
  31.120        120.00	    12.000
  31.140        155.83	    13.675
  31.160        163.33	    14.000
  31.180        153.33	    13.565
  31.200        171.67	    14.353
  31.220        145.00	    13.191
  31.240        128.33	    12.410
  31.260        126.67	    12.329
  31.280        118.33	    11.916
  31.300         95.00	    10.677
  31.320         67.50	     9.000
  31.340         78.33	     9.695
  31.360         74.17	     9.434
  31.380         78.33	     9.695
  31.400         69.17	     9.110
  31.420         69.17	     9.110
  31.440         81.67	     9.899
  31.460         75.00	     9.487
  31.480         80.83	     9.849
  31.500         73.33	     9.381
  31.520         95.83	    10.724
  31.540         80.00	     9.798
  31.560        107.50	    11.358
  31.580         96.67	    10.770
  31.600         77.50	     9.644
  31.620         85.83	    10.149
  31.640         56.67	     8.246
  31.660         71.67	     9.274
  31.680         62.50	     8.660
  31.700         64.17	     8.775
  31.720         60.83	     8.544
  31.740         59.17	     8.426
  31.760         51.67	     7.874
  31.780         42.50	     7.141
  31.800         65.83	     8.888
  31.820         60.00	     8.485
  31.840         65.83	     8.888
  31.860         65.83	     8.888
  31.880         67.50	     9.000
  31.900         57.50	     8.307
  31.920         70.83	     9.220
  31.940         67.50	     9.000
  31.960         85.00	    10.100
  31.980         66.67	     8.944
  32.000         74.17	     9.434
  32.020         76.67	     9.592
  32.040         65.00	     8.832
  32.060         58.33	     8.367
  32.080         74.17	     9.434
  32.100         61.67	     8.602
  32.120         85.00	    10.100
  32.140         64.17	     8.775
  32.160         76.67	     9.592
  32.180         72.50	     9.327
  32.200         90.83	    10.440
  32.220         99.17	    10.909
  32.240         94.17	    10.630
  32.260         93.33	    10.583
  32.280         70.00	     9.165
  32.300         75.00	     9.487
  32.320         66.67	     8.944
  32.340         61.67	     8.602
  32.360         55.83	     8.185
  32.380         45.83	     7.416
  32.400         45.83	     7.416
  32.420         46.67	     7.483
  32.440         47.50	     7.550
  32.460         57.50	     8.307
  32.480         66.67	     8.944
  32.500         51.67	     7.874
  32.520         53.33	     8.000
  32.540         46.67	     7.483
  32.560         47.50	     7.550
  32.580         44.17	     7.280
  32.600         45.83	     7.416
  32.620         51.67	     7.874
  32.640         40.83	     7.000
  32.660         51.67	     7.874
  32.680         50.83	     7.810
  32.700         57.50	     8.307
  32.720         42.50	     7.141
  32.740         40.83	     7.000
  32.760         53.33	     8.000
  32.780         48.33	     7.616
  32.800         44.17	     7.280
  32.820         43.33	     7.211
  32.840         49.17	     7.681
  32.860         48.33	     7.616
  32.880         46.67	     7.483
  32.900         47.50	     7.550
  32.920         70.83	     9.220
  32.940         49.17	     7.681
  32.960         55.00	     8.124
  32.980         71.67	     9.274
  33.000         65.00	     8.832
  33.020         60.00	     8.485
  33.040         40.00	     6.928
  33.060         59.17	     8.426
  33.080         45.00	     7.348
  33.100         45.83	     7.416
  33.120         56.67	     8.246
  33.140         59.17	     8.426
  33.160         50.83	     7.810
  33.180         45.83	     7.416
  33.200         50.83	     7.810
  33.220         32.50	     6.245
  33.240         39.17	     6.856
  33.260         60.83	     8.544
  33.280         54.17	     8.062
  33.300         48.33	     7.616
  33.320         53.33	     8.000
  33.340         45.00	     7.348
  33.360         45.00	     7.348
  33.380         48.33	     7.616
  33.400         48.33	     7.616
  33.420         54.17	     8.062
  33.440         65.00	     8.832
  33.460         60.00	     8.485
  33.480         69.17	     9.110
  33.500         53.33	     8.000
  33.520         54.17	     8.062
  33.540         49.17	     7.681
  33.560         45.83	     7.416
  33.580         47.50	     7.550
  33.600         49.17	     7.681
  33.620         45.00	     7.348
  33.640         52.50	     7.937
  33.660         66.67	     8.944
  33.680         50.00	     7.746
  33.700         50.83	     7.810
  33.720         59.17	     8.426
  33.740         75.83	     9.539
  33.760         64.17	     8.775
  33.780         69.17	     9.110
  33.800         56.67	     8.246
  33.820         70.00	     9.165
  33.840         60.00	     8.485
  33.860         65.00	     8.832
  33.880         57.50	     8.307
  33.900         70.00	     9.165
  33.920         61.67	     8.602
  33.940         52.50	     7.937
  33.960         68.33	     9.055
  33.980         66.67	     8.944
  34.000         66.67	     8.944
  34.020         65.83	     8.888
  34.040         58.33	     8.367
  34.060         68.33	     9.055
  34.080         60.00	     8.485
  34.100         53.33	     8.000
  34.120         56.67	     8.246
  34.140         52.50	     7.937
  34.160         73.33	     9.381
  34.180         50.00	     7.746
  34.200         54.17	     8.062
  34.220         53.33	     8.000
  34.240         60.83	     8.544
  34.260         55.83	     8.185
  34.280         65.00	     8.832
  34.300         61.67	     8.602
  34.320         67.50	     9.000
  34.340         71.67	     9.274
  34.360         63.33	     8.718
  34.380         61.67	     8.602
  34.400         75.83	     9.539
  34.420         94.17	    10.630
  34.440         81.67	     9.899
  34.460         97.50	    10.817
  34.480         82.50	     9.950
  34.500         69.17	     9.110
  34.520         95.00	    10.677
  34.540         78.33	     9.695
  34.560         73.33	     9.381
  34.580         74.17	     9.434
  34.600         66.67	     8.944
  34.620         72.50	     9.327
  34.640         60.83	     8.544
  34.660         82.50	     9.950
  34.680         85.00	    10.100
  34.700         82.50	     9.950
  34.720         84.17	    10.050
  34.740         72.50	     9.327
  34.760        105.00	    11.225
  34.780         86.67	    10.198
  34.800         88.33	    10.296
  34.820         96.67	    10.770
  34.840        102.50	    11.091
  34.860         99.17	    10.909
  34.880        124.17	    12.207
  34.900        136.67	    12.806
  34.920        130.00	    12.490
  34.940        130.83	    12.530
  34.960        140.83	    13.000
  34.980        101.67	    11.045
  35.000        123.33	    12.166
  35.020         95.83	    10.724
  35.040        106.67	    11.314
  35.060         94.17	    10.630
  35.080         80.83	     9.849
  35.100         72.50	     9.327
  35.120         83.33	    10.000
  35.140        105.00	    11.225
  35.160         99.17	    10.909
  35.180         89.17	    10.344
  35.200         75.83	     9.539
  35.220         87.50	    10.247
  35.240         80.00	     9.798
  35.260         84.17	    10.050
  35.280         83.33	    10.000
  35.300         87.50	    10.247
  35.320         71.67	     9.274
  35.340         99.17	    10.909
  35.360        105.00	    11.225
  35.380         88.33	    10.296
  35.400        108.33	    11.402
  35.420        120.83	    12.042
  35.440        131.67	    12.570
  35.460        156.67	    13.711
  35.480        161.67	    13.928
  35.500        150.83	    13.454
  35.520        163.33	    14.000
  35.540        137.50	    12.845
  35.560        152.50	    13.528
  35.580        120.00	    12.000
  35.600        131.67	    12.570
  35.620        120.83	    12.042
  35.640        103.33	    11.136
  35.660         72.50	     9.327
  35.680         84.17	    10.050
  35.700         75.00	     9.487
  35.720         66.67	     8.944
  35.740         68.33	     9.055
  35.760         58.33	     8.367
  35.780         72.50	     9.327
  35.800         65.00	     8.832
  35.820         51.67	     7.874
  35.840         60.83	     8.544
  35.860         70.00	     9.165
  35.880         61.67	     8.602
  35.900         73.33	     9.381
  35.920         68.33	     9.055
  35.940         81.67	     9.899
  35.960         89.17	    10.344
  35.980         86.67	    10.198
  36.000        109.17	    11.446
  36.020        102.50	    11.091
  36.040        105.00	    11.225
  36.060        127.50	    12.369
  36.080         99.17	    10.909
  36.100         98.33	    10.863
  36.120         76.67	     9.592
  36.140         90.83	    10.440
  36.160         74.17	     9.434
  36.180         64.17	     8.775
  36.200         72.50	     9.327
  36.220         51.67	     7.874
  36.240         69.17	     9.110
  36.260         60.83	     8.544
  36.280         65.83	     8.888
  36.300         67.50	     9.000
  36.320         59.17	     8.426
  36.340         79.17	     9.747
  36.360         92.50	    10.536
  36.380         87.50	    10.247
  36.400        111.67	    11.576
  36.420        170.00	    14.283
  36.440        253.33	    17.436
  36.460        387.50	    21.564
  36.480        402.50	    21.977
  36.500        295.00	    18.815
  36.520        215.00	    16.062
  36.540        226.67	    16.492
  36.560        239.17	    16.941
  36.580        241.67	    17.029
  36.600        177.50	    14.595
  36.620        114.17	    11.705
  36.640        105.83	    11.269
  36.660         84.17	    10.050
  36.680         88.33	    10.296
  36.700         79.17	     9.747
  36.720         79.17	     9.747
  36.740         78.33	     9.695
  36.760         69.17	     9.110
  36.780         63.33	     8.718
  36.800         63.33	     8.718
  36.820         60.83	     8.544
  36.840         60.00	     8.485
  36.860         63.33	     8.718
  36.880         48.33	     7.616
  36.900         73.33	     9.381
  36.920         50.00	     7.746
  36.940         49.17	     7.681
  36.960         65.83	     8.888
  36.980         66.67	     8.944
  37.000         52.50	     7.937
  37.020         50.83	     7.810
  37.040         66.67	     8.944
  37.060         54.17	     8.062
  37.080         67.50	     9.000
  37.100         95.00	    10.677
  37.120         90.83	    10.440
  37.140         76.67	     9.592
  37.160         72.50	     9.327
  37.180         89.17	    10.344
  37.200         75.00	     9.487
  37.220         75.00	     9.487
  37.240         67.50	     9.000
  37.260         66.67	     8.944
  37.280         55.83	     8.185
  37.300         63.33	     8.718
  37.320         74.17	     9.434
  37.340         63.33	     8.718
  37.360         57.50	     8.307
  37.380         64.17	     8.775
  37.400         72.50	     9.327
  37.420         79.17	     9.747
  37.440         65.83	     8.888
  37.460         70.00	     9.165
  37.480         63.33	     8.718
  37.500         69.17	     9.110
  37.520         90.83	    10.440
  37.540         96.67	    10.770
  37.560         88.33	    10.296
  37.580         78.33	     9.695
  37.600         82.50	     9.950
  37.620         85.00	    10.100
  37.640         86.67	    10.198
  37.660         70.83	     9.220
  37.680         73.33	     9.381
  37.700         83.33	    10.000
  37.720         65.83	     8.888
  37.740         67.50	     9.000
  37.760         53.33	     8.000
  37.780         59.17	     8.426
  37.800         53.33	     8.000
  37.820         58.33	     8.367
  37.840         58.33	     8.367
  37.860         59.17	     8.426
  37.880         60.00	     8.485
  37.900         89.17	    10.344
  37.920         74.17	     9.434
  37.940         76.67	     9.592
  37.960         85.83	    10.149
  37.980         87.50	    10.247
  38.000         70.00	     9.165
  38.020         58.33	     8.367
  38.040         46.67	     7.483
  38.060         59.17	     8.426
  38.080         57.50	     8.307
  38.100         47.50	     7.550
  38.120         38.33	     6.782
  38.140         42.50	     7.141
  38.160         40.00	     6.928
  38.180         49.17	     7.681
  38.200         41.67	     7.071
  38.220         39.17	     6.856
  38.240         37.50	     6.708
  38.260         43.33	     7.211
  38.280         35.00	     6.481
  38.300         50.00	     7.746
  38.320         64.17	     8.775
  38.340         51.67	     7.874
  38.360         62.50	     8.660
  38.380         65.83	     8.888
  38.400         60.00	     8.485
  38.420         50.00	     7.746
  38.440         64.17	     8.775
  38.460         60.00	     8.485
  38.480         70.00	     9.165
  38.500         64.17	     8.775
  38.520         55.00	     8.124
  38.540         43.33	     7.211
  38.560         49.17	     7.681
  38.580         50.00	     7.746
  38.600         60.83	     8.544
  38.620         43.33	     7.211
  38.640         50.00	     7.746
  38.660         60.83	     8.544
  38.680         71.67	     9.274
  38.700         70.83	     9.220
  38.720         79.17	     9.747
  38.740         85.00	    10.100
  38.760         70.00	     9.165
  38.780         87.50	    10.247
  38.800         72.50	     9.327
  38.820         68.33	     9.055
  38.840         57.50	     8.307
  38.860         62.50	     8.660
  38.880         53.33	     8.000
  38.900         50.00	     7.746
  38.920         50.00	     7.746
  38.940         43.33	     7.211
  38.960         38.33	     6.782
  38.980         53.33	     8.000
  39.000         46.67	     7.483
  39.020         39.17	     6.856
  39.040         55.83	     8.185
  39.060         41.67	     7.071
  39.080         55.00	     8.124
  39.100         45.00	     7.348
  39.120         59.17	     8.426
  39.140         45.00	     7.348
  39.160         40.83	     7.000
  39.180         49.17	     7.681
  39.200         47.50	     7.550
  39.220         49.17	     7.681
  39.240         48.33	     7.616
  39.260         79.17	     9.747
  39.280         67.50	     9.000
  39.300         59.17	     8.426
  39.320         55.00	     8.124
  39.340         75.83	     9.539
  39.360        109.17	    11.446
  39.380        170.00	    14.283
  39.400        162.50	    13.964
  39.420        114.17	    11.705
  39.440        100.00	    10.954
  39.460         95.83	    10.724
  39.480        118.33	    11.916
  39.500         97.50	    10.817
  39.520         80.83	     9.849
  39.540         77.50	     9.644
  39.560         65.83	     8.888
  39.580         50.00	     7.746
  39.600         66.67	     8.944
  39.620         51.67	     7.874
  39.640         44.17	     7.280
  39.660         52.50	     7.937
  39.680         53.33	     8.000
  39.700         57.50	     8.307
  39.720         48.33	     7.616
  39.740         36.67	     6.633
  39.760         55.83	     8.185
  39.780         48.33	     7.616
  39.800         49.17	     7.681
  39.820         59.17	     8.426
  39.840         46.67	     7.483
  39.860         56.67	     8.246
  39.880         52.50	     7.937
  39.900         40.83	     7.000
  39.920         37.50	     6.708
  39.940         49.17	     7.681
  39.960         43.33	     7.211
  39.980         50.00	     7.746
  40.000         47.50	     7.550
  40.020         44.17	     7.280
  40.040         44.17	     7.280
  40.060         50.00	     7.746
  40.080         50.00	     7.746
  40.100         40.00	     6.928
  40.120         44.17	     7.280
  40.140         61.67	     8.602
  40.160         68.33	     9.055
  40.180         94.17	    10.630
  40.200        163.33	    14.000
  40.220        153.33	    13.565
  40.240        174.17	    14.457
  40.260        118.33	    11.916
  40.280        100.00	    10.954
  40.300        102.50	    11.091
  40.320        117.50	    11.874
  40.340         94.17	    10.630
  40.360         80.83	     9.849
  40.380         75.00	     9.487
  40.400         67.50	     9.000
  40.420         40.83	     7.000
  40.440         48.33	     7.616
  40.460         43.33	     7.211
  40.480         40.83	     7.000
  40.500         51.67	     7.874
  40.520         50.83	     7.810
  40.540         48.33	     7.616
  40.560         42.50	     7.141
  40.580         48.33	     7.616
  40.600         55.00	     8.124
  40.620         61.67	     8.602
  40.640         47.50	     7.550
  40.660         55.00	     8.124
  40.680         62.50	     8.660
  40.700         53.33	     8.000
  40.720         53.33	     8.000
  40.740         60.00	     8.485
  40.760         53.33	     8.000
  40.780         53.33	     8.000
  40.800         45.00	     7.348
  40.820         44.17	     7.280
  40.840         55.83	     8.185
  40.860         51.67	     7.874
  40.880         58.33	     8.367
  40.900         57.50	     8.307
  40.920         50.83	     7.810
  40.940         49.17	     7.681
  40.960         52.50	     7.937
  40.980         46.67	     7.483
  41.000         37.50	     6.708
  41.020         52.50	     7.937
  41.040         40.00	     6.928
  41.060         48.33	     7.616
  41.080         43.33	     7.211
  41.100         47.50	     7.550
  41.120         58.33	     8.367
  41.140         63.33	     8.718
  41.160         61.67	     8.602
  41.180         46.67	     7.483
  41.200         45.00	     7.348
  41.220         60.00	     8.485
  41.240         55.83	     8.185
  41.260         59.17	     8.426
  41.280         52.50	     7.937
  41.300         50.83	     7.810
  41.320         55.83	     8.185
  41.340         49.17	     7.681
  41.360         56.67	     8.246
  41.380         49.17	     7.681
  41.400         45.83	     7.416
  41.420         45.00	     7.348
  41.440         47.50	     7.550
  41.460         56.67	     8.246
  41.480         56.67	     8.246
  41.500         54.17	     8.062
  41.520         65.00	     8.832
  41.540         80.83	     9.849
  41.560         85.83	    10.149
  41.580         77.50	     9.644
  41.600         83.33	    10.000
  41.620         80.00	     9.798
  41.640         80.00	     9.798
  41.660         85.83	    10.149
  41.680        112.50	    11.619
  41.700        103.33	    11.136
  41.720         89.17	    10.344
  41.740        113.33	    11.662
  41.760        104.17	    11.180
  41.780         99.17	    10.909
  41.800         85.00	    10.100
  41.820        102.50	    11.091
  41.840         85.83	    10.149
  41.860         88.33	    10.296
  41.880         92.50	    10.536
  41.900         93.33	    10.583
  41.920         82.50	     9.950
  41.940         73.33	     9.381
  41.960         71.67	     9.274
  41.980         75.00	     9.487
  42.000         77.50	     9.644
  42.020         72.50	     9.327
  42.040         59.17	     8.426
  42.060         63.33	     8.718
  42.080         60.00	     8.485
  42.100         66.67	     8.944
  42.120         65.00	     8.832
  42.140         75.83	     9.539
  42.160         65.83	     8.888
  42.180         71.67	     9.274
  42.200         80.83	     9.849
  42.220         93.33	    10.583
  42.240         81.67	     9.899
  42.260         83.33	    10.000
  42.280         99.17	    10.909
  42.300         94.17	    10.630
  42.320        113.33	    11.662
  42.340        150.83	    13.454
  42.360        194.17	    15.264
  42.380        260.00	    17.664
  42.400        267.50	    17.916
  42.420        290.00	    18.655
  42.440        288.33	    18.601
  42.460        209.17	    15.843
  42.480        180.00	    14.697
  42.500        195.83	    15.330
  42.520        185.83	    14.933
  42.540        204.17	    15.652
  42.560        169.17	    14.248
  42.580        122.50	    12.124
  42.600         93.33	    10.583
  42.620        107.50	    11.358
  42.640         81.67	     9.899
  42.660         94.17	    10.630
  42.680         98.33	    10.863
  42.700         89.17	    10.344
  42.720         74.17	     9.434
  42.740         80.83	     9.849
  42.760         82.50	     9.950
  42.780         83.33	    10.000
  42.800         71.67	     9.274
  42.820         77.50	     9.644
  42.840         62.50	     8.660
  42.860         68.33	     9.055
  42.880         72.50	     9.327
  42.900         87.50	    10.247
  42.920         77.50	     9.644
  42.940         90.00	    10.392
  42.960         77.50	     9.644
  42.980         97.50	    10.817
  43.000         81.67	     9.899
  43.020         85.83	    10.149
  43.040         88.33	    10.296
  43.060        105.00	    11.225
  43.080         90.83	    10.440
  43.100        124.17	    12.207
  43.120         98.33	    10.863
  43.140        106.67	    11.314
  43.160        122.50	    12.124
  43.180        131.67	    12.570
  43.200        141.67	    13.038
  43.220        160.00	    13.856
  43.240        161.67	    13.928
  43.260        153.33	    13.565
  43.280        154.17	    13.601
  43.300        216.67	    16.125
  43.320        193.33	    15.232
  43.340        195.00	    15.297
  43.360        179.17	    14.663
  43.380        200.00	    15.492
  43.400        202.50	    15.588
  43.420        231.67	    16.673
  43.440        261.67	    17.720
  43.460        248.33	    17.263
  43.480        240.00	    16.971
  43.500        235.00	    16.793
  43.520        218.33	    16.186
  43.540        202.50	    15.588
  43.560        225.83	    16.462
  43.580        214.17	    16.031
  43.600        185.00	    14.900
  43.620        179.17	    14.663
  43.640        168.33	    14.213
  43.660        179.17	    14.663
  43.680        175.00	    14.491
  43.700        167.50	    14.177
  43.720        154.17	    13.601
  43.740        137.50	    12.845
  43.760        130.83	    12.530
  43.780        114.17	    11.705
  43.800        109.17	    11.446
  43.820        103.33	    11.136
  43.840        110.00	    11.489
  43.860        142.50	    13.077
  43.880        106.67	    11.314
  43.900        100.00	    10.954
  43.920         98.33	    10.863
  43.940         93.33	    10.583
  43.960         74.17	     9.434
  43.980         86.67	    10.198
  44.000         82.50	     9.950
  44.020         90.00	    10.392
  44.040         79.17	     9.747
  44.060         70.83	     9.220
  44.080         63.33	     8.718
  44.100         82.50	     9.950
  44.120         64.17	     8.775
  44.140         64.17	     8.775
  44.160         67.50	     9.000
  44.180         54.17	     8.062
  44.200         55.83	     8.185
  44.220         59.17	     8.426
  44.240         58.33	     8.367
  44.260         47.50	     7.550
  44.280         57.50	     8.307
  44.300         54.17	     8.062
  44.320         59.17	     8.426
  44.340         58.33	     8.367
  44.360         65.83	     8.888
  44.380         62.50	     8.660
  44.400         80.83	     9.849
  44.420        116.67	    11.832
  44.440        131.67	    12.570
  44.460         87.50	    10.247
  44.480         90.83	    10.440
  44.500         70.83	     9.220
  44.520         83.33	    10.000
  44.540         87.50	    10.247
  44.560         80.00	     9.798
  44.580         74.17	     9.434
  44.600         72.50	     9.327
  44.620         54.17	     8.062
  44.640         51.67	     7.874
  44.660         63.33	     8.718
  44.680         55.83	     8.185
  44.700         63.33	     8.718
  44.720         63.33	     8.718
  44.740         61.67	     8.602
  44.760         60.83	     8.544
  44.780         69.17	     9.110
  44.800         64.17	     8.775
  44.820         66.67	     8.944
  44.840         78.33	     9.695
  44.860         65.00	     8.832
  44.880         64.17	     8.775
  44.900         97.50	    10.817
  44.920         85.83	    10.149
  44.940         73.33	     9.381
  44.960         80.83	     9.849
  44.980         80.00	     9.798
  45.000         81.67	     9.899
  45.020         72.50	     9.327
  45.040         67.50	     9.000
  45.060         78.33	     9.695
  45.080         69.17	     9.110
  45.100         60.00	     8.485
  45.120         50.00	     7.746
  45.140         65.83	     8.888
  45.160         71.67	     9.274
  45.180         81.67	     9.899
  45.200         66.67	     8.944
  45.220         65.83	     8.888
  45.240         70.83	     9.220
  45.260         74.17	     9.434
  45.280        106.67	    11.314
  45.300        100.83	    11.000
  45.320        116.67	    11.832
  45.340        103.33	    11.136
  45.360        140.00	    12.961
  45.380        145.00	    13.191
  45.400        182.50	    14.799
  45.420        199.17	    15.460
  45.440        245.83	    17.176
  45.460        261.67	    17.720
  45.480        307.50	    19.209
  45.500        290.83	    18.682
  45.520        301.67	    19.026
  45.540        332.50	    19.975
  45.560        347.50	    20.421
  45.580        330.00	    19.900
  45.600        276.67	    18.221
  45.620        225.83	    16.462
  45.640        230.00	    16.613
  45.660        232.50	    16.703
  45.680        239.17	    16.941
  45.700        275.83	    18.193
  45.720        266.67	    17.889
  45.740        241.67	    17.029
  45.760        147.50	    13.304
  45.780        144.17	    13.153
  45.800        105.83	    11.269
  45.820        125.83	    12.288
  45.840        132.50	    12.610
  45.860        129.17	    12.450
  45.880        114.17	    11.705
  45.900         70.00	     9.165
  45.920         85.00	    10.100
  45.940         65.83	     8.888
  45.960         71.67	     9.274
  45.980         79.17	     9.747
  46.000         75.83	     9.539
  46.020         65.00	     8.832
  46.040         54.17	     8.062
  46.060         49.17	     7.681
  46.080         50.00	     7.746
  46.100         49.17	     7.681
  46.120         51.67	     7.874
  46.140         60.83	     8.544
  46.160         44.17	     7.280
  46.180         52.50	     7.937
  46.200         52.50	     7.937
  46.220         47.50	     7.550
  46.240         64.17	     8.775
  46.260         42.50	     7.141
  46.280         41.67	     7.071
  46.300         33.33	     6.325
  46.320         45.83	     7.416
  46.340         45.83	     7.416
  46.360         35.83	     6.557
  46.380         43.33	     7.211
  46.400         34.17	     6.403
  46.420         37.50	     6.708
  46.440         49.17	     7.681
  46.460         34.17	     6.403
  46.480         51.67	     7.874
  46.500         44.17	     7.280
  46.520         42.50	     7.141
  46.540         45.00	     7.348
  46.560         33.33	     6.325
  46.580         37.50	     6.708
  46.600         50.00	     7.746
  46.620         40.83	     7.000
  46.640         40.83	     7.000
  46.660         30.83	     6.083
  46.680         47.50	     7.550
  46.700         36.67	     6.633
  46.720         43.33	     7.211
  46.740         47.50	     7.550
  46.760         32.50	     6.245
  46.780         45.00	     7.348
  46.800         33.33	     6.325
  46.820         36.67	     6.633
  46.840         37.50	     6.708
  46.860         36.67	     6.633
  46.880         55.00	     8.124
  46.900         45.00	     7.348
  46.920         40.83	     7.000
  46.940         49.17	     7.681
  46.960         47.50	     7.550
  46.980         58.33	     8.367
  47.000         52.50	     7.937
  47.020         60.00	     8.485
  47.040         69.17	     9.110
  47.060         69.17	     9.110
  47.080        102.50	    11.091
  47.100        114.17	    11.705
  47.120        105.83	    11.269
  47.140         93.33	    10.583
  47.160         86.67	    10.198
  47.180         75.00	     9.487
  47.200         55.00	     8.124
  47.220         62.50	     8.660
  47.240         68.33	     9.055
  47.260         73.33	     9.381
  47.280         55.00	     8.124
  47.300         68.33	     9.055
  47.320         60.00	     8.485
  47.340         42.50	     7.141
  47.360         50.83	     7.810
  47.380         35.00	     6.481
  47.400         30.00	     6.000
  47.420         42.50	     7.141
  47.440         39.17	     6.856
  47.460         40.83	     7.000
  47.480         35.00	     6.481
  47.500         40.00	     6.928
  47.520         50.00	     7.746
  47.540         50.00	     7.746
  47.560         50.83	     7.810
  47.580         40.00	     6.928
  47.600         32.50	     6.245
  47.620         46.67	     7.483
  47.640         50.00	     7.746
  47.660         41.67	     7.071
  47.680         54.17	     8.062
  47.700         41.67	     7.071
  47.720         44.17	     7.280
  47.740         40.00	     6.928
  47.760         58.33	     8.367
  47.780         46.67	     7.483
  47.800         43.33	     7.211
  47.820         51.67	     7.874
  47.840         60.00	     8.485
  47.860         64.17	     8.775
  47.880         76.67	     9.592
  47.900         74.17	     9.434
  47.920         76.67	     9.592
  47.940         87.50	    10.247
  47.960         76.67	     9.592
  47.980         84.17	    10.050
  48.000         93.33	    10.583
  48.020        105.00	    11.225
  48.040        116.67	    11.832
  48.060         95.83	    10.724
  48.080         94.17	    10.630
  48.100        100.83	    11.000
  48.120        123.33	    12.166
  48.140        160.00	    13.856
  48.160        117.50	    11.874
  48.180         89.17	    10.344
  48.200         75.83	     9.539
  48.220         72.50	     9.327
  48.240         78.33	     9.695
  48.260         78.33	     9.695
  48.280         77.50	     9.644
  48.300         53.33	     8.000
  48.320         58.33	     8.367
  48.340         57.50	     8.307
  48.360         53.33	     8.000
  48.380         54.17	     8.062
  48.400         55.83	     8.185
  48.420         48.33	     7.616
  48.440         47.50	     7.550
  48.460         44.17	     7.280
  48.480         45.83	     7.416
  48.500         40.00	     6.928
  48.520         45.00	     7.348
  48.540         40.83	     7.000
  48.560         53.33	     8.000
  48.580         47.50	     7.550
  48.600         46.67	     7.483
  48.620         58.33	     8.367
  48.640         45.83	     7.416
  48.660         45.83	     7.416
  48.680         51.67	     7.874
  48.700         62.50	     8.660
  48.720         45.00	     7.348
  48.740         55.00	     8.124
  48.760         50.00	     7.746
  48.780         44.17	     7.280
  48.800         35.83	     6.557
  48.820         48.33	     7.616
  48.840         48.33	     7.616
  48.860         42.50	     7.141
  48.880         53.33	     8.000
  48.900         35.83	     6.557
  48.920         39.17	     6.856
  48.940         42.50	     7.141
  48.960         51.67	     7.874
  48.980         61.67	     8.602
  49.000         47.50	     7.550
  49.020         35.83	     6.557
  49.040         46.67	     7.483
  49.060         47.50	     7.550
  49.080         64.17	     8.775
  49.100         50.83	     7.810
  49.120         60.00	     8.485
  49.140         55.00	     8.124
  49.160         60.00	     8.485
  49.180         70.83	     9.220
  49.200         48.33	     7.616
  49.220         67.50	     9.000
  49.240         50.83	     7.810
  49.260         56.67	     8.246
  49.280         57.50	     8.307
  49.300         60.00	     8.485
  49.320         52.50	     7.937
  49.340         45.00	     7.348
  49.360         57.50	     8.307
  49.380         55.00	     8.124
  49.400         40.00	     6.928
  49.420         56.67	     8.246
  49.440         56.67	     8.246
  49.460         48.33	     7.616
  49.480         60.00	     8.485
  49.500         56.67	     8.246
  49.520         56.67	     8.246
  49.540         73.33	     9.381
  49.560         60.00	     8.485
  49.580         43.33	     7.211
  49.600         73.33	     9.381
  49.620         62.50	     8.660
  49.640         68.33	     9.055
  49.660         55.83	     8.185
  49.680         44.17	     7.280
  49.700         79.17	     9.747
  49.720         79.17	     9.747
  49.740         71.67	     9.274
  49.760         88.33	    10.296
  49.780         73.33	     9.381
  49.800         95.83	    10.724
  49.820         75.00	     9.487
  49.840         81.67	     9.899
  49.860        106.67	    11.314
  49.880         70.00	     9.165
  49.900        100.83	    11.000
  49.920         93.33	    10.583
  49.940         89.17	    10.344
  49.960        101.67	    11.045
  49.980        104.17	    11.180
  50.000        125.83	    12.288
  50.020        190.83	    15.133
  50.040        262.50	    17.748
  50.060        332.50	    19.975
  50.080        307.50	    19.209
  50.100        213.33	    16.000
  50.120        152.50	    13.528
  50.140        153.33	    13.565
  50.160        187.50	    15.000
  50.180        185.00	    14.900
  50.200        220.83	    16.279
  50.220        191.67	    15.166
  50.240        137.50	    12.845
  50.260        119.17	    11.958
  50.280         95.83	    10.724
  50.300         87.50	    10.247
  50.320         91.67	    10.488
  50.340         81.67	     9.899
  50.360        108.33	    11.402
  50.380         91.67	    10.488
  50.400         85.00	    10.100
  50.420         77.50	     9.644
  50.440         84.17	    10.050
  50.460         76.67	     9.592
  50.480         71.67	     9.274
  50.500         87.50	    10.247
  50.520         98.33	    10.863
  50.540         97.50	    10.817
  50.560         85.00	    10.100
  50.580         73.33	     9.381
  50.600         95.00	    10.677
  50.620         67.50	     9.000
  50.640         75.00	     9.487
  50.660         75.00	     9.487
  50.680         70.83	     9.220
  50.700         61.67	     8.602
  50.720         70.83	     9.220
  50.740         67.50	     9.000
  50.760         63.33	     8.718
  50.780         63.33	     8.718
  50.800         49.17	     7.681
  50.820         54.17	     8.062
  50.840         35.83	     6.557
  50.860         51.67	     7.874
  50.880         38.33	     6.782
  50.900         45.00	     7.348
  50.920         43.33	     7.211
  50.940         47.50	     7.550
  50.960         44.17	     7.280
  50.980         48.33	     7.616
  51.000         48.33	     7.616
  51.020         48.33	     7.616
  51.040         53.33	     8.000
  51.060         63.33	     8.718
  51.080         54.17	     8.062
  51.100         50.00	     7.746
  51.120         48.33	     7.616
  51.140         55.83	     8.185
  51.160         57.50	     8.307
  51.180         55.00	     8.124
  51.200         58.33	     8.367
  51.220         62.50	     8.660
  51.240         70.83	     9.220
  51.260         58.33	     8.367
  51.280         54.17	     8.062
  51.300         60.00	     8.485
  51.320         53.33	     8.000
  51.340         51.67	     7.874
  51.360         47.50	     7.550
  51.380         45.00	     7.348
  51.400         40.00	     6.928
  51.420         39.17	     6.856
  51.440         46.67	     7.483
  51.460         47.50	     7.550
  51.480         44.17	     7.280
  51.500         35.83	     6.557
  51.520         41.67	     7.071
  51.540         45.00	     7.348
  51.560         42.50	     7.141
  51.580         41.67	     7.071
  51.600         40.00	     6.928
  51.620         36.67	     6.633
  51.640         41.67	     7.071
  51.660         35.00	     6.481
  51.680         35.83	     6.557
  51.700         42.50	     7.141
  51.720         33.33	     6.325
  51.740         33.33	     6.325
  51.760         37.50	     6.708
  51.780         30.00	     6.000
  51.800         41.67	     7.071
  51.820         42.50	     7.141
  51.840         39.17	     6.856
  51.860         34.17	     6.403
  51.880         37.50	     6.708
  51.900         40.00	     6.928
  51.920         30.83	     6.083
  51.940         47.50	     7.550
  51.960         37.50	     6.708
  51.980         39.17	     6.856
  52.000         50.83	     7.810
  52.020         67.50	     9.000
  52.040         80.00	     9.798
  52.060        111.67	    11.576
  52.080        108.33	    11.402
  52.100         80.83	     9.849
  52.120         66.67	     8.944
  52.140         50.00	     7.746
  52.160         48.33	     7.616
  52.180         63.33	     8.718
  52.200         74.17	     9.434
  52.220         68.33	     9.055
  52.240         66.67	     8.944
  52.260         49.17	     7.681
  52.280         46.67	     7.483
  52.300         55.00	     8.124
  52.320         43.33	     7.211
  52.340         40.00	     6.928
  52.360         60.00	     8.485
  52.380         64.17	     8.775
  52.400         63.33	     8.718
  52.420         45.83	     7.416
  52.440         57.50	     8.307
  52.460         55.00	     8.124
  52.480         50.00	     7.746
  52.500         45.83	     7.416
  52.520         55.00	     8.124
  52.540         50.83	     7.810
  52.560         53.33	     8.000
  52.580         51.67	     7.874
  52.600         41.67	     7.071
  52.620         48.33	     7.616
  52.640         34.17	     6.403
  52.660         49.17	     7.681
  52.680         45.00	     7.348
  52.700         39.17	     6.856
  52.720         45.83	     7.416
  52.740         65.83	     8.888
  52.760         47.50	     7.550
  52.780         47.50	     7.550
  52.800         45.00	     7.348
  52.820         48.33	     7.616
  52.840         35.00	     6.481
  52.860         46.67	     7.483
  52.880         45.00	     7.348
  52.900         51.67	     7.874
  52.920         44.17	     7.280
  52.940         48.33	     7.616
  52.960         45.00	     7.348
  52.980         47.50	     7.550
  53.000         45.83	     7.416
  53.020         45.00	     7.348
  53.040         43.33	     7.211
  53.060         44.17	     7.280
  53.080         48.33	     7.616
  53.100         52.50	     7.937
  53.120         43.33	     7.211
  53.140         45.00	     7.348
  53.160         52.50	     7.937
  53.180         46.67	     7.483
  53.200         65.00	     8.832
  53.220         66.67	     8.944
  53.240         48.33	     7.616
  53.260         53.33	     8.000
  53.280         52.50	     7.937
  53.300         34.17	     6.403
  53.320         56.67	     8.246
  53.340         35.83	     6.557
  53.360         49.17	     7.681
  53.380         43.33	     7.211
  53.400         55.83	     8.185
  53.420         38.33	     6.782
  53.440         30.83	     6.083
  53.460         35.83	     6.557
  53.480         44.17	     7.280
  53.500         45.83	     7.416
  53.520         39.17	     6.856
  53.540         49.17	     7.681
  53.560         44.17	     7.280
  53.580         45.00	     7.348
  53.600         29.17	     5.916
  53.620         45.00	     7.348
  53.640         37.50	     6.708
  53.660         35.00	     6.481
  53.680         37.50	     6.708
  53.700         38.33	     6.782
  53.720         30.83	     6.083
  53.740         33.33	     6.325
  53.760         38.33	     6.782
  53.780         34.17	     6.403
  53.800         34.17	     6.403
  53.820         37.50	     6.708
  53.840         25.00	     5.477
  53.860         48.33	     7.616
  53.880         46.67	     7.483
  53.900         40.00	     6.928
  53.920         39.17	     6.856
  53.940         34.17	     6.403
  53.960         34.17	     6.403
  53.980         30.83	     6.083
  54.000         31.67	     6.164
  54.020         38.33	     6.782
  54.040         35.00	     6.481
  54.060         39.17	     6.856
  54.080         37.50	     6.708
  54.100         28.33	     5.831
  54.120         36.67	     6.633
  54.140         25.00	     5.477
  54.160         40.83	     7.000
  54.180         35.83	     6.557
  54.200         42.50	     7.141
  54.220         60.00	     8.485
  54.240         42.50	     7.141
  54.260         71.67	     9.274
  54.280        109.17	    11.446
  54.300         90.00	    10.392
  54.320         64.17	     8.775
  54.340         55.00	     8.124
  54.360         54.17	     8.062
  54.380         50.00	     7.746
  54.400         45.83	     7.416
  54.420         70.00	     9.165
  54.440         90.00	    10.392
  54.460         65.00	     8.832
  54.480         45.83	     7.416
  54.500         60.00	     8.485
  54.520         59.17	     8.426
  54.540         45.00	     7.348
  54.560         57.50	     8.307
  54.580         48.33	     7.616
  54.600         45.00	     7.348
  54.620         57.50	     8.307
  54.640         55.83	     8.185
  54.660         46.67	     7.483
  54.680         52.50	     7.937
  54.700         72.50	     9.327
  54.720         82.50	     9.950
  54.740         96.67	    10.770
  54.760        113.33	    11.662
  54.780        163.33	    14.000
  54.800        266.67	    17.889
  54.820        279.17	    18.303
  54.840        180.83	    14.731
  54.860        119.17	    11.958
  54.880         88.33	    10.296
  54.900         82.50	     9.950
  54.920        117.50	    11.874
  54.940        168.33	    14.213
  54.960        156.67	    13.711
  54.980        139.17	    12.923
  55.000         91.67	    10.488
  55.020         73.33	     9.381
  55.040         65.83	     8.888
  55.060         48.33	     7.616
  55.080         51.67	     7.874
  55.100         53.33	     8.000
  55.120         71.67	     9.274
  55.140         60.00	     8.485
  55.160         65.83	     8.888
  55.180         70.00	     9.165
  55.200         78.33	     9.695
  55.220         65.83	     8.888
  55.240         95.00	    10.677
  55.260        101.67	    11.045
  55.280         94.17	    10.630
  55.300         65.00	     8.832
  55.320         57.50	     8.307
  55.340         73.33	     9.381
  55.360         71.67	     9.274
  55.380         68.33	     9.055
  55.400         81.67	     9.899
  55.420         64.17	     8.775
  55.440         56.67	     8.246
  55.460         50.83	     7.810
  55.480         54.17	     8.062
  55.500         45.00	     7.348
  55.520         51.67	     7.874
  55.540         50.00	     7.746
  55.560         53.33	     8.000
  55.580         52.50	     7.937
  55.600         50.83	     7.810
  55.620         50.00	     7.746
  55.640         69.17	     9.110
  55.660         71.67	     9.274
  55.680         72.50	     9.327
  55.700         95.00	    10.677
  55.720         95.83	    10.724
  55.740         98.33	    10.863
  55.760         95.83	    10.724
  55.780         85.00	    10.100
  55.800         76.67	     9.592
  55.820         72.50	     9.327
  55.840         79.17	     9.747
  55.860         86.67	    10.198
  55.880         77.50	     9.644
  55.900         65.83	     8.888
  55.920         62.50	     8.660
  55.940         65.83	     8.888
  55.960         49.17	     7.681
  55.980         64.17	     8.775
  56.000         51.67	     7.874
  56.020         42.50	     7.141
  56.040         50.00	     7.746
  56.060         53.33	     8.000
  56.080         43.33	     7.211
  56.100         66.67	     8.944
  56.120         69.17	     9.110
  56.140         48.33	     7.616
  56.160         35.83	     6.557
  56.180         47.50	     7.550
  56.200         48.33	     7.616
  56.220         55.83	     8.185
  56.240         48.33	     7.616
  56.260         40.83	     7.000
  56.280         50.00	     7.746
  56.300         37.50	     6.708
  56.320         50.83	     7.810
  56.340         38.33	     6.782
  56.360         40.83	     7.000
  56.380         38.33	     6.782
  56.400         42.50	     7.141
  56.420         42.50	     7.141
  56.440         36.67	     6.633
  56.460         39.17	     6.856
  56.480         47.50	     7.550
  56.500         40.83	     7.000
  56.520         42.50	     7.141
  56.540         35.00	     6.481
  56.560         31.67	     6.164
  56.580         54.17	     8.062
  56.600         44.17	     7.280
  56.620         50.00	     7.746
  56.640         57.50	     8.307
  56.660         60.83	     8.544
  56.680         48.33	     7.616
  56.700         47.50	     7.550
  56.720         52.50	     7.937
  56.740         40.00	     6.928
  56.760         52.50	     7.937
  56.780         36.67	     6.633
  56.800         55.83	     8.185
  56.820         45.00	     7.348
  56.840         51.67	     7.874
  56.860         34.17	     6.403
  56.880         35.00	     6.481
  56.900         53.33	     8.000
  56.920         39.17	     6.856
  56.940         31.67	     6.164
  56.960         37.50	     6.708
  56.980         44.17	     7.280
  57.000         39.17	     6.856
  57.020         38.33	     6.782
  57.040         37.50	     6.708
  57.060         40.00	     6.928
  57.080         51.67	     7.874
  57.100         52.50	     7.937
  57.120         40.83	     7.000
  57.140         47.50	     7.550
  57.160         49.17	     7.681
  57.180         58.33	     8.367
  57.200         45.00	     7.348
  57.220         32.50	     6.245
  57.240         30.00	     6.000
  57.260         35.00	     6.481
  57.280         44.17	     7.280
  57.300         47.50	     7.550
  57.320         48.33	     7.616
  57.340         53.33	     8.000
  57.360         32.50	     6.245
  57.380         33.33	     6.325
  57.400         43.33	     7.211
  57.420         44.17	     7.280
  57.440         40.83	     7.000
  57.460         53.33	     8.000
  57.480         44.17	     7.280
  57.500         31.67	     6.164
  57.520         42.50	     7.141
  57.540         40.83	     7.000
  57.560         56.67	     8.246
  57.580         55.00	     8.124
  57.600         31.67	     6.164
  57.620         40.83	     7.000
  57.640         40.83	     7.000
  57.660         44.17	     7.280
  57.680         63.33	     8.718
  57.700         76.67	     9.592
  57.720        103.33	    11.136
  57.740         78.33	     9.695
  57.760         69.17	     9.110
  57.780         54.17	     8.062
  57.800         41.67	     7.071
  57.820         34.17	     6.403
  57.840         37.50	     6.708
  57.860         53.33	     8.000
  57.880         51.67	     7.874
  57.900         60.00	     8.485
  57.920         60.83	     8.544
  57.940         55.00	     8.124
  57.960         53.33	     8.000
  57.980         61.67	     8.602
  58.000         70.83	     9.220
  58.020         52.50	     7.937
  58.040         61.67	     8.602
  58.060         55.83	     8.185
  58.080         51.67	     7.874
  58.100         54.17	     8.062
  58.120         53.33	     8.000
  58.140         51.67	     7.874
  58.160         48.33	     7.616
  58.180         45.00	     7.348
  58.200         41.67	     7.071
  58.220         54.17	     8.062
  58.240         50.83	     7.810
  58.260         49.17	     7.681
  58.280         45.83	     7.416
  58.300         39.17	     6.856
  58.320         36.67	     6.633
  58.340         35.00	     6.481
  58.360         45.00	     7.348
  58.380         36.67	     6.633
  58.400         55.83	     8.185
  58.420         51.67	     7.874
  58.440         45.83	     7.416
  58.460         50.00	     7.746
  58.480         57.50	     8.307
  58.500         52.50	     7.937
  58.520         44.17	     7.280
  58.540         49.17	     7.681
  58.560         46.67	     7.483
  58.580         53.33	     8.000
  58.600         65.00	     8.832
  58.620         60.00	     8.485
  58.640         67.50	     9.000
  58.660         59.17	     8.426
  58.680         45.83	     7.416
  58.700         42.50	     7.141
  58.720         50.83	     7.810
  58.740         48.33	     7.616
  58.760         50.00	     7.746
  58.780         54.17	     8.062
  58.800         41.67	     7.071
  58.820         51.67	     7.874
  58.840         53.33	     8.000
  58.860         42.50	     7.141
  58.880         50.83	     7.810
  58.900         58.33	     8.367
  58.920         47.50	     7.550
  58.940         55.83	     8.185
  58.960         50.00	     7.746
  58.980         53.33	     8.000
  59.000         61.67	     8.602
  59.020         59.17	     8.426
  59.040         70.00	     9.165
  59.060         60.83	     8.544
  59.080         63.33	     8.718
  59.100         69.17	     9.110
  59.120         72.50	     9.327
  59.140         75.83	     9.539
  59.160         66.67	     8.944
  59.180         53.33	     8.000
  59.200         62.50	     8.660
  59.220         59.17	     8.426
  59.240         53.33	     8.000
  59.260         59.17	     8.426
  59.280         60.00	     8.485
  59.300         48.33	     7.616
  59.320         40.00	     6.928
  59.340         46.67	     7.483
  59.360         48.33	     7.616
  59.380         48.33	     7.616
  59.400         48.33	     7.616
  59.420         43.33	     7.211
  59.440         57.50	     8.307
  59.460         50.83	     7.810
  59.480         47.50	     7.550
  59.500         45.00	     7.348
  59.520         43.33	     7.211
  59.540         35.00	     6.481
  59.560         54.17	     8.062
  59.580         45.83	     7.416
  59.600         50.00	     7.746
  59.620         45.00	     7.348
  59.640         54.17	     8.062
  59.660         61.67	     8.602
  59.680         52.50	     7.937
  59.700         63.33	     8.718
  59.720         58.33	     8.367
  59.740         63.33	     8.718
  59.760         78.33	     9.695
  59.780         94.17	    10.630
  59.800        126.67	    12.329
  59.820        146.67	    13.266
  59.840        200.00	    15.492
  59.860        311.67	    19.339
  59.880        359.17	    20.761
  59.900        337.50	    20.125
  59.920        234.17	    16.763
  59.940        185.00	    14.900
  59.960        132.50	    12.610
  59.980        128.33	    12.410
  60.000        130.83	    12.530
  60.020        175.83	    14.526
  60.040        226.67	    16.492
  60.060        193.33	    15.232
  60.080        175.83	    14.526
  60.100        133.33	    12.649
  60.120         92.50	    10.536
  60.140         85.00	    10.100
  60.160         64.17	     8.775
  60.180         56.67	     8.246
  60.200         56.67	     8.246
  60.220         45.83	     7.416
  60.240         48.33	     7.616
  60.260         56.67	     8.246
  60.280         35.83	     6.557
  60.300         49.17	     7.681
  60.320         54.17	     8.062
  60.340         57.50	     8.307
  60.360         61.67	     8.602
  60.380         50.00	     7.746
  60.400         54.17	     8.062
  60.420         57.50	     8.307
  60.440         55.83	     8.185
  60.460         51.67	     7.874
  60.480         60.00	     8.485
  60.500         54.17	     8.062
  60.520         40.00	     6.928
  60.540         56.67	     8.246
  60.560         60.00	     8.485
  60.580         45.00	     7.348
  60.600         54.17	     8.062
  60.620         47.50	     7.550
  60.640         63.33	     8.718
  60.660         55.00	     8.124
  60.680         66.67	     8.944
  60.700         63.33	     8.718
  60.720         72.50	     9.327
  60.740         61.67	     8.602
  60.760         77.50	     9.644
  60.780         72.50	     9.327
  60.800         64.17	     8.775
  60.820         66.67	     8.944
  60.840         68.33	     9.055
  60.860         65.83	     8.888
  60.880         58.33	     8.367
  60.900         57.50	     8.307
  60.920         64.17	     8.775
  60.940         65.83	     8.888
  60.960         55.00	     8.124
  60.980         60.00	     8.485
  61.000         53.33	     8.000
  61.020         70.83	     9.220
  61.040         60.00	     8.485
  61.060         60.83	     8.544
  61.080         60.00	     8.485
  61.100         40.83	     7.000
  61.120         51.67	     7.874
  61.140         48.33	     7.616
  61.160         49.17	     7.681
  61.180         55.83	     8.185
  61.200         35.83	     6.557
  61.220         73.33	     9.381
  61.240         59.17	     8.426
  61.260         50.83	     7.810
  61.280         52.50	     7.937
  61.300         55.83	     8.185
  61.320         66.67	     8.944
  61.340         51.67	     7.874
  61.360         66.67	     8.944
  61.380         60.83	     8.544
  61.400         73.33	     9.381
  61.420         60.83	     8.544
  61.440         60.83	     8.544
  61.460         73.33	     9.381
  61.480         72.50	     9.327
  61.500         61.67	     8.602
  61.520         60.83	     8.544
  61.540         64.17	     8.775
  61.560         66.67	     8.944
  61.580         71.67	     9.274
  61.600         65.00	     8.832
  61.620         60.83	     8.544
  61.640         60.00	     8.485
  61.660         52.50	     7.937
  61.680         60.00	     8.485
  61.700         60.00	     8.485
  61.720         59.17	     8.426
  61.740         69.17	     9.110
  61.760         65.83	     8.888
  61.780         76.67	     9.592
  61.800         70.00	     9.165
  61.820         92.50	    10.536
  61.840         73.33	     9.381
  61.860         68.33	     9.055
  61.880         63.33	     8.718
  61.900         64.17	     8.775
  61.920         50.83	     7.810
  61.940         62.50	     8.660
  61.960         70.00	     9.165
  61.980         65.83	     8.888
  62.000         68.33	     9.055
  62.020         80.00	     9.798
  62.040         85.00	    10.100
  62.060         54.17	     8.062
  62.080         64.17	     8.775
  62.100         48.33	     7.616
  62.120         43.33	     7.211
  62.140         41.67	     7.071
  62.160         59.17	     8.426
  62.180         51.67	     7.874
  62.200         43.33	     7.211
  62.220         54.17	     8.062
  62.240         40.00	     6.928
  62.260         39.17	     6.856
  62.280         36.67	     6.633
  62.300         51.67	     7.874
  62.320         28.33	     5.831
  62.340         35.00	     6.481
  62.360         40.00	     6.928
  62.380         28.33	     5.831
  62.400         42.50	     7.141
  62.420         45.00	     7.348
  62.440         43.33	     7.211
  62.460         41.67	     7.071
  62.480         37.50	     6.708
  62.500         57.50	     8.307
  62.520         42.50	     7.141
  62.540         50.00	     7.746
  62.560         43.33	     7.211
  62.580         40.00	     6.928
  62.600         48.33	     7.616
  62.620         44.17	     7.280
  62.640         43.33	     7.211
  62.660         50.00	     7.746
  62.680         41.67	     7.071
  62.700         47.50	     7.550
  62.720         54.17	     8.062
  62.740         38.33	     6.782
  62.760         43.33	     7.211
  62.780         42.50	     7.141
  62.800         53.33	     8.000
  62.820         42.50	     7.141
  62.840         35.83	     6.557
  62.860         36.67	     6.633
  62.880         36.67	     6.633
  62.900         37.50	     6.708
  62.920         34.17	     6.403
  62.940         36.67	     6.633
  62.960         36.67	     6.633
  62.980         43.33	     7.211
  63.000         27.50	     5.745
  63.020         25.00	     5.477
  63.040         37.50	     6.708
  63.060         29.17	     5.916
  63.080         38.33	     6.782
  63.100         34.17	     6.403
  63.120         32.50	     6.245
  63.140         45.83	     7.416
  63.160         33.33	     6.325
  63.180         32.50	     6.245
  63.200         38.33	     6.782
  63.220         35.83	     6.557
  63.240         35.00	     6.481
  63.260         42.50	     7.141
  63.280         38.33	     6.782
  63.300         43.33	     7.211
  63.320         42.50	     7.141
  63.340         49.17	     7.681
  63.360         38.33	     6.782
  63.380         40.83	     7.000
  63.400         31.67	     6.164
  63.420         40.83	     7.000
  63.440         42.50	     7.141
  63.460         37.50	     6.708
  63.480         50.00	     7.746
  63.500         43.33	     7.211
  63.520         40.83	     7.000
  63.540         45.83	     7.416
  63.560         54.17	     8.062
  63.580         40.00	     6.928
  63.600         37.50	     6.708
  63.620         46.67	     7.483
  63.640         52.50	     7.937
  63.660         35.83	     6.557
  63.680         45.00	     7.348
  63.700         45.83	     7.416
  63.720         30.83	     6.083
  63.740         52.50	     7.937
  63.760         42.50	     7.141
  63.780         42.50	     7.141
  63.800         51.67	     7.874
  63.820         50.83	     7.810
  63.840         41.67	     7.071
  63.860         55.83	     8.185
  63.880         54.17	     8.062
  63.900         64.17	     8.775
  63.920         78.33	     9.695
  63.940         97.50	    10.817
  63.960        108.33	    11.402
  63.980        102.50	    11.091
  64.000        105.83	    11.269
  64.020         79.17	     9.747
  64.040         78.33	     9.695
  64.060         75.00	     9.487
  64.080         69.17	     9.110
  64.100         84.17	    10.050
  64.120         80.83	     9.849
  64.140         79.17	     9.747
  64.160         75.83	     9.539
  64.180         91.67	    10.488
  64.200         64.17	     8.775
  64.220         56.67	     8.246
  64.240         66.67	     8.944
  64.260         57.50	     8.307
  64.280         67.50	     9.000
  64.300         53.33	     8.000
  64.320         51.67	     7.874
  64.340         36.67	     6.633
  64.360         42.50	     7.141
  64.380         51.67	     7.874
  64.400         45.83	     7.416
  64.420         40.00	     6.928
  64.440         36.67	     6.633
  64.460         47.50	     7.550
  64.480         42.50	     7.141
  64.500         35.83	     6.557
  64.520         47.50	     7.550
  64.540         37.50	     6.708
  64.560         38.33	     6.782
  64.580         31.67	     6.164
  64.600         36.67	     6.633
  64.620         42.50	     7.141
  64.640         34.17	     6.403
  64.660         44.17	     7.280
  64.680         45.83	     7.416
  64.700         36.67	     6.633
  64.720         42.50	     7.141
  64.740         40.83	     7.000
  64.760         50.00	     7.746
  64.780         35.83	     6.557
  64.800         30.00	     6.000
  64.820         36.67	     6.633
  64.840         41.67	     7.071
  64.860         45.00	     7.348
  64.880         52.50	     7.937
  64.900         54.17	     8.062
  64.920         38.33	     6.782
  64.940         55.83	     8.185
  64.960         50.83	     7.810
  64.980         55.83	     8.185
  65.000         47.50	     7.550
