
Filename:
	C:\Program Files\Thermo Electron\WinXRD\Datafiles\F_HERMAN\GEO\G67_RT.raw

File Created:
	February 20, 2020 - 02:01 AM

Specimen Id:
	G67_RT

Specimen Name:
	

Specimen Description:
	

Comment:
Scan Type: 2Theta Scan
Start Angle: 3 deg.
Stop Angle: 65 deg.
Num Points: 3101
Step Size: 0.02 deg.
Scan Rate: 1.000000
Scan Mode: Continuous
Wavelength: 1.540562
\Kalpha1: 1.540562	\Kalpha2: 1.544390	\Kbeta: 1.392218

Optics:
		Detector:
			 Type: Fixed Slits
		Tube: 
			 Type: Fixed Slits


Datas:
 Pos [deg]       Rate [CPS]      ESD [-]

Range 1 ---> Iteration 1
   3.000        475.00	    23.875
   3.020        425.83	    22.605
   3.040        455.83	    23.388
   3.060        430.83	    22.738
   3.080        479.17	    23.979
   3.100        408.33	    22.136
   3.120        411.67	    22.226
   3.140        410.00	    22.181
   3.160        377.50	    21.284
   3.180        424.17	    22.561
   3.200        440.00	    22.978
   3.220        395.83	    21.794
   3.240        418.33	    22.405
   3.260        380.83	    21.378
   3.280        418.33	    22.405
   3.300        378.33	    21.307
   3.320        420.00	    22.450
   3.340        409.17	    22.159
   3.360        398.33	    21.863
   3.380        400.00	    21.909
   3.400        385.00	    21.494
   3.420        399.17	    21.886
   3.440        371.67	    21.119
   3.460        382.50	    21.424
   3.480        380.00	    21.354
   3.500        350.00	    20.494
   3.520        375.83	    21.237
   3.540        345.83	    20.372
   3.560        368.33	    21.024
   3.580        355.83	    20.664
   3.600        353.33	    20.591
   3.620        365.83	    20.952
   3.640        350.83	    20.518
   3.660        335.00	    20.050
   3.680        355.83	    20.664
   3.700        345.00	    20.347
   3.720        353.33	    20.591
   3.740        358.33	    20.736
   3.760        328.33	    19.849
   3.780        361.67	    20.833
   3.800        384.17	    21.471
   3.820        310.83	    19.313
   3.840        338.33	    20.149
   3.860        335.83	    20.075
   3.880        295.83	    18.841
   3.900        330.00	    19.900
   3.920        300.83	    19.000
   3.940        310.83	    19.313
   3.960        289.17	    18.628
   3.980        318.33	    19.545
   4.000        303.33	    19.079
   4.020        302.50	    19.053
   4.040        318.33	    19.545
   4.060        304.17	    19.105
   4.080        333.33	    20.000
   4.100        311.67	    19.339
   4.120        309.17	    19.261
   4.140        300.00	    18.974
   4.160        295.00	    18.815
   4.180        324.17	    19.723
   4.200        301.67	    19.026
   4.220        332.50	    19.975
   4.240        314.17	    19.416
   4.260        305.83	    19.157
   4.280        286.67	    18.547
   4.300        289.17	    18.628
   4.320        287.50	    18.574
   4.340        274.17	    18.138
   4.360        291.67	    18.708
   4.380        287.50	    18.574
   4.400        300.83	    19.000
   4.420        256.67	    17.550
   4.440        266.67	    17.889
   4.460        287.50	    18.574
   4.480        280.00	    18.330
   4.500        279.17	    18.303
   4.520        276.67	    18.221
   4.540        255.83	    17.521
   4.560        276.67	    18.221
   4.580        275.00	    18.166
   4.600        267.50	    17.916
   4.620        264.17	    17.804
   4.640        266.67	    17.889
   4.660        265.00	    17.833
   4.680        257.50	    17.578
   4.700        264.17	    17.804
   4.720        273.33	    18.111
   4.740        262.50	    17.748
   4.760        260.00	    17.664
   4.780        257.50	    17.578
   4.800        275.83	    18.193
   4.820        273.33	    18.111
   4.840        244.17	    17.117
   4.860        234.17	    16.763
   4.880        241.67	    17.029
   4.900        271.67	    18.055
   4.920        232.50	    16.703
   4.940        245.83	    17.176
   4.960        265.83	    17.861
   4.980        240.83	    17.000
   5.000        254.17	    17.464
   5.020        225.00	    16.432
   5.040        231.67	    16.673
   5.060        234.17	    16.763
   5.080        204.17	    15.652
   5.100        230.00	    16.613
   5.120        225.83	    16.462
   5.140        234.17	    16.763
   5.160        245.00	    17.146
   5.180        207.50	    15.780
   5.200        290.83	    18.682
   5.220        241.67	    17.029
   5.240        239.17	    16.941
   5.260        225.83	    16.462
   5.280        254.17	    17.464
   5.300        197.50	    15.395
   5.320        237.50	    16.882
   5.340        265.83	    17.861
   5.360        245.00	    17.146
   5.380        212.50	    15.969
   5.400        250.00	    17.321
   5.420        256.67	    17.550
   5.440        230.00	    16.613
   5.460        200.00	    15.492
   5.480        220.83	    16.279
   5.500        217.50	    16.155
   5.520        195.83	    15.330
   5.540        215.00	    16.062
   5.560        201.67	    15.556
   5.580        208.33	    15.811
   5.600        211.67	    15.937
   5.620        204.17	    15.652
   5.640        230.83	    16.643
   5.660        242.50	    17.059
   5.680        205.83	    15.716
   5.700        231.67	    16.673
   5.720        224.17	    16.401
   5.740        200.83	    15.524
   5.760        234.17	    16.763
   5.780        209.17	    15.843
   5.800        241.67	    17.029
   5.820        243.33	    17.088
   5.840        215.00	    16.062
   5.860        210.83	    15.906
   5.880        226.67	    16.492
   5.900        225.83	    16.462
   5.920        249.17	    17.292
   5.940        255.00	    17.493
   5.960        218.33	    16.186
   5.980        256.67	    17.550
   6.000        246.67	    17.205
   6.020        242.50	    17.059
   6.040        223.33	    16.371
   6.060        255.83	    17.521
   6.080        279.17	    18.303
   6.100        276.67	    18.221
   6.120        298.33	    18.921
   6.140        316.67	    19.494
   6.160        283.33	    18.439
   6.180        270.83	    18.028
   6.200        237.50	    16.882
   6.220        204.17	    15.652
   6.240        205.83	    15.716
   6.260        215.83	    16.093
   6.280        187.50	    15.000
   6.300        214.17	    16.031
   6.320        200.00	    15.492
   6.340        192.50	    15.199
   6.360        195.00	    15.297
   6.380        199.17	    15.460
   6.400        210.00	    15.875
   6.420        176.67	    14.560
   6.440        189.17	    15.067
   6.460        204.17	    15.652
   6.480        193.33	    15.232
   6.500        190.00	    15.100
   6.520        212.50	    15.969
   6.540        181.67	    14.765
   6.560        170.83	    14.318
   6.580        193.33	    15.232
   6.600        206.67	    15.748
   6.620        181.67	    14.765
   6.640        168.33	    14.213
   6.660        184.17	    14.866
   6.680        169.17	    14.248
   6.700        179.17	    14.663
   6.720        188.33	    15.033
   6.740        158.33	    13.784
   6.760        200.00	    15.492
   6.780        170.00	    14.283
   6.800        202.50	    15.588
   6.820        172.50	    14.387
   6.840        203.33	    15.620
   6.860        170.83	    14.318
   6.880        158.33	    13.784
   6.900        185.83	    14.933
   6.920        198.33	    15.427
   6.940        183.33	    14.832
   6.960        184.17	    14.866
   6.980        188.33	    15.033
   7.000        153.33	    13.565
   7.020        172.50	    14.387
   7.040        159.17	    13.820
   7.060        174.17	    14.457
   7.080        178.33	    14.629
   7.100        168.33	    14.213
   7.120        184.17	    14.866
   7.140        151.67	    13.491
   7.160        160.83	    13.892
   7.180        163.33	    14.000
   7.200        165.83	    14.107
   7.220        160.83	    13.892
   7.240        174.17	    14.457
   7.260        164.17	    14.036
   7.280        182.50	    14.799
   7.300        189.17	    15.067
   7.320        164.17	    14.036
   7.340        150.83	    13.454
   7.360        165.83	    14.107
   7.380        156.67	    13.711
   7.400        162.50	    13.964
   7.420        165.83	    14.107
   7.440        170.00	    14.283
   7.460        160.00	    13.856
   7.480        150.83	    13.454
   7.500        160.00	    13.856
   7.520        143.33	    13.115
   7.540        156.67	    13.711
   7.560        151.67	    13.491
   7.580        163.33	    14.000
   7.600        173.33	    14.422
   7.620        138.33	    12.884
   7.640        141.67	    13.038
   7.660        156.67	    13.711
   7.680        138.33	    12.884
   7.700        151.67	    13.491
   7.720        163.33	    14.000
   7.740        164.17	    14.036
   7.760        175.83	    14.526
   7.780        159.17	    13.820
   7.800        139.17	    12.923
   7.820        150.00	    13.416
   7.840        151.67	    13.491
   7.860        155.83	    13.675
   7.880        144.17	    13.153
   7.900        130.00	    12.490
   7.920        162.50	    13.964
   7.940        138.33	    12.884
   7.960        144.17	    13.153
   7.980        146.67	    13.266
   8.000        132.50	    12.610
   8.020        145.83	    13.229
   8.040        165.83	    14.107
   8.060        137.50	    12.845
   8.080        163.33	    14.000
   8.100        168.33	    14.213
   8.120        144.17	    13.153
   8.140        144.17	    13.153
   8.160        153.33	    13.565
   8.180        164.17	    14.036
   8.200        140.83	    13.000
   8.220        154.17	    13.601
   8.240        152.50	    13.528
   8.260        160.83	    13.892
   8.280        145.83	    13.229
   8.300        140.83	    13.000
   8.320        144.17	    13.153
   8.340        135.00	    12.728
   8.360        148.33	    13.342
   8.380        140.83	    13.000
   8.400        164.17	    14.036
   8.420        157.50	    13.748
   8.440        165.83	    14.107
   8.460        156.67	    13.711
   8.480        163.33	    14.000
   8.500        165.00	    14.071
   8.520        170.83	    14.318
   8.540        163.33	    14.000
   8.560        179.17	    14.663
   8.580        170.00	    14.283
   8.600        209.17	    15.843
   8.620        183.33	    14.832
   8.640        198.33	    15.427
   8.660        230.00	    16.613
   8.680        239.17	    16.941
   8.700        262.50	    17.748
   8.720        249.17	    17.292
   8.740        320.00	    19.596
   8.760        418.33	    22.405
   8.780        514.17	    24.839
   8.800        620.83	    27.295
   8.820        625.83	    27.404
   8.840        491.67	    24.290
   8.860        329.17	    19.875
   8.880        204.17	    15.652
   8.900        161.67	    13.928
   8.920        176.67	    14.560
   8.940        157.50	    13.748
   8.960        147.50	    13.304
   8.980        150.83	    13.454
   9.000        138.33	    12.884
   9.020        149.17	    13.379
   9.040        154.17	    13.601
   9.060        160.00	    13.856
   9.080        181.67	    14.765
   9.100        194.17	    15.264
   9.120        175.83	    14.526
   9.140        155.00	    13.638
   9.160        141.67	    13.038
   9.180        106.67	    11.314
   9.200        146.67	    13.266
   9.220        135.00	    12.728
   9.240        114.17	    11.705
   9.260        128.33	    12.410
   9.280        131.67	    12.570
   9.300        130.83	    12.530
   9.320        165.00	    14.071
   9.340        140.00	    12.961
   9.360        137.50	    12.845
   9.380        136.67	    12.806
   9.400        126.67	    12.329
   9.420        134.17	    12.689
   9.440        130.83	    12.530
   9.460        140.83	    13.000
   9.480        130.83	    12.530
   9.500        118.33	    11.916
   9.520        108.33	    11.402
   9.540        133.33	    12.649
   9.560        123.33	    12.166
   9.580        133.33	    12.649
   9.600        102.50	    11.091
   9.620        102.50	    11.091
   9.640        120.83	    12.042
   9.660        130.00	    12.490
   9.680        120.00	    12.000
   9.700        128.33	    12.410
   9.720        111.67	    11.576
   9.740        127.50	    12.369
   9.760        114.17	    11.705
   9.780        117.50	    11.874
   9.800        108.33	    11.402
   9.820        113.33	    11.662
   9.840        140.83	    13.000
   9.860        130.83	    12.530
   9.880        116.67	    11.832
   9.900        113.33	    11.662
   9.920        126.67	    12.329
   9.940        106.67	    11.314
   9.960        105.00	    11.225
   9.980        122.50	    12.124
  10.000        135.83	    12.767
  10.020        109.17	    11.446
  10.040        108.33	    11.402
  10.060        121.67	    12.083
  10.080        120.00	    12.000
  10.100        116.67	    11.832
  10.120         94.17	    10.630
  10.140        124.17	    12.207
  10.160         96.67	    10.770
  10.180        108.33	    11.402
  10.200        112.50	    11.619
  10.220        115.83	    11.790
  10.240        109.17	    11.446
  10.260        114.17	    11.705
  10.280        107.50	    11.358
  10.300        123.33	    12.166
  10.320        105.00	    11.225
  10.340        131.67	    12.570
  10.360        146.67	    13.266
  10.380        147.50	    13.304
  10.400        165.83	    14.107
  10.420        195.00	    15.297
  10.440        222.50	    16.340
  10.460        240.00	    16.971
  10.480        200.83	    15.524
  10.500        165.83	    14.107
  10.520        135.83	    12.767
  10.540        113.33	    11.662
  10.560        121.67	    12.083
  10.580        127.50	    12.369
  10.600        104.17	    11.180
  10.620         88.33	    10.296
  10.640        115.00	    11.747
  10.660        107.50	    11.358
  10.680        109.17	    11.446
  10.700        110.00	    11.489
  10.720        115.00	    11.747
  10.740        101.67	    11.045
  10.760         90.83	    10.440
  10.780        105.83	    11.269
  10.800        109.17	    11.446
  10.820         96.67	    10.770
  10.840        110.00	    11.489
  10.860         93.33	    10.583
  10.880         95.83	    10.724
  10.900        110.83	    11.533
  10.920        115.83	    11.790
  10.940        111.67	    11.576
  10.960         96.67	    10.770
  10.980        107.50	    11.358
  11.000         93.33	    10.583
  11.020        122.50	    12.124
  11.040        103.33	    11.136
  11.060         98.33	    10.863
  11.080        100.83	    11.000
  11.100         97.50	    10.817
  11.120        100.83	    11.000
  11.140         90.00	    10.392
  11.160        105.00	    11.225
  11.180         95.00	    10.677
  11.200        121.67	    12.083
  11.220         97.50	    10.817
  11.240         97.50	    10.817
  11.260        105.00	    11.225
  11.280        100.83	    11.000
  11.300         93.33	    10.583
  11.320        101.67	    11.045
  11.340        106.67	    11.314
  11.360         95.83	    10.724
  11.380        105.83	    11.269
  11.400         95.00	    10.677
  11.420        109.17	    11.446
  11.440        101.67	    11.045
  11.460         96.67	    10.770
  11.480         86.67	    10.198
  11.500        105.83	    11.269
  11.520        109.17	    11.446
  11.540        106.67	    11.314
  11.560        113.33	    11.662
  11.580        114.17	    11.705
  11.600        105.00	    11.225
  11.620        110.83	    11.533
  11.640         95.83	    10.724
  11.660        112.50	    11.619
  11.680         89.17	    10.344
  11.700        109.17	    11.446
  11.720        108.33	    11.402
  11.740        102.50	    11.091
  11.760        113.33	    11.662
  11.780        108.33	    11.402
  11.800        126.67	    12.329
  11.820         92.50	    10.536
  11.840        125.83	    12.288
  11.860        120.00	    12.000
  11.880        130.83	    12.530
  11.900        116.67	    11.832
  11.920        126.67	    12.329
  11.940        122.50	    12.124
  11.960        135.83	    12.767
  11.980        135.00	    12.728
  12.000        139.17	    12.923
  12.020        175.83	    14.526
  12.040        191.67	    15.166
  12.060        238.33	    16.912
  12.080        298.33	    18.921
  12.100        424.17	    22.561
  12.120        527.50	    25.159
  12.140        512.50	    24.799
  12.160        371.67	    21.119
  12.180        265.00	    17.833
  12.200        210.00	    15.875
  12.220        175.00	    14.491
  12.240        211.67	    15.937
  12.260        217.50	    16.155
  12.280        235.00	    16.793
  12.300        245.83	    17.176
  12.320        243.33	    17.088
  12.340        208.33	    15.811
  12.360        202.50	    15.588
  12.380        260.00	    17.664
  12.400        287.50	    18.574
  12.420        330.00	    19.900
  12.440        340.83	    20.224
  12.460        275.83	    18.193
  12.480        194.17	    15.264
  12.500        150.83	    13.454
  12.520        130.83	    12.530
  12.540        107.50	    11.358
  12.560        106.67	    11.314
  12.580         93.33	    10.583
  12.600        104.17	    11.180
  12.620         90.83	    10.440
  12.640         90.00	    10.392
  12.660         89.17	    10.344
  12.680         85.00	    10.100
  12.700        102.50	    11.091
  12.720        112.50	    11.619
  12.740        106.67	    11.314
  12.760         93.33	    10.583
  12.780         87.50	    10.247
  12.800        109.17	    11.446
  12.820         87.50	    10.247
  12.840        106.67	    11.314
  12.860         90.83	    10.440
  12.880         95.00	    10.677
  12.900         63.33	     8.718
  12.920         98.33	    10.863
  12.940         76.67	     9.592
  12.960         88.33	    10.296
  12.980         97.50	    10.817
  13.000         75.00	     9.487
  13.020         95.83	    10.724
  13.040         82.50	     9.950
  13.060         88.33	    10.296
  13.080        103.33	    11.136
  13.100         96.67	    10.770
  13.120         77.50	     9.644
  13.140         79.17	     9.747
  13.160         91.67	    10.488
  13.180         97.50	    10.817
  13.200         88.33	    10.296
  13.220         85.00	    10.100
  13.240         90.83	    10.440
  13.260         95.00	    10.677
  13.280         87.50	    10.247
  13.300        102.50	    11.091
  13.320        108.33	    11.402
  13.340         99.17	    10.909
  13.360         74.17	     9.434
  13.380         81.67	     9.899
  13.400         90.00	    10.392
  13.420         90.00	    10.392
  13.440         90.00	    10.392
  13.460         85.83	    10.149
  13.480         90.00	    10.392
  13.500         79.17	     9.747
  13.520         96.67	    10.770
  13.540         89.17	    10.344
  13.560        117.50	    11.874
  13.580        112.50	    11.619
  13.600         87.50	    10.247
  13.620         71.67	     9.274
  13.640         79.17	     9.747
  13.660         65.83	     8.888
  13.680         86.67	    10.198
  13.700         97.50	    10.817
  13.720        100.83	    11.000
  13.740        119.17	    11.958
  13.760        197.50	    15.395
  13.780        226.67	    16.492
  13.800        215.00	    16.062
  13.820        193.33	    15.232
  13.840        130.00	    12.490
  13.860        106.67	    11.314
  13.880        106.67	    11.314
  13.900        109.17	    11.446
  13.920         84.17	    10.050
  13.940         99.17	    10.909
  13.960         84.17	    10.050
  13.980         90.83	    10.440
  14.000         83.33	    10.000
  14.020        101.67	    11.045
  14.040         91.67	    10.488
  14.060         97.50	    10.817
  14.080         95.83	    10.724
  14.100        100.00	    10.954
  14.120         99.17	    10.909
  14.140         82.50	     9.950
  14.160         79.17	     9.747
  14.180         73.33	     9.381
  14.200         72.50	     9.327
  14.220         67.50	     9.000
  14.240         91.67	    10.488
  14.260         82.50	     9.950
  14.280         79.17	     9.747
  14.300         76.67	     9.592
  14.320         80.00	     9.798
  14.340         75.83	     9.539
  14.360         77.50	     9.644
  14.380         81.67	     9.899
  14.400         78.33	     9.695
  14.420         81.67	     9.899
  14.440         92.50	    10.536
  14.460         79.17	     9.747
  14.480         77.50	     9.644
  14.500         79.17	     9.747
  14.520         75.00	     9.487
  14.540         65.83	     8.888
  14.560         80.83	     9.849
  14.580         70.83	     9.220
  14.600         66.67	     8.944
  14.620         88.33	    10.296
  14.640         77.50	     9.644
  14.660         78.33	     9.695
  14.680         72.50	     9.327
  14.700         74.17	     9.434
  14.720         71.67	     9.274
  14.740         81.67	     9.899
  14.760         72.50	     9.327
  14.780         66.67	     8.944
  14.800         85.83	    10.149
  14.820         63.33	     8.718
  14.840         74.17	     9.434
  14.860         95.00	    10.677
  14.880         85.83	    10.149
  14.900         89.17	    10.344
  14.920         83.33	    10.000
  14.940         83.33	    10.000
  14.960         86.67	    10.198
  14.980         84.17	    10.050
  15.000         67.50	     9.000
  15.020         75.00	     9.487
  15.040         81.67	     9.899
  15.060         88.33	    10.296
  15.080         76.67	     9.592
  15.100         79.17	     9.747
  15.120         71.67	     9.274
  15.140         74.17	     9.434
  15.160         75.83	     9.539
  15.180         64.17	     8.775
  15.200         67.50	     9.000
  15.220         67.50	     9.000
  15.240         80.00	     9.798
  15.260         69.17	     9.110
  15.280         73.33	     9.381
  15.300         73.33	     9.381
  15.320         74.17	     9.434
  15.340         64.17	     8.775
  15.360         85.00	    10.100
  15.380         51.67	     7.874
  15.400         80.00	     9.798
  15.420         71.67	     9.274
  15.440         76.67	     9.592
  15.460         65.00	     8.832
  15.480         75.83	     9.539
  15.500         77.50	     9.644
  15.520         69.17	     9.110
  15.540         78.33	     9.695
  15.560         77.50	     9.644
  15.580         72.50	     9.327
  15.600         69.17	     9.110
  15.620         64.17	     8.775
  15.640         80.00	     9.798
  15.660         80.00	     9.798
  15.680         69.17	     9.110
  15.700         90.83	    10.440
  15.720         70.83	     9.220
  15.740         78.33	     9.695
  15.760         70.83	     9.220
  15.780         68.33	     9.055
  15.800         69.17	     9.110
  15.820         87.50	    10.247
  15.840         59.17	     8.426
  15.860         71.67	     9.274
  15.880         62.50	     8.660
  15.900         66.67	     8.944
  15.920         78.33	     9.695
  15.940         61.67	     8.602
  15.960         69.17	     9.110
  15.980         85.00	    10.100
  16.000         55.83	     8.185
  16.020         58.33	     8.367
  16.040         72.50	     9.327
  16.060         88.33	    10.296
  16.080         66.67	     8.944
  16.100         72.50	     9.327
  16.120         73.33	     9.381
  16.140         68.33	     9.055
  16.160         67.50	     9.000
  16.180         71.67	     9.274
  16.200         69.17	     9.110
  16.220         68.33	     9.055
  16.240         58.33	     8.367
  16.260         75.00	     9.487
  16.280         73.33	     9.381
  16.300         68.33	     9.055
  16.320         70.83	     9.220
  16.340         81.67	     9.899
  16.360         68.33	     9.055
  16.380         73.33	     9.381
  16.400         75.83	     9.539
  16.420         64.17	     8.775
  16.440         66.67	     8.944
  16.460         72.50	     9.327
  16.480         60.83	     8.544
  16.500         55.00	     8.124
  16.520         75.00	     9.487
  16.540         80.00	     9.798
  16.560         79.17	     9.747
  16.580         81.67	     9.899
  16.600         71.67	     9.274
  16.620         56.67	     8.246
  16.640         69.17	     9.110
  16.660         60.83	     8.544
  16.680         67.50	     9.000
  16.700         78.33	     9.695
  16.720         50.83	     7.810
  16.740         66.67	     8.944
  16.760         60.00	     8.485
  16.780         70.83	     9.220
  16.800         68.33	     9.055
  16.820         69.17	     9.110
  16.840         70.00	     9.165
  16.860         59.17	     8.426
  16.880         70.00	     9.165
  16.900         74.17	     9.434
  16.920         65.00	     8.832
  16.940         60.83	     8.544
  16.960         70.83	     9.220
  16.980         64.17	     8.775
  17.000         69.17	     9.110
  17.020         67.50	     9.000
  17.040         56.67	     8.246
  17.060         69.17	     9.110
  17.080         80.00	     9.798
  17.100         62.50	     8.660
  17.120         75.83	     9.539
  17.140         66.67	     8.944
  17.160         64.17	     8.775
  17.180         71.67	     9.274
  17.200         65.83	     8.888
  17.220         74.17	     9.434
  17.240         63.33	     8.718
  17.260         63.33	     8.718
  17.280         77.50	     9.644
  17.300         65.00	     8.832
  17.320         72.50	     9.327
  17.340         62.50	     8.660
  17.360         77.50	     9.644
  17.380         66.67	     8.944
  17.400         83.33	    10.000
  17.420         65.83	     8.888
  17.440         87.50	    10.247
  17.460         79.17	     9.747
  17.480         87.50	    10.247
  17.500         81.67	     9.899
  17.520         88.33	    10.296
  17.540         78.33	     9.695
  17.560         73.33	     9.381
  17.580         90.00	    10.392
  17.600         81.67	     9.899
  17.620         84.17	    10.050
  17.640        102.50	    11.091
  17.660        115.83	    11.790
  17.680        142.50	    13.077
  17.700        190.83	    15.133
  17.720        205.00	    15.684
  17.740        248.33	    17.263
  17.760        291.67	    18.708
  17.780        239.17	    16.941
  17.800        180.00	    14.697
  17.820        121.67	    12.083
  17.840        105.00	    11.225
  17.860         86.67	    10.198
  17.880         86.67	    10.198
  17.900         82.50	     9.950
  17.920         80.83	     9.849
  17.940         80.00	     9.798
  17.960         71.67	     9.274
  17.980         75.00	     9.487
  18.000         67.50	     9.000
  18.020         83.33	    10.000
  18.040         65.83	     8.888
  18.060         67.50	     9.000
  18.080         80.83	     9.849
  18.100         75.83	     9.539
  18.120         62.50	     8.660
  18.140         69.17	     9.110
  18.160         65.83	     8.888
  18.180         68.33	     9.055
  18.200         78.33	     9.695
  18.220         80.00	     9.798
  18.240         64.17	     8.775
  18.260         66.67	     8.944
  18.280         75.00	     9.487
  18.300         68.33	     9.055
  18.320         84.17	    10.050
  18.340         87.50	    10.247
  18.360        106.67	    11.314
  18.380         84.17	    10.050
  18.400         80.00	     9.798
  18.420         76.67	     9.592
  18.440         84.17	    10.050
  18.460        131.67	    12.570
  18.480        139.17	    12.923
  18.500        143.33	    13.115
  18.520        130.83	    12.530
  18.540        140.83	    13.000
  18.560        122.50	    12.124
  18.580        115.83	    11.790
  18.600        108.33	    11.402
  18.620        119.17	    11.958
  18.640        113.33	    11.662
  18.660        135.00	    12.728
  18.680        107.50	    11.358
  18.700        148.33	    13.342
  18.720        156.67	    13.711
  18.740        154.17	    13.601
  18.760        135.00	    12.728
  18.780        107.50	    11.358
  18.800         96.67	    10.770
  18.820         99.17	    10.909
  18.840         89.17	    10.344
  18.860         84.17	    10.050
  18.880         83.33	    10.000
  18.900         80.00	     9.798
  18.920         74.17	     9.434
  18.940         65.83	     8.888
  18.960         65.83	     8.888
  18.980         55.83	     8.185
  19.000         60.83	     8.544
  19.020         80.83	     9.849
  19.040         75.83	     9.539
  19.060         75.83	     9.539
  19.080         77.50	     9.644
  19.100         64.17	     8.775
  19.120         90.00	    10.392
  19.140         75.00	     9.487
  19.160         65.83	     8.888
  19.180         83.33	    10.000
  19.200         89.17	    10.344
  19.220         66.67	     8.944
  19.240         70.83	     9.220
  19.260         83.33	    10.000
  19.280         75.83	     9.539
  19.300         73.33	     9.381
  19.320         74.17	     9.434
  19.340         65.83	     8.888
  19.360         74.17	     9.434
  19.380         72.50	     9.327
  19.400         70.00	     9.165
  19.420         60.00	     8.485
  19.440         70.00	     9.165
  19.460         75.83	     9.539
  19.480         69.17	     9.110
  19.500         75.83	     9.539
  19.520         70.83	     9.220
  19.540         69.17	     9.110
  19.560         71.67	     9.274
  19.580         85.00	    10.100
  19.600         82.50	     9.950
  19.620         80.83	     9.849
  19.640         80.00	     9.798
  19.660         93.33	    10.583
  19.680         75.83	     9.539
  19.700         82.50	     9.950
  19.720         85.00	    10.100
  19.740         84.17	    10.050
  19.760         90.83	    10.440
  19.780         90.00	    10.392
  19.800         87.50	    10.247
  19.820         79.17	     9.747
  19.840         84.17	    10.050
  19.860         74.17	     9.434
  19.880         71.67	     9.274
  19.900         88.33	    10.296
  19.920         95.83	    10.724
  19.940         75.83	     9.539
  19.960         65.83	     8.888
  19.980         73.33	     9.381
  20.000         70.83	     9.220
  20.020         72.50	     9.327
  20.040         71.67	     9.274
  20.060         69.17	     9.110
  20.080         57.50	     8.307
  20.100         68.33	     9.055
  20.120         63.33	     8.718
  20.140         71.67	     9.274
  20.160         80.00	     9.798
  20.180         69.17	     9.110
  20.200         74.17	     9.434
  20.220         69.17	     9.110
  20.240         78.33	     9.695
  20.260         65.83	     8.888
  20.280         58.33	     8.367
  20.300         65.83	     8.888
  20.320         69.17	     9.110
  20.340         73.33	     9.381
  20.360         69.17	     9.110
  20.380         60.83	     8.544
  20.400         67.50	     9.000
  20.420         70.00	     9.165
  20.440         79.17	     9.747
  20.460         66.67	     8.944
  20.480         75.83	     9.539
  20.500         72.50	     9.327
  20.520         62.50	     8.660
  20.540         88.33	    10.296
  20.560         80.83	     9.849
  20.580         82.50	     9.950
  20.600        100.83	    11.000
  20.620         90.00	    10.392
  20.640         97.50	    10.817
  20.660         99.17	    10.909
  20.680        108.33	    11.402
  20.700        121.67	    12.083
  20.720        214.17	    16.031
  20.740        329.17	    19.875
  20.760        495.83	    24.393
  20.780        715.83	    29.309
  20.800        709.17	    29.172
  20.820        549.17	    25.671
  20.840        460.83	    23.516
  20.860        364.17	    20.905
  20.880        188.33	    15.033
  20.900        140.00	    12.961
  20.920        134.17	    12.689
  20.940        154.17	    13.601
  20.960        122.50	    12.124
  20.980        120.00	    12.000
  21.000        100.83	    11.000
  21.020        100.83	    11.000
  21.040         83.33	    10.000
  21.060         61.67	     8.602
  21.080         74.17	     9.434
  21.100         84.17	    10.050
  21.120         74.17	     9.434
  21.140         72.50	     9.327
  21.160         75.83	     9.539
  21.180         80.83	     9.849
  21.200         58.33	     8.367
  21.220         61.67	     8.602
  21.240         66.67	     8.944
  21.260         62.50	     8.660
  21.280         55.83	     8.185
  21.300         69.17	     9.110
  21.320         78.33	     9.695
  21.340         68.33	     9.055
  21.360         56.67	     8.246
  21.380         58.33	     8.367
  21.400         61.67	     8.602
  21.420         70.00	     9.165
  21.440         63.33	     8.718
  21.460         62.50	     8.660
  21.480         67.50	     9.000
  21.500         70.83	     9.220
  21.520         70.00	     9.165
  21.540         65.00	     8.832
  21.560         77.50	     9.644
  21.580         57.50	     8.307
  21.600         55.83	     8.185
  21.620         75.00	     9.487
  21.640         66.67	     8.944
  21.660         65.00	     8.832
  21.680         54.17	     8.062
  21.700         48.33	     7.616
  21.720         76.67	     9.592
  21.740         65.00	     8.832
  21.760         66.67	     8.944
  21.780         64.17	     8.775
  21.800         72.50	     9.327
  21.820         80.00	     9.798
  21.840         78.33	     9.695
  21.860         59.17	     8.426
  21.880         62.50	     8.660
  21.900         85.83	    10.149
  21.920        100.00	    10.954
  21.940        156.67	    13.711
  21.960        165.83	    14.107
  21.980        209.17	    15.843
  22.000        172.50	    14.387
  22.020        168.33	    14.213
  22.040        129.17	    12.450
  22.060        106.67	    11.314
  22.080        110.00	    11.489
  22.100         78.33	     9.695
  22.120         73.33	     9.381
  22.140         77.50	     9.644
  22.160         69.17	     9.110
  22.180         70.00	     9.165
  22.200         74.17	     9.434
  22.220         84.17	    10.050
  22.240         79.17	     9.747
  22.260         78.33	     9.695
  22.280         69.17	     9.110
  22.300         53.33	     8.000
  22.320         60.83	     8.544
  22.340         70.83	     9.220
  22.360         70.00	     9.165
  22.380         73.33	     9.381
  22.400         75.00	     9.487
  22.420         86.67	    10.198
  22.440         80.83	     9.849
  22.460         65.83	     8.888
  22.480         63.33	     8.718
  22.500         62.50	     8.660
  22.520         67.50	     9.000
  22.540         57.50	     8.307
  22.560         63.33	     8.718
  22.580         59.17	     8.426
  22.600         57.50	     8.307
  22.620         60.00	     8.485
  22.640         76.67	     9.592
  22.660         67.50	     9.000
  22.680         62.50	     8.660
  22.700         64.17	     8.775
  22.720         64.17	     8.775
  22.740         80.00	     9.798
  22.760         80.00	     9.798
  22.780         95.83	    10.724
  22.800         78.33	     9.695
  22.820        101.67	    11.045
  22.840         98.33	    10.863
  22.860         91.67	    10.488
  22.880         90.00	    10.392
  22.900         73.33	     9.381
  22.920         71.67	     9.274
  22.940         97.50	    10.817
  22.960        104.17	    11.180
  22.980         80.00	     9.798
  23.000         92.50	    10.536
  23.020         83.33	    10.000
  23.040         81.67	     9.899
  23.060         70.00	     9.165
  23.080         72.50	     9.327
  23.100         58.33	     8.367
  23.120         65.00	     8.832
  23.140         52.50	     7.937
  23.160         63.33	     8.718
  23.180         70.83	     9.220
  23.200         65.83	     8.888
  23.220         59.17	     8.426
  23.240         65.00	     8.832
  23.260         64.17	     8.775
  23.280         57.50	     8.307
  23.300         70.83	     9.220
  23.320         65.00	     8.832
  23.340         74.17	     9.434
  23.360         75.00	     9.487
  23.380         96.67	    10.770
  23.400        102.50	    11.091
  23.420        129.17	    12.450
  23.440        132.50	    12.610
  23.460        185.83	    14.933
  23.480        191.67	    15.166
  23.500        184.17	    14.866
  23.520        154.17	    13.601
  23.540        155.00	    13.638
  23.560        136.67	    12.806
  23.580        103.33	    11.136
  23.600        100.00	    10.954
  23.620         87.50	    10.247
  23.640         98.33	    10.863
  23.660         78.33	     9.695
  23.680         84.17	    10.050
  23.700         80.83	     9.849
  23.720         75.00	     9.487
  23.740        104.17	    11.180
  23.760         81.67	     9.899
  23.780         95.83	    10.724
  23.800         80.83	     9.849
  23.820         78.33	     9.695
  23.840        101.67	    11.045
  23.860         86.67	    10.198
  23.880        100.83	    11.000
  23.900         94.17	    10.630
  23.920        115.00	    11.747
  23.940        123.33	    12.166
  23.960        131.67	    12.570
  23.980        106.67	    11.314
  24.000        100.83	    11.000
  24.020         92.50	    10.536
  24.040         90.00	    10.392
  24.060        115.83	    11.790
  24.080        135.00	    12.728
  24.100        140.00	    12.961
  24.120        105.83	    11.269
  24.140        118.33	    11.916
  24.160        140.00	    12.961
  24.180        118.33	    11.916
  24.200        155.83	    13.675
  24.220        170.00	    14.283
  24.240        186.67	    14.967
  24.260        191.67	    15.166
  24.280        151.67	    13.491
  24.300        139.17	    12.923
  24.320        127.50	    12.369
  24.340        101.67	    11.045
  24.360        111.67	    11.576
  24.380        109.17	    11.446
  24.400        116.67	    11.832
  24.420        128.33	    12.410
  24.440        151.67	    13.491
  24.460        185.83	    14.933
  24.480        246.67	    17.205
  24.500        264.17	    17.804
  24.520        275.00	    18.166
  24.540        275.83	    18.193
  24.560        257.50	    17.578
  24.580        233.33	    16.733
  24.600        215.83	    16.093
  24.620        174.17	    14.457
  24.640        173.33	    14.422
  24.660        145.83	    13.229
  24.680        146.67	    13.266
  24.700        147.50	    13.304
  24.720        139.17	    12.923
  24.740        161.67	    13.928
  24.760        177.50	    14.595
  24.780        159.17	    13.820
  24.800        160.00	    13.856
  24.820        153.33	    13.565
  24.840        135.00	    12.728
  24.860        113.33	    11.662
  24.880        137.50	    12.845
  24.900        112.50	    11.619
  24.920        125.83	    12.288
  24.940         99.17	    10.909
  24.960        123.33	    12.166
  24.980        130.00	    12.490
  25.000        137.50	    12.845
  25.020        170.00	    14.283
  25.040        203.33	    15.620
  25.060        225.83	    16.462
  25.080        216.67	    16.125
  25.100        230.00	    16.613
  25.120        199.17	    15.460
  25.140        187.50	    15.000
  25.160        149.17	    13.379
  25.180        145.00	    13.191
  25.200        110.00	    11.489
  25.220        101.67	    11.045
  25.240         89.17	    10.344
  25.260         82.50	     9.950
  25.280        126.67	    12.329
  25.300        130.00	    12.490
  25.320        118.33	    11.916
  25.340        120.83	    12.042
  25.360        130.83	    12.530
  25.380        126.67	    12.329
  25.400        137.50	    12.845
  25.420        160.00	    13.856
  25.440        172.50	    14.387
  25.460        178.33	    14.629
  25.480        154.17	    13.601
  25.500        135.00	    12.728
  25.520        139.17	    12.923
  25.540        175.00	    14.491
  25.560        124.17	    12.207
  25.580        129.17	    12.450
  25.600        126.67	    12.329
  25.620        114.17	    11.705
  25.640        109.17	    11.446
  25.660        104.17	    11.180
  25.680        100.83	    11.000
  25.700         80.00	     9.798
  25.720         89.17	    10.344
  25.740         83.33	    10.000
  25.760         67.50	     9.000
  25.780         74.17	     9.434
  25.800         71.67	     9.274
  25.820         75.00	     9.487
  25.840         85.83	    10.149
  25.860         68.33	     9.055
  25.880         58.33	     8.367
  25.900         72.50	     9.327
  25.920         69.17	     9.110
  25.940         59.17	     8.426
  25.960         85.83	    10.149
  25.980         86.67	    10.198
  26.000         83.33	    10.000
  26.020         74.17	     9.434
  26.040         70.83	     9.220
  26.060         78.33	     9.695
  26.080         73.33	     9.381
  26.100         86.67	    10.198
  26.120         82.50	     9.950
  26.140         72.50	     9.327
  26.160         72.50	     9.327
  26.180         84.17	    10.050
  26.200        100.83	    11.000
  26.220        101.67	    11.045
  26.240        115.00	    11.747
  26.260        112.50	    11.619
  26.280        115.00	    11.747
  26.300        135.83	    12.767
  26.320        140.83	    13.000
  26.340        203.33	    15.620
  26.360        210.00	    15.875
  26.380        185.00	    14.900
  26.400        225.83	    16.462
  26.420        253.33	    17.436
  26.440        260.83	    17.692
  26.460        331.67	    19.950
  26.480        457.50	    23.431
  26.500        686.67	    28.705
  26.520       1131.67	    36.851
  26.540       1945.83	    48.322
  26.560       2771.67	    57.671
  26.580       2747.50	    57.420
  26.600       2039.17	    49.467
  26.620       1710.83	    45.310
  26.640       1550.83	    43.139
  26.660       1125.00	    36.742
  26.680        566.67	    26.077
  26.700        399.17	    21.886
  26.720        400.00	    21.909
  26.740        498.33	    24.454
  26.760        523.33	    25.060
  26.780        581.67	    26.420
  26.800        604.17	    26.926
  26.820        639.17	    27.695
  26.840        575.00	    26.268
  26.860        449.17	    23.216
  26.880        345.83	    20.372
  26.900        257.50	    17.578
  26.920        225.83	    16.462
  26.940        168.33	    14.213
  26.960        154.17	    13.601
  26.980        123.33	    12.166
  27.000        117.50	    11.874
  27.020        125.00	    12.247
  27.040        140.00	    12.961
  27.060         99.17	    10.909
  27.080        101.67	    11.045
  27.100        115.83	    11.790
  27.120        103.33	    11.136
  27.140        110.00	    11.489
  27.160         82.50	     9.950
  27.180         84.17	    10.050
  27.200        105.00	    11.225
  27.220         95.83	    10.724
  27.240         70.00	     9.165
  27.260        106.67	    11.314
  27.280        107.50	    11.358
  27.300        109.17	    11.446
  27.320        118.33	    11.916
  27.340        215.00	    16.062
  27.360        235.83	    16.823
  27.380        240.00	    16.971
  27.400        220.83	    16.279
  27.420        205.83	    15.716
  27.440        240.83	    17.000
  27.460        205.83	    15.716
  27.480        219.17	    16.217
  27.500        195.83	    15.330
  27.520        156.67	    13.711
  27.540        154.17	    13.601
  27.560        119.17	    11.958
  27.580        130.00	    12.490
  27.600        159.17	    13.820
  27.620        245.00	    17.146
  27.640        337.50	    20.125
  27.660        313.33	    19.391
  27.680        306.67	    19.183
  27.700        310.83	    19.313
  27.720        310.83	    19.313
  27.740        277.50	    18.248
  27.760        295.83	    18.841
  27.780        329.17	    19.875
  27.800        491.67	    24.290
  27.820        891.67	    32.711
  27.840       1120.83	    36.674
  27.860       1008.33	    34.785
  27.880        876.67	    32.435
  27.900        870.83	    32.326
  27.920        681.67	    28.601
  27.940        470.83	    23.770
  27.960        357.50	    20.712
  27.980        270.83	    18.028
  28.000        218.33	    16.186
  28.020        222.50	    16.340
  28.040        205.83	    15.716
  28.060        199.17	    15.460
  28.080        186.67	    14.967
  28.100        159.17	    13.820
  28.120        132.50	    12.610
  28.140        134.17	    12.689
  28.160        142.50	    13.077
  28.180        122.50	    12.124
  28.200        116.67	    11.832
  28.220        116.67	    11.832
  28.240        128.33	    12.410
  28.260        126.67	    12.329
  28.280        114.17	    11.705
  28.300         96.67	    10.770
  28.320         75.00	     9.487
  28.340         78.33	     9.695
  28.360         86.67	    10.198
  28.380         71.67	     9.274
  28.400         84.17	    10.050
  28.420         75.00	     9.487
  28.440         78.33	     9.695
  28.460         76.67	     9.592
  28.480         80.83	     9.849
  28.500        100.83	    11.000
  28.520         92.50	    10.536
  28.540        102.50	    11.091
  28.560        115.83	    11.790
  28.580        105.00	    11.225
  28.600         98.33	    10.863
  28.620         95.83	    10.724
  28.640         88.33	    10.296
  28.660        100.00	    10.954
  28.680         88.33	    10.296
  28.700         92.50	    10.536
  28.720         78.33	     9.695
  28.740         84.17	    10.050
  28.760         78.33	     9.695
  28.780         76.67	     9.592
  28.800         73.33	     9.381
  28.820         60.83	     8.544
  28.840         63.33	     8.718
  28.860         51.67	     7.874
  28.880         76.67	     9.592
  28.900         60.00	     8.485
  28.920         55.83	     8.185
  28.940         60.00	     8.485
  28.960         62.50	     8.660
  28.980         57.50	     8.307
  29.000         70.00	     9.165
  29.020         54.17	     8.062
  29.040         55.00	     8.124
  29.060         59.17	     8.426
  29.080         55.00	     8.124
  29.100         66.67	     8.944
  29.120         61.67	     8.602
  29.140         55.83	     8.185
  29.160         54.17	     8.062
  29.180         53.33	     8.000
  29.200         39.17	     6.856
  29.220         64.17	     8.775
  29.240         66.67	     8.944
  29.260         63.33	     8.718
  29.280         55.00	     8.124
  29.300         57.50	     8.307
  29.320         53.33	     8.000
  29.340         75.83	     9.539
  29.360         81.67	     9.899
  29.380         80.00	     9.798
  29.400         82.50	     9.950
  29.420         74.17	     9.434
  29.440         75.00	     9.487
  29.460         89.17	    10.344
  29.480         60.83	     8.544
  29.500         73.33	     9.381
  29.520         72.50	     9.327
  29.540         65.00	     8.832
  29.560         57.50	     8.307
  29.580         61.67	     8.602
  29.600         75.00	     9.487
  29.620         73.33	     9.381
  29.640         81.67	     9.899
  29.660         85.83	    10.149
  29.680         92.50	    10.536
  29.700         86.67	    10.198
  29.720        107.50	    11.358
  29.740        111.67	    11.576
  29.760        112.50	    11.619
  29.780        109.17	    11.446
  29.800        133.33	    12.649
  29.820        118.33	    11.916
  29.840        116.67	    11.832
  29.860        108.33	    11.402
  29.880        103.33	    11.136
  29.900        101.67	    11.045
  29.920        100.83	    11.000
  29.940         90.00	    10.392
  29.960        102.50	    11.091
  29.980        118.33	    11.916
  30.000         94.17	    10.630
  30.020        112.50	    11.619
  30.040         95.83	    10.724
  30.060         76.67	     9.592
  30.080         99.17	    10.909
  30.100        118.33	    11.916
  30.120        128.33	    12.410
  30.140        132.50	    12.610
  30.160        130.83	    12.530
  30.180        114.17	    11.705
  30.200        125.83	    12.288
  30.220        135.00	    12.728
  30.240        115.83	    11.790
  30.260         96.67	    10.770
  30.280        108.33	    11.402
  30.300        103.33	    11.136
  30.320         97.50	    10.817
  30.340         97.50	    10.817
  30.360        105.83	    11.269
  30.380        148.33	    13.342
  30.400        281.67	    18.385
  30.420        460.00	    23.495
  30.440        409.17	    22.159
  30.460        261.67	    17.720
  30.480        217.50	    16.155
  30.500        278.33	    18.276
  30.520        231.67	    16.673
  30.540        149.17	    13.379
  30.560         97.50	    10.817
  30.580         76.67	     9.592
  30.600         85.83	    10.149
  30.620         77.50	     9.644
  30.640         73.33	     9.381
  30.660         75.00	     9.487
  30.680         81.67	     9.899
  30.700         90.00	    10.392
  30.720         85.83	    10.149
  30.740         93.33	    10.583
  30.760        118.33	    11.916
  30.780        190.83	    15.133
  30.800        211.67	    15.937
  30.820        253.33	    17.436
  30.840        160.00	    13.856
  30.860        120.00	    12.000
  30.880        144.17	    13.153
  30.900        166.67	    14.142
  30.920         87.50	    10.247
  30.940         61.67	     8.602
  30.960         57.50	     8.307
  30.980         60.00	     8.485
  31.000         65.83	     8.888
  31.020         70.83	     9.220
  31.040         62.50	     8.660
  31.060         70.00	     9.165
  31.080         80.00	     9.798
  31.100         90.83	    10.440
  31.120        105.83	    11.269
  31.140        100.83	    11.000
  31.160         94.17	    10.630
  31.180        116.67	    11.832
  31.200        113.33	    11.662
  31.220        105.83	    11.269
  31.240         96.67	    10.770
  31.260         93.33	    10.583
  31.280         75.00	     9.487
  31.300         59.17	     8.426
  31.320         75.00	     9.487
  31.340         60.83	     8.544
  31.360         81.67	     9.899
  31.380         88.33	    10.296
  31.400         75.00	     9.487
  31.420         83.33	    10.000
  31.440         79.17	     9.747
  31.460         71.67	     9.274
  31.480         91.67	    10.488
  31.500         85.00	    10.100
  31.520         77.50	     9.644
  31.540         81.67	     9.899
  31.560         76.67	     9.592
  31.580         69.17	     9.110
  31.600         51.67	     7.874
  31.620         58.33	     8.367
  31.640         80.83	     9.849
  31.660         55.83	     8.185
  31.680         51.67	     7.874
  31.700         52.50	     7.937
  31.720         50.00	     7.746
  31.740         58.33	     8.367
  31.760         66.67	     8.944
  31.780         54.17	     8.062
  31.800         62.50	     8.660
  31.820         70.00	     9.165
  31.840         69.17	     9.110
  31.860         66.67	     8.944
  31.880         67.50	     9.000
  31.900         70.00	     9.165
  31.920         78.33	     9.695
  31.940         80.00	     9.798
  31.960         75.00	     9.487
  31.980         79.17	     9.747
  32.000         76.67	     9.592
  32.020         89.17	    10.344
  32.040         81.67	     9.899
  32.060         74.17	     9.434
  32.080         75.83	     9.539
  32.100         67.50	     9.000
  32.120         70.83	     9.220
  32.140         87.50	    10.247
  32.160         70.83	     9.220
  32.180         90.83	    10.440
  32.200         82.50	     9.950
  32.220         82.50	     9.950
  32.240         87.50	    10.247
  32.260         81.67	     9.899
  32.280         72.50	     9.327
  32.300         65.00	     8.832
  32.320         56.67	     8.246
  32.340         45.83	     7.416
  32.360         48.33	     7.616
  32.380         50.83	     7.810
  32.400         53.33	     8.000
  32.420         46.67	     7.483
  32.440         44.17	     7.280
  32.460         52.50	     7.937
  32.480         40.83	     7.000
  32.500         39.17	     6.856
  32.520         46.67	     7.483
  32.540         56.67	     8.246
  32.560         60.83	     8.544
  32.580         37.50	     6.708
  32.600         54.17	     8.062
  32.620         49.17	     7.681
  32.640         53.33	     8.000
  32.660         33.33	     6.325
  32.680         49.17	     7.681
  32.700         47.50	     7.550
  32.720         48.33	     7.616
  32.740         53.33	     8.000
  32.760         47.50	     7.550
  32.780         43.33	     7.211
  32.800         60.83	     8.544
  32.820         47.50	     7.550
  32.840         56.67	     8.246
  32.860         49.17	     7.681
  32.880         50.83	     7.810
  32.900         60.83	     8.544
  32.920         55.00	     8.124
  32.940         85.83	    10.149
  32.960         71.67	     9.274
  32.980         85.00	    10.100
  33.000        123.33	    12.166
  33.020         92.50	    10.536
  33.040         85.00	    10.100
  33.060         80.83	     9.849
  33.080         88.33	    10.296
  33.100         70.00	     9.165
  33.120         63.33	     8.718
  33.140         55.00	     8.124
  33.160         45.83	     7.416
  33.180         31.67	     6.164
  33.200         45.00	     7.348
  33.220         50.00	     7.746
  33.240         53.33	     8.000
  33.260         63.33	     8.718
  33.280         59.17	     8.426
  33.300         59.17	     8.426
  33.320         44.17	     7.280
  33.340         56.67	     8.246
  33.360         50.00	     7.746
  33.380         59.17	     8.426
  33.400         55.00	     8.124
  33.420         52.50	     7.937
  33.440         45.83	     7.416
  33.460         39.17	     6.856
  33.480         48.33	     7.616
  33.500         49.17	     7.681
  33.520         55.83	     8.185
  33.540         47.50	     7.550
  33.560         55.83	     8.185
  33.580         55.00	     8.124
  33.600         55.00	     8.124
  33.620         40.00	     6.928
  33.640         55.83	     8.185
  33.660         36.67	     6.633
  33.680         51.67	     7.874
  33.700         61.67	     8.602
  33.720         55.00	     8.124
  33.740         54.17	     8.062
  33.760         48.33	     7.616
  33.780         65.83	     8.888
  33.800         73.33	     9.381
  33.820         61.67	     8.602
  33.840         70.83	     9.220
  33.860         68.33	     9.055
  33.880         70.83	     9.220
  33.900         55.83	     8.185
  33.920         57.50	     8.307
  33.940         75.00	     9.487
  33.960         72.50	     9.327
  33.980         70.00	     9.165
  34.000         60.83	     8.544
  34.020         60.83	     8.544
  34.040         50.83	     7.810
  34.060         55.83	     8.185
  34.080         57.50	     8.307
  34.100         55.83	     8.185
  34.120         43.33	     7.211
  34.140         60.83	     8.544
  34.160         60.83	     8.544
  34.180         63.33	     8.718
  34.200         63.33	     8.718
  34.220         62.50	     8.660
  34.240         69.17	     9.110
  34.260         56.67	     8.246
  34.280         61.67	     8.602
  34.300         82.50	     9.950
  34.320         74.17	     9.434
  34.340         90.00	    10.392
  34.360         79.17	     9.747
  34.380         87.50	    10.247
  34.400         95.00	    10.677
  34.420        129.17	    12.450
  34.440        143.33	    13.115
  34.460        119.17	    11.958
  34.480        124.17	    12.207
  34.500        108.33	    11.402
  34.520        110.83	    11.533
  34.540        102.50	    11.091
  34.560         98.33	    10.863
  34.580         87.50	    10.247
  34.600         98.33	    10.863
  34.620         81.67	     9.899
  34.640         93.33	    10.583
  34.660         91.67	    10.488
  34.680        109.17	    11.446
  34.700         98.33	    10.863
  34.720         99.17	    10.909
  34.740         99.17	    10.909
  34.760        125.00	    12.247
  34.780        120.00	    12.000
  34.800        110.00	    11.489
  34.820        115.83	    11.790
  34.840        119.17	    11.958
  34.860        113.33	    11.662
  34.880        105.83	    11.269
  34.900        115.83	    11.790
  34.920        129.17	    12.450
  34.940        118.33	    11.916
  34.960        117.50	    11.874
  34.980        104.17	    11.180
  35.000        109.17	    11.446
  35.020         98.33	    10.863
  35.040         85.83	    10.149
  35.060        105.00	    11.225
  35.080         83.33	    10.000
  35.100        100.00	    10.954
  35.120         79.17	     9.747
  35.140         77.50	     9.644
  35.160         81.67	     9.899
  35.180         74.17	     9.434
  35.200         85.83	    10.149
  35.220         79.17	     9.747
  35.240         98.33	    10.863
  35.260        105.83	    11.269
  35.280         72.50	     9.327
  35.300         80.83	     9.849
  35.320         94.17	    10.630
  35.340         99.17	    10.909
  35.360        111.67	    11.576
  35.380         97.50	    10.817
  35.400        115.83	    11.790
  35.420        133.33	    12.649
  35.440        147.50	    13.304
  35.460        140.83	    13.000
  35.480        168.33	    14.213
  35.500        145.83	    13.229
  35.520        134.17	    12.689
  35.540        164.17	    14.036
  35.560        134.17	    12.689
  35.580        130.00	    12.490
  35.600        101.67	    11.045
  35.620        112.50	    11.619
  35.640         74.17	     9.434
  35.660         97.50	    10.817
  35.680         92.50	    10.536
  35.700         80.00	     9.798
  35.720         75.83	     9.539
  35.740         66.67	     8.944
  35.760         87.50	    10.247
  35.780         63.33	     8.718
  35.800         65.00	     8.832
  35.820         61.67	     8.602
  35.840         75.83	     9.539
  35.860         80.83	     9.849
  35.880         73.33	     9.381
  35.900         78.33	     9.695
  35.920         80.83	     9.849
  35.940         82.50	     9.950
  35.960         87.50	    10.247
  35.980         80.00	     9.798
  36.000         66.67	     8.944
  36.020         84.17	    10.050
  36.040         97.50	    10.817
  36.060         90.00	    10.392
  36.080         81.67	     9.899
  36.100         77.50	     9.644
  36.120         67.50	     9.000
  36.140         60.83	     8.544
  36.160         70.00	     9.165
  36.180         74.17	     9.434
  36.200         46.67	     7.483
  36.220         60.00	     8.485
  36.240         55.83	     8.185
  36.260         48.33	     7.616
  36.280         50.83	     7.810
  36.300         60.83	     8.544
  36.320         79.17	     9.747
  36.340         85.00	    10.100
  36.360         88.33	    10.296
  36.380        104.17	    11.180
  36.400        117.50	    11.874
  36.420        167.50	    14.177
  36.440        259.17	    17.635
  36.460        335.83	    20.075
  36.480        276.67	    18.221
  36.500        214.17	    16.031
  36.520        175.83	    14.526
  36.540        189.17	    15.067
  36.560        212.50	    15.969
  36.580        182.50	    14.799
  36.600        130.83	    12.530
  36.620        101.67	    11.045
  36.640         99.17	    10.909
  36.660        115.00	    11.747
  36.680         83.33	    10.000
  36.700         90.00	    10.392
  36.720         80.00	     9.798
  36.740         72.50	     9.327
  36.760         85.00	    10.100
  36.780         84.17	    10.050
  36.800         54.17	     8.062
  36.820         59.17	     8.426
  36.840         60.83	     8.544
  36.860         69.17	     9.110
  36.880         60.83	     8.544
  36.900         76.67	     9.592
  36.920         78.33	     9.695
  36.940         60.00	     8.485
  36.960         78.33	     9.695
  36.980         71.67	     9.274
  37.000         79.17	     9.747
  37.020         70.00	     9.165
  37.040         81.67	     9.899
  37.060         61.67	     8.602
  37.080         70.00	     9.165
  37.100         65.83	     8.888
  37.120         73.33	     9.381
  37.140         70.83	     9.220
  37.160         60.00	     8.485
  37.180         56.67	     8.246
  37.200         70.00	     9.165
  37.220         59.17	     8.426
  37.240         65.83	     8.888
  37.260         91.67	    10.488
  37.280         66.67	     8.944
  37.300         85.83	    10.149
  37.320         83.33	    10.000
  37.340         92.50	    10.536
  37.360         94.17	    10.630
  37.380         78.33	     9.695
  37.400         75.00	     9.487
  37.420         87.50	    10.247
  37.440         72.50	     9.327
  37.460         55.83	     8.185
  37.480         83.33	    10.000
  37.500         60.00	     8.485
  37.520         85.00	    10.100
  37.540         73.33	     9.381
  37.560         70.00	     9.165
  37.580         65.83	     8.888
  37.600         73.33	     9.381
  37.620         85.83	    10.149
  37.640         76.67	     9.592
  37.660         92.50	    10.536
  37.680         80.00	     9.798
  37.700         62.50	     8.660
  37.720         60.83	     8.544
  37.740         60.00	     8.485
  37.760         63.33	     8.718
  37.780         63.33	     8.718
  37.800         47.50	     7.550
  37.820         54.17	     8.062
  37.840         51.67	     7.874
  37.860         63.33	     8.718
  37.880         63.33	     8.718
  37.900         35.83	     6.557
  37.920         53.33	     8.000
  37.940         48.33	     7.616
  37.960         47.50	     7.550
  37.980         40.00	     6.928
  38.000         45.00	     7.348
  38.020         42.50	     7.141
  38.040         37.50	     6.708
  38.060         30.83	     6.083
  38.080         50.83	     7.810
  38.100         45.00	     7.348
  38.120         51.67	     7.874
  38.140         50.00	     7.746
  38.160         45.83	     7.416
  38.180         51.67	     7.874
  38.200         50.83	     7.810
  38.220         45.83	     7.416
  38.240         40.83	     7.000
  38.260         35.83	     6.557
  38.280         35.83	     6.557
  38.300         50.00	     7.746
  38.320         45.00	     7.348
  38.340         42.50	     7.141
  38.360         59.17	     8.426
  38.380         54.17	     8.062
  38.400         45.83	     7.416
  38.420         40.00	     6.928
  38.440         44.17	     7.280
  38.460         46.67	     7.483
  38.480         50.83	     7.810
  38.500         50.00	     7.746
  38.520         48.33	     7.616
  38.540         59.17	     8.426
  38.560         55.83	     8.185
  38.580         49.17	     7.681
  38.600         64.17	     8.775
  38.620         50.83	     7.810
  38.640         59.17	     8.426
  38.660         45.00	     7.348
  38.680         65.00	     8.832
  38.700         68.33	     9.055
  38.720         63.33	     8.718
  38.740         58.33	     8.367
  38.760         63.33	     8.718
  38.780         75.83	     9.539
  38.800         55.83	     8.185
  38.820         55.83	     8.185
  38.840         50.00	     7.746
  38.860         51.67	     7.874
  38.880         47.50	     7.550
  38.900         52.50	     7.937
  38.920         55.83	     8.185
  38.940         60.00	     8.485
  38.960         45.00	     7.348
  38.980         41.67	     7.071
  39.000         51.67	     7.874
  39.020         50.00	     7.746
  39.040         48.33	     7.616
  39.060         50.00	     7.746
  39.080         38.33	     6.782
  39.100         47.50	     7.550
  39.120         50.00	     7.746
  39.140         51.67	     7.874
  39.160         60.83	     8.544
  39.180         51.67	     7.874
  39.200         55.83	     8.185
  39.220         58.33	     8.367
  39.240         45.00	     7.348
  39.260         56.67	     8.246
  39.280         54.17	     8.062
  39.300         60.00	     8.485
  39.320         84.17	    10.050
  39.340        129.17	    12.450
  39.360        220.00	    16.248
  39.380        323.33	    19.698
  39.400        279.17	    18.303
  39.420        206.67	    15.748
  39.440        146.67	    13.266
  39.460        145.00	    13.191
  39.480        163.33	    14.000
  39.500        167.50	    14.177
  39.520        131.67	    12.570
  39.540         93.33	    10.583
  39.560         96.67	    10.770
  39.580         70.83	     9.220
  39.600         68.33	     9.055
  39.620         57.50	     8.307
  39.640         60.83	     8.544
  39.660         54.17	     8.062
  39.680         60.83	     8.544
  39.700         62.50	     8.660
  39.720         53.33	     8.000
  39.740         70.83	     9.220
  39.760         99.17	    10.909
  39.780         60.00	     8.485
  39.800         63.33	     8.718
  39.820         53.33	     8.000
  39.840         55.00	     8.124
  39.860         79.17	     9.747
  39.880         65.83	     8.888
  39.900         63.33	     8.718
  39.920         74.17	     9.434
  39.940         67.50	     9.000
  39.960         51.67	     7.874
  39.980         46.67	     7.483
  40.000         45.00	     7.348
  40.020         63.33	     8.718
  40.040         63.33	     8.718
  40.060         50.00	     7.746
  40.080         46.67	     7.483
  40.100         58.33	     8.367
  40.120         67.50	     9.000
  40.140         56.67	     8.246
  40.160         84.17	    10.050
  40.180        115.00	    11.747
  40.200        112.50	    11.619
  40.220        148.33	    13.342
  40.240        120.00	    12.000
  40.260         92.50	    10.536
  40.280        104.17	    11.180
  40.300        106.67	    11.314
  40.320         72.50	     9.327
  40.340         80.00	     9.798
  40.360         84.17	    10.050
  40.380         51.67	     7.874
  40.400         57.50	     8.307
  40.420         59.17	     8.426
  40.440         49.17	     7.681
  40.460         45.00	     7.348
  40.480         51.67	     7.874
  40.500         47.50	     7.550
  40.520         44.17	     7.280
  40.540         41.67	     7.071
  40.560         45.00	     7.348
  40.580         45.00	     7.348
  40.600         42.50	     7.141
  40.620         45.00	     7.348
  40.640         44.17	     7.280
  40.660         49.17	     7.681
  40.680         45.83	     7.416
  40.700         56.67	     8.246
  40.720         50.83	     7.810
  40.740         47.50	     7.550
  40.760         48.33	     7.616
  40.780         56.67	     8.246
  40.800         38.33	     6.782
  40.820         60.83	     8.544
  40.840         48.33	     7.616
  40.860         45.83	     7.416
  40.880         50.83	     7.810
  40.900         50.83	     7.810
  40.920         55.83	     8.185
  40.940         55.00	     8.124
  40.960         48.33	     7.616
  40.980         52.50	     7.937
  41.000         54.17	     8.062
  41.020         55.83	     8.185
  41.040         46.67	     7.483
  41.060         59.17	     8.426
  41.080         67.50	     9.000
  41.100         47.50	     7.550
  41.120         56.67	     8.246
  41.140         58.33	     8.367
  41.160         60.00	     8.485
  41.180         56.67	     8.246
  41.200         54.17	     8.062
  41.220         60.00	     8.485
  41.240         67.50	     9.000
  41.260         46.67	     7.483
  41.280         53.33	     8.000
  41.300         45.00	     7.348
  41.320         55.00	     8.124
  41.340         50.83	     7.810
  41.360         57.50	     8.307
  41.380         60.00	     8.485
  41.400         41.67	     7.071
  41.420         53.33	     8.000
  41.440         55.83	     8.185
  41.460         58.33	     8.367
  41.480         65.00	     8.832
  41.500         79.17	     9.747
  41.520         72.50	     9.327
  41.540         70.00	     9.165
  41.560         73.33	     9.381
  41.580         85.00	    10.100
  41.600         86.67	    10.198
  41.620        110.83	    11.533
  41.640         90.83	    10.440
  41.660         85.00	    10.100
  41.680         90.83	    10.440
  41.700         85.83	    10.149
  41.720         93.33	    10.583
  41.740         80.83	     9.849
  41.760         90.00	    10.392
  41.780         76.67	     9.592
  41.800         94.17	    10.630
  41.820         81.67	     9.899
  41.840         75.00	     9.487
  41.860         86.67	    10.198
  41.880         78.33	     9.695
  41.900         82.50	     9.950
  41.920         95.00	    10.677
  41.940         78.33	     9.695
  41.960         60.00	     8.485
  41.980         77.50	     9.644
  42.000         58.33	     8.367
  42.020         52.50	     7.937
  42.040         57.50	     8.307
  42.060         67.50	     9.000
  42.080         63.33	     8.718
  42.100         65.00	     8.832
  42.120         50.00	     7.746
  42.140         75.00	     9.487
  42.160         82.50	     9.950
  42.180         76.67	     9.592
  42.200         62.50	     8.660
  42.220         76.67	     9.592
  42.240         73.33	     9.381
  42.260         69.17	     9.110
  42.280         96.67	    10.770
  42.300         99.17	    10.909
  42.320        115.83	    11.790
  42.340        134.17	    12.689
  42.360        225.00	    16.432
  42.380        248.33	    17.263
  42.400        232.50	    16.703
  42.420        175.00	    14.491
  42.440        165.83	    14.107
  42.460        155.00	    13.638
  42.480        165.83	    14.107
  42.500        155.83	    13.675
  42.520        135.00	    12.728
  42.540         98.33	    10.863
  42.560         94.17	    10.630
  42.580         87.50	    10.247
  42.600         70.00	     9.165
  42.620         80.00	     9.798
  42.640         80.00	     9.798
  42.660         70.00	     9.165
  42.680         65.00	     8.832
  42.700         78.33	     9.695
  42.720         87.50	    10.247
  42.740         92.50	    10.536
  42.760         78.33	     9.695
  42.780         83.33	    10.000
  42.800         80.00	     9.798
  42.820         82.50	     9.950
  42.840         79.17	     9.747
  42.860         82.50	     9.950
  42.880         79.17	     9.747
  42.900         81.67	     9.899
  42.920         73.33	     9.381
  42.940         79.17	     9.747
  42.960         81.67	     9.899
  42.980         89.17	    10.344
  43.000        100.00	    10.954
  43.020         98.33	    10.863
  43.040        115.00	    11.747
  43.060         94.17	    10.630
  43.080        115.83	    11.790
  43.100        112.50	    11.619
  43.120         89.17	    10.344
  43.140        131.67	    12.570
  43.160        126.67	    12.329
  43.180        155.83	    13.675
  43.200        163.33	    14.000
  43.220        155.83	    13.675
  43.240        169.17	    14.248
  43.260        172.50	    14.387
  43.280        194.17	    15.264
  43.300        208.33	    15.811
  43.320        212.50	    15.969
  43.340        216.67	    16.125
  43.360        223.33	    16.371
  43.380        239.17	    16.941
  43.400        260.83	    17.692
  43.420        229.17	    16.583
  43.440        258.33	    17.607
  43.460        277.50	    18.248
  43.480        260.00	    17.664
  43.500        269.17	    17.972
  43.520        274.17	    18.138
  43.540        207.50	    15.780
  43.560        210.00	    15.875
  43.580        218.33	    16.186
  43.600        225.83	    16.462
  43.620        220.00	    16.248
  43.640        202.50	    15.588
  43.660        175.83	    14.526
  43.680        167.50	    14.177
  43.700        162.50	    13.964
  43.720        146.67	    13.266
  43.740        125.83	    12.288
  43.760        137.50	    12.845
  43.780        117.50	    11.874
  43.800        135.83	    12.767
  43.820        104.17	    11.180
  43.840        111.67	    11.576
  43.860        110.00	    11.489
  43.880        100.83	    11.000
  43.900         95.00	    10.677
  43.920         87.50	    10.247
  43.940         77.50	     9.644
  43.960         83.33	    10.000
  43.980         83.33	    10.000
  44.000         87.50	    10.247
  44.020         79.17	     9.747
  44.040         82.50	     9.950
  44.060         71.67	     9.274
  44.080         75.00	     9.487
  44.100         65.83	     8.888
  44.120         70.00	     9.165
  44.140         64.17	     8.775
  44.160         82.50	     9.950
  44.180         73.33	     9.381
  44.200         56.67	     8.246
  44.220         57.50	     8.307
  44.240         63.33	     8.718
  44.260         63.33	     8.718
  44.280         55.83	     8.185
  44.300         51.67	     7.874
  44.320         42.50	     7.141
  44.340         60.00	     8.485
  44.360         60.83	     8.544
  44.380         55.83	     8.185
  44.400         50.00	     7.746
  44.420         50.00	     7.746
  44.440         60.83	     8.544
  44.460         57.50	     8.307
  44.480         57.50	     8.307
  44.500         53.33	     8.000
  44.520         60.00	     8.485
  44.540         46.67	     7.483
  44.560         67.50	     9.000
  44.580         47.50	     7.550
  44.600         64.17	     8.775
  44.620         53.33	     8.000
  44.640         44.17	     7.280
  44.660         60.83	     8.544
  44.680         58.33	     8.367
  44.700         52.50	     7.937
  44.720         65.83	     8.888
  44.740         65.83	     8.888
  44.760         52.50	     7.937
  44.780         65.83	     8.888
  44.800         49.17	     7.681
  44.820         82.50	     9.950
  44.840         83.33	    10.000
  44.860         80.00	     9.798
  44.880         81.67	     9.899
  44.900         79.17	     9.747
  44.920         73.33	     9.381
  44.940         88.33	    10.296
  44.960         75.83	     9.539
  44.980         85.00	    10.100
  45.000         88.33	    10.296
  45.020         71.67	     9.274
  45.040         76.67	     9.592
  45.060         70.83	     9.220
  45.080         84.17	    10.050
  45.100         72.50	     9.327
  45.120         75.00	     9.487
  45.140         57.50	     8.307
  45.160         78.33	     9.695
  45.180         70.00	     9.165
  45.200         80.00	     9.798
  45.220         85.83	    10.149
  45.240         71.67	     9.274
  45.260         79.17	     9.747
  45.280         96.67	    10.770
  45.300         98.33	    10.863
  45.320        114.17	    11.705
  45.340        123.33	    12.166
  45.360        134.17	    12.689
  45.380        152.50	    13.528
  45.400        156.67	    13.711
  45.420        178.33	    14.629
  45.440        176.67	    14.560
  45.460        183.33	    14.832
  45.480        191.67	    15.166
  45.500        177.50	    14.595
  45.520        208.33	    15.811
  45.540        215.00	    16.062
  45.560        200.83	    15.524
  45.580        172.50	    14.387
  45.600        141.67	    13.038
  45.620        128.33	    12.410
  45.640        155.00	    13.638
  45.660        155.00	    13.638
  45.680        153.33	    13.565
  45.700        190.00	    15.100
  45.720        239.17	    16.941
  45.740        195.83	    15.330
  45.760        142.50	    13.077
  45.780        114.17	    11.705
  45.800        128.33	    12.410
  45.820        135.00	    12.728
  45.840        146.67	    13.266
  45.860        145.83	    13.229
  45.880        115.00	    11.747
  45.900         87.50	    10.247
  45.920         88.33	    10.296
  45.940         72.50	     9.327
  45.960         73.33	     9.381
  45.980         56.67	     8.246
  46.000         69.17	     9.110
  46.020         55.00	     8.124
  46.040         50.00	     7.746
  46.060         65.00	     8.832
  46.080         48.33	     7.616
  46.100         65.83	     8.888
  46.120         53.33	     8.000
  46.140         60.00	     8.485
  46.160         54.17	     8.062
  46.180         52.50	     7.937
  46.200         52.50	     7.937
  46.220         40.00	     6.928
  46.240         43.33	     7.211
  46.260         50.00	     7.746
  46.280         37.50	     6.708
  46.300         37.50	     6.708
  46.320         35.83	     6.557
  46.340         48.33	     7.616
  46.360         40.83	     7.000
  46.380         48.33	     7.616
  46.400         40.00	     6.928
  46.420         55.00	     8.124
  46.440         47.50	     7.550
  46.460         35.00	     6.481
  46.480         48.33	     7.616
  46.500         45.00	     7.348
  46.520         40.83	     7.000
  46.540         44.17	     7.280
  46.560         42.50	     7.141
  46.580         39.17	     6.856
  46.600         41.67	     7.071
  46.620         45.00	     7.348
  46.640         36.67	     6.633
  46.660         36.67	     6.633
  46.680         30.00	     6.000
  46.700         35.00	     6.481
  46.720         52.50	     7.937
  46.740         40.83	     7.000
  46.760         45.00	     7.348
  46.780         44.17	     7.280
  46.800         44.17	     7.280
  46.820         40.00	     6.928
  46.840         47.50	     7.550
  46.860         40.83	     7.000
  46.880         33.33	     6.325
  46.900         47.50	     7.550
  46.920         50.83	     7.810
  46.940         47.50	     7.550
  46.960         49.17	     7.681
  46.980         53.33	     8.000
  47.000         43.33	     7.211
  47.020         60.83	     8.544
  47.040         55.83	     8.185
  47.060         50.00	     7.746
  47.080         58.33	     8.367
  47.100         66.67	     8.944
  47.120         53.33	     8.000
  47.140         53.33	     8.000
  47.160         45.83	     7.416
  47.180         46.67	     7.483
  47.200         48.33	     7.616
  47.220         46.67	     7.483
  47.240         39.17	     6.856
  47.260         35.00	     6.481
  47.280         50.00	     7.746
  47.300         37.50	     6.708
  47.320         45.00	     7.348
  47.340         36.67	     6.633
  47.360         37.50	     6.708
  47.380         40.83	     7.000
  47.400         36.67	     6.633
  47.420         43.33	     7.211
  47.440         54.17	     8.062
  47.460         40.00	     6.928
  47.480         38.33	     6.782
  47.500         30.83	     6.083
  47.520         46.67	     7.483
  47.540         34.17	     6.403
  47.560         36.67	     6.633
  47.580         34.17	     6.403
  47.600         35.83	     6.557
  47.620         54.17	     8.062
  47.640         35.83	     6.557
  47.660         43.33	     7.211
  47.680         38.33	     6.782
  47.700         45.00	     7.348
  47.720         46.67	     7.483
  47.740         45.83	     7.416
  47.760         40.83	     7.000
  47.780         60.00	     8.485
  47.800         60.00	     8.485
  47.820         56.67	     8.246
  47.840         60.83	     8.544
  47.860         58.33	     8.367
  47.880         73.33	     9.381
  47.900         68.33	     9.055
  47.920         75.83	     9.539
  47.940         60.83	     8.544
  47.960         49.17	     7.681
  47.980         62.50	     8.660
  48.000         69.17	     9.110
  48.020         77.50	     9.644
  48.040         79.17	     9.747
  48.060         62.50	     8.660
  48.080         79.17	     9.747
  48.100         70.00	     9.165
  48.120         60.83	     8.544
  48.140         56.67	     8.246
  48.160         63.33	     8.718
  48.180         77.50	     9.644
  48.200         59.17	     8.426
  48.220         60.00	     8.485
  48.240         66.67	     8.944
  48.260         60.83	     8.544
  48.280         69.17	     9.110
  48.300         56.67	     8.246
  48.320         74.17	     9.434
  48.340         55.00	     8.124
  48.360         50.00	     7.746
  48.380         62.50	     8.660
  48.400         58.33	     8.367
  48.420         50.83	     7.810
  48.440         35.00	     6.481
  48.460         55.00	     8.124
  48.480         45.00	     7.348
  48.500         40.00	     6.928
  48.520         45.00	     7.348
  48.540         43.33	     7.211
  48.560         63.33	     8.718
  48.580         56.67	     8.246
  48.600         50.83	     7.810
  48.620         57.50	     8.307
  48.640         43.33	     7.211
  48.660         55.00	     8.124
  48.680         55.00	     8.124
  48.700         62.50	     8.660
  48.720         44.17	     7.280
  48.740         38.33	     6.782
  48.760         52.50	     7.937
  48.780         50.00	     7.746
  48.800         60.00	     8.485
  48.820         67.50	     9.000
  48.840         47.50	     7.550
  48.860         63.33	     8.718
  48.880         59.17	     8.426
  48.900         50.00	     7.746
  48.920         60.83	     8.544
  48.940         58.33	     8.367
  48.960         48.33	     7.616
  48.980         50.83	     7.810
  49.000         54.17	     8.062
  49.020         49.17	     7.681
  49.040         54.17	     8.062
  49.060         44.17	     7.280
  49.080         65.00	     8.832
  49.100        106.67	    11.314
  49.120        145.83	    13.229
  49.140        126.67	    12.329
  49.160         73.33	     9.381
  49.180         60.83	     8.544
  49.200         65.00	     8.832
  49.220         85.00	    10.100
  49.240         80.83	     9.849
  49.260         86.67	    10.198
  49.280         78.33	     9.695
  49.300         52.50	     7.937
  49.320         58.33	     8.367
  49.340         48.33	     7.616
  49.360         53.33	     8.000
  49.380         50.83	     7.810
  49.400         73.33	     9.381
  49.420         57.50	     8.307
  49.440         54.17	     8.062
  49.460         62.50	     8.660
  49.480         55.83	     8.185
  49.500         70.00	     9.165
  49.520         56.67	     8.246
  49.540         60.83	     8.544
  49.560         55.83	     8.185
  49.580         60.83	     8.544
  49.600         63.33	     8.718
  49.620         70.00	     9.165
  49.640         66.67	     8.944
  49.660         79.17	     9.747
  49.680         85.00	    10.100
  49.700         75.00	     9.487
  49.720         77.50	     9.644
  49.740         77.50	     9.644
  49.760         69.17	     9.110
  49.780         88.33	    10.296
  49.800         97.50	    10.817
  49.820         97.50	    10.817
  49.840        121.67	    12.083
  49.860        109.17	    11.446
  49.880        116.67	    11.832
  49.900        108.33	    11.402
  49.920        112.50	    11.619
  49.940        119.17	    11.958
  49.960        150.83	    13.454
  49.980        179.17	    14.663
  50.000        243.33	    17.088
  50.020        370.83	    21.095
  50.040        571.67	    26.192
  50.060        743.33	    29.866
  50.080        763.33	    30.265
  50.100        475.83	    23.896
  50.120        301.67	    19.026
  50.140        240.00	    16.971
  50.160        247.50	    17.234
  50.180        356.67	    20.688
  50.200        435.83	    22.869
  50.220        380.83	    21.378
  50.240        235.00	    16.793
  50.260        157.50	    13.748
  50.280        119.17	    11.958
  50.300        110.83	    11.533
  50.320         96.67	    10.770
  50.340         94.17	    10.630
  50.360         87.50	    10.247
  50.380         91.67	    10.488
  50.400         92.50	    10.536
  50.420         94.17	    10.630
  50.440        100.83	    11.000
  50.460        135.83	    12.767
  50.480        142.50	    13.077
  50.500        139.17	    12.923
  50.520        149.17	    13.379
  50.540        130.00	    12.490
  50.560        119.17	    11.958
  50.580        132.50	    12.610
  50.600        113.33	    11.662
  50.620        128.33	    12.410
  50.640        110.83	    11.533
  50.660        114.17	    11.705
  50.680        110.00	    11.489
  50.700        107.50	    11.358
  50.720         95.00	    10.677
  50.740         81.67	     9.899
  50.760         80.00	     9.798
  50.780         70.83	     9.220
  50.800         72.50	     9.327
  50.820         68.33	     9.055
  50.840         81.67	     9.899
  50.860         59.17	     8.426
  50.880         59.17	     8.426
  50.900         64.17	     8.775
  50.920         57.50	     8.307
  50.940         65.83	     8.888
  50.960         66.67	     8.944
  50.980         76.67	     9.592
  51.000         72.50	     9.327
  51.020        109.17	    11.446
  51.040        114.17	    11.705
  51.060        125.83	    12.288
  51.080        125.00	    12.247
  51.100        106.67	    11.314
  51.120        145.00	    13.191
  51.140        136.67	    12.806
  51.160         97.50	    10.817
  51.180         86.67	    10.198
  51.200        123.33	    12.166
  51.220         90.83	    10.440
  51.240         92.50	    10.536
  51.260         83.33	    10.000
  51.280         83.33	    10.000
  51.300         68.33	     9.055
  51.320         51.67	     7.874
  51.340         46.67	     7.483
  51.360         45.83	     7.416
  51.380         47.50	     7.550
  51.400         50.83	     7.810
  51.420         49.17	     7.681
  51.440         31.67	     6.164
  51.460         40.83	     7.000
  51.480         45.83	     7.416
  51.500         37.50	     6.708
  51.520         40.00	     6.928
  51.540         36.67	     6.633
  51.560         42.50	     7.141
  51.580         40.00	     6.928
  51.600         45.00	     7.348
  51.620         52.50	     7.937
  51.640         40.00	     6.928
  51.660         49.17	     7.681
  51.680         38.33	     6.782
  51.700         33.33	     6.325
  51.720         32.50	     6.245
  51.740         40.00	     6.928
  51.760         34.17	     6.403
  51.780         44.17	     7.280
  51.800         43.33	     7.211
  51.820         41.67	     7.071
  51.840         34.17	     6.403
  51.860         45.00	     7.348
  51.880         33.33	     6.325
  51.900         49.17	     7.681
  51.920         43.33	     7.211
  51.940         40.00	     6.928
  51.960         45.83	     7.416
  51.980         48.33	     7.616
  52.000         42.50	     7.141
  52.020         45.00	     7.348
  52.040         61.67	     8.602
  52.060         59.17	     8.426
  52.080         49.17	     7.681
  52.100         76.67	     9.592
  52.120         79.17	     9.747
  52.140         75.00	     9.487
  52.160         86.67	    10.198
  52.180         65.00	     8.832
  52.200         66.67	     8.944
  52.220         71.67	     9.274
  52.240         62.50	     8.660
  52.260         60.00	     8.485
  52.280         71.67	     9.274
  52.300         80.00	     9.798
  52.320         63.33	     8.718
  52.340         63.33	     8.718
  52.360         55.83	     8.185
  52.380         65.00	     8.832
  52.400         57.50	     8.307
  52.420         59.17	     8.426
  52.440         62.50	     8.660
  52.460         53.33	     8.000
  52.480         60.83	     8.544
  52.500         60.83	     8.544
  52.520         49.17	     7.681
  52.540         58.33	     8.367
  52.560         55.83	     8.185
  52.580         45.00	     7.348
  52.600         38.33	     6.782
  52.620         45.83	     7.416
  52.640         43.33	     7.211
  52.660         45.00	     7.348
  52.680         49.17	     7.681
  52.700         36.67	     6.633
  52.720         42.50	     7.141
  52.740         54.17	     8.062
  52.760         52.50	     7.937
  52.780         47.50	     7.550
  52.800         45.00	     7.348
  52.820         53.33	     8.000
  52.840         55.00	     8.124
  52.860         64.17	     8.775
  52.880         61.67	     8.602
  52.900         52.50	     7.937
  52.920         44.17	     7.280
  52.940         50.83	     7.810
  52.960         52.50	     7.937
  52.980         46.67	     7.483
  53.000         59.17	     8.426
  53.020         60.83	     8.544
  53.040         78.33	     9.695
  53.060        123.33	    12.166
  53.080        175.83	    14.526
  53.100        197.50	    15.395
  53.120        162.50	    13.964
  53.140        114.17	    11.705
  53.160         95.00	    10.677
  53.180         93.33	    10.583
  53.200        114.17	    11.705
  53.220        118.33	    11.916
  53.240        119.17	    11.958
  53.260         97.50	    10.817
  53.280         97.50	    10.817
  53.300         70.83	     9.220
  53.320         72.50	     9.327
  53.340         62.50	     8.660
  53.360         45.00	     7.348
  53.380         54.17	     8.062
  53.400         46.67	     7.483
  53.420         47.50	     7.550
  53.440         40.83	     7.000
  53.460         31.67	     6.164
  53.480         45.83	     7.416
  53.500         41.67	     7.071
  53.520         43.33	     7.211
  53.540         41.67	     7.071
  53.560         45.00	     7.348
  53.580         32.50	     6.245
  53.600         46.67	     7.483
  53.620         55.00	     8.124
  53.640         46.67	     7.483
  53.660         46.67	     7.483
  53.680         40.00	     6.928
  53.700         45.83	     7.416
  53.720         46.67	     7.483
  53.740         35.00	     6.481
  53.760         40.00	     6.928
  53.780         37.50	     6.708
  53.800         35.83	     6.557
  53.820         38.33	     6.782
  53.840         35.83	     6.557
  53.860         42.50	     7.141
  53.880         43.33	     7.211
  53.900         43.33	     7.211
  53.920         33.33	     6.325
  53.940         33.33	     6.325
  53.960         40.83	     7.000
  53.980         45.00	     7.348
  54.000         37.50	     6.708
  54.020         35.83	     6.557
  54.040         40.00	     6.928
  54.060         26.67	     5.657
  54.080         31.67	     6.164
  54.100         35.83	     6.557
  54.120         40.00	     6.928
  54.140         33.33	     6.325
  54.160         40.00	     6.928
  54.180         48.33	     7.616
  54.200         37.50	     6.708
  54.220         54.17	     8.062
  54.240         57.50	     8.307
  54.260         60.83	     8.544
  54.280         55.00	     8.124
  54.300         51.67	     7.874
  54.320         51.67	     7.874
  54.340         43.33	     7.211
  54.360         62.50	     8.660
  54.380         53.33	     8.000
  54.400         35.00	     6.481
  54.420         47.50	     7.550
  54.440         50.00	     7.746
  54.460         54.17	     8.062
  54.480         48.33	     7.616
  54.500         50.83	     7.810
  54.520         47.50	     7.550
  54.540         54.17	     8.062
  54.560         46.67	     7.483
  54.580         49.17	     7.681
  54.600         43.33	     7.211
  54.620         51.67	     7.874
  54.640         45.83	     7.416
  54.660         66.67	     8.944
  54.680         73.33	     9.381
  54.700         55.83	     8.185
  54.720         85.00	    10.100
  54.740         75.83	     9.539
  54.760        115.00	    11.747
  54.780        137.50	    12.845
  54.800        128.33	    12.410
  54.820        106.67	    11.314
  54.840         77.50	     9.644
  54.860         84.17	    10.050
  54.880         59.17	     8.426
  54.900         90.83	    10.440
  54.920         70.83	     9.220
  54.940        104.17	    11.180
  54.960        102.50	    11.091
  54.980         80.00	     9.798
  55.000         69.17	     9.110
  55.020         70.00	     9.165
  55.040         57.50	     8.307
  55.060         55.00	     8.124
  55.080         46.67	     7.483
  55.100         60.00	     8.485
  55.120         72.50	     9.327
  55.140         57.50	     8.307
  55.160         75.00	     9.487
  55.180         50.83	     7.810
  55.200         62.50	     8.660
  55.220         81.67	     9.899
  55.240        102.50	    11.091
  55.260        105.83	    11.269
  55.280         93.33	    10.583
  55.300         80.00	     9.798
  55.320         61.67	     8.602
  55.340         65.00	     8.832
  55.360         55.00	     8.124
  55.380         66.67	     8.944
  55.400         73.33	     9.381
  55.420         79.17	     9.747
  55.440         51.67	     7.874
  55.460         60.83	     8.544
  55.480         59.17	     8.426
  55.500         49.17	     7.681
  55.520         60.83	     8.544
  55.540         36.67	     6.633
  55.560         38.33	     6.782
  55.580         50.83	     7.810
  55.600         60.00	     8.485
  55.620         50.00	     7.746
  55.640         57.50	     8.307
  55.660         55.83	     8.185
  55.680         61.67	     8.602
  55.700         61.67	     8.602
  55.720         53.33	     8.000
  55.740         62.50	     8.660
  55.760         62.50	     8.660
  55.780         65.83	     8.888
  55.800         56.67	     8.246
  55.820         61.67	     8.602
  55.840         53.33	     8.000
  55.860         60.00	     8.485
  55.880         54.17	     8.062
  55.900         55.00	     8.124
  55.920         53.33	     8.000
  55.940         45.83	     7.416
  55.960         39.17	     6.856
  55.980         50.00	     7.746
  56.000         49.17	     7.681
  56.020         50.83	     7.810
  56.040         45.83	     7.416
  56.060         50.00	     7.746
  56.080         40.00	     6.928
  56.100         45.83	     7.416
  56.120         46.67	     7.483
  56.140         39.17	     6.856
  56.160         49.17	     7.681
  56.180         58.33	     8.367
  56.200         45.00	     7.348
  56.220         45.00	     7.348
  56.240         40.00	     6.928
  56.260         50.00	     7.746
  56.280         34.17	     6.403
  56.300         38.33	     6.782
  56.320         35.00	     6.481
  56.340         47.50	     7.550
  56.360         44.17	     7.280
  56.380         35.83	     6.557
  56.400         35.83	     6.557
  56.420         50.00	     7.746
  56.440         39.17	     6.856
  56.460         46.67	     7.483
  56.480         39.17	     6.856
  56.500         40.83	     7.000
  56.520         37.50	     6.708
  56.540         36.67	     6.633
  56.560         35.83	     6.557
  56.580         45.00	     7.348
  56.600         45.00	     7.348
  56.620         43.33	     7.211
  56.640         46.67	     7.483
  56.660         43.33	     7.211
  56.680         49.17	     7.681
  56.700         60.83	     8.544
  56.720         51.67	     7.874
  56.740         50.83	     7.810
  56.760         55.83	     8.185
  56.780         39.17	     6.856
  56.800         40.83	     7.000
  56.820         42.50	     7.141
  56.840         51.67	     7.874
  56.860         54.17	     8.062
  56.880         35.00	     6.481
  56.900         42.50	     7.141
  56.920         47.50	     7.550
  56.940         45.00	     7.348
  56.960         40.00	     6.928
  56.980         45.00	     7.348
  57.000         38.33	     6.782
  57.020         39.17	     6.856
  57.040         32.50	     6.245
  57.060         43.33	     7.211
  57.080         46.67	     7.483
  57.100         43.33	     7.211
  57.120         43.33	     7.211
  57.140         56.67	     8.246
  57.160         56.67	     8.246
  57.180         40.83	     7.000
  57.200         50.00	     7.746
  57.220         45.83	     7.416
  57.240         33.33	     6.325
  57.260         47.50	     7.550
  57.280         42.50	     7.141
  57.300         40.83	     7.000
  57.320         43.33	     7.211
  57.340         45.83	     7.416
  57.360         45.00	     7.348
  57.380         48.33	     7.616
  57.400         45.83	     7.416
  57.420         38.33	     6.782
  57.440         37.50	     6.708
  57.460         40.83	     7.000
  57.480         43.33	     7.211
  57.500         60.83	     8.544
  57.520         50.00	     7.746
  57.540         32.50	     6.245
  57.560         40.00	     6.928
  57.580         46.67	     7.483
  57.600         38.33	     6.782
  57.620         45.83	     7.416
  57.640         38.33	     6.782
  57.660         34.17	     6.403
  57.680         56.67	     8.246
  57.700         50.00	     7.746
  57.720         43.33	     7.211
  57.740         45.83	     7.416
  57.760         45.83	     7.416
  57.780         42.50	     7.141
  57.800         34.17	     6.403
  57.820         44.17	     7.280
  57.840         40.83	     7.000
  57.860         45.83	     7.416
  57.880         40.83	     7.000
  57.900         36.67	     6.633
  57.920         43.33	     7.211
  57.940         39.17	     6.856
  57.960         37.50	     6.708
  57.980         48.33	     7.616
  58.000         55.83	     8.185
  58.020         49.17	     7.681
  58.040         52.50	     7.937
  58.060         50.83	     7.810
  58.080         52.50	     7.937
  58.100         54.17	     8.062
  58.120         49.17	     7.681
  58.140         58.33	     8.367
  58.160         63.33	     8.718
  58.180         69.17	     9.110
  58.200         70.00	     9.165
  58.220         72.50	     9.327
  58.240         67.50	     9.000
  58.260         67.50	     9.000
  58.280         65.00	     8.832
  58.300         50.00	     7.746
  58.320         53.33	     8.000
  58.340         60.83	     8.544
  58.360         67.50	     9.000
  58.380         60.00	     8.485
  58.400         51.67	     7.874
  58.420         55.00	     8.124
  58.440         50.83	     7.810
  58.460         44.17	     7.280
  58.480         45.00	     7.348
  58.500         56.67	     8.246
  58.520         55.83	     8.185
  58.540         49.17	     7.681
  58.560         65.83	     8.888
  58.580         65.83	     8.888
  58.600         71.67	     9.274
  58.620         73.33	     9.381
  58.640         50.00	     7.746
  58.660         60.00	     8.485
  58.680         64.17	     8.775
  58.700         74.17	     9.434
  58.720         67.50	     9.000
  58.740         62.50	     8.660
  58.760         69.17	     9.110
  58.780         56.67	     8.246
  58.800         55.83	     8.185
  58.820         51.67	     7.874
  58.840         56.67	     8.246
  58.860         47.50	     7.550
  58.880         46.67	     7.483
  58.900         50.83	     7.810
  58.920         55.83	     8.185
  58.940         62.50	     8.660
  58.960         60.83	     8.544
  58.980         51.67	     7.874
  59.000         70.83	     9.220
  59.020         63.33	     8.718
  59.040         48.33	     7.616
  59.060         60.00	     8.485
  59.080         72.50	     9.327
  59.100         54.17	     8.062
  59.120         75.00	     9.487
  59.140         79.17	     9.747
  59.160         70.00	     9.165
  59.180         81.67	     9.899
  59.200         69.17	     9.110
  59.220         55.83	     8.185
  59.240         67.50	     9.000
  59.260         48.33	     7.616
  59.280         67.50	     9.000
  59.300         58.33	     8.367
  59.320         62.50	     8.660
  59.340         56.67	     8.246
  59.360         46.67	     7.483
  59.380         52.50	     7.937
  59.400         45.00	     7.348
  59.420         49.17	     7.681
  59.440         51.67	     7.874
  59.460         42.50	     7.141
  59.480         47.50	     7.550
  59.500         65.00	     8.832
  59.520         50.00	     7.746
  59.540         42.50	     7.141
  59.560         48.33	     7.616
  59.580         40.83	     7.000
  59.600         59.17	     8.426
  59.620         47.50	     7.550
  59.640         51.67	     7.874
  59.660         66.67	     8.944
  59.680         59.17	     8.426
  59.700         67.50	     9.000
  59.720         68.33	     9.055
  59.740         73.33	     9.381
  59.760         98.33	    10.863
  59.780        108.33	    11.402
  59.800        155.00	    13.638
  59.820        193.33	    15.232
  59.840        255.83	    17.521
  59.860        405.00	    22.045
  59.880        516.67	    24.900
  59.900        486.67	    24.166
  59.920        394.17	    21.749
  59.940        250.00	    17.321
  59.960        198.33	    15.427
  59.980        152.50	    13.528
  60.000        178.33	    14.629
  60.020        238.33	    16.912
  60.040        256.67	    17.550
  60.060        295.00	    18.815
  60.080        234.17	    16.763
  60.100        165.00	    14.071
  60.120        125.83	    12.288
  60.140         90.00	    10.392
  60.160         86.67	    10.198
  60.180         82.50	     9.950
  60.200         73.33	     9.381
  60.220         75.83	     9.539
  60.240         65.00	     8.832
  60.260         56.67	     8.246
  60.280         65.00	     8.832
  60.300         65.83	     8.888
  60.320         58.33	     8.367
  60.340         80.00	     9.798
  60.360         72.50	     9.327
  60.380         68.33	     9.055
  60.400         72.50	     9.327
  60.420         75.83	     9.539
  60.440         78.33	     9.695
  60.460         72.50	     9.327
  60.480         72.50	     9.327
  60.500         69.17	     9.110
  60.520         63.33	     8.718
  60.540         61.67	     8.602
  60.560         78.33	     9.695
  60.580         81.67	     9.899
  60.600         86.67	    10.198
  60.620         80.83	     9.849
  60.640         91.67	    10.488
  60.660         70.00	     9.165
  60.680         58.33	     8.367
  60.700         73.33	     9.381
  60.720         66.67	     8.944
  60.740         65.00	     8.832
  60.760         78.33	     9.695
  60.780         80.83	     9.849
  60.800         60.00	     8.485
  60.820         73.33	     9.381
  60.840         75.00	     9.487
  60.860         65.83	     8.888
  60.880         77.50	     9.644
  60.900         60.00	     8.485
  60.920         72.50	     9.327
  60.940         69.17	     9.110
  60.960         82.50	     9.950
  60.980        109.17	    11.446
  61.000        135.83	    12.767
  61.020         90.00	    10.392
  61.040         60.83	     8.544
  61.060         54.17	     8.062
  61.080         65.00	     8.832
  61.100         61.67	     8.602
  61.120         61.67	     8.602
  61.140         84.17	    10.050
  61.160         70.83	     9.220
  61.180         71.67	     9.274
  61.200         65.00	     8.832
  61.220         50.00	     7.746
  61.240         70.83	     9.220
  61.260         54.17	     8.062
  61.280         60.83	     8.544
  61.300         71.67	     9.274
  61.320         69.17	     9.110
  61.340         70.83	     9.220
  61.360         67.50	     9.000
  61.380         75.00	     9.487
  61.400         77.50	     9.644
  61.420         74.17	     9.434
  61.440         75.00	     9.487
  61.460         70.83	     9.220
  61.480         80.00	     9.798
  61.500         68.33	     9.055
  61.520         71.67	     9.274
  61.540         68.33	     9.055
  61.560         64.17	     8.775
  61.580         51.67	     7.874
  61.600         59.17	     8.426
  61.620         71.67	     9.274
  61.640         76.67	     9.592
  61.660         80.83	     9.849
  61.680         59.17	     8.426
  61.700         43.33	     7.211
  61.720         51.67	     7.874
  61.740         47.50	     7.550
  61.760         49.17	     7.681
  61.780         60.00	     8.485
  61.800         62.50	     8.660
  61.820         60.83	     8.544
  61.840         60.00	     8.485
  61.860         60.00	     8.485
  61.880         77.50	     9.644
  61.900         54.17	     8.062
  61.920         60.00	     8.485
  61.940         55.00	     8.124
  61.960         64.17	     8.775
  61.980         67.50	     9.000
  62.000         58.33	     8.367
  62.020         50.00	     7.746
  62.040         57.50	     8.307
  62.060         62.50	     8.660
  62.080         46.67	     7.483
  62.100         60.00	     8.485
  62.120         52.50	     7.937
  62.140         51.67	     7.874
  62.160         52.50	     7.937
  62.180         43.33	     7.211
  62.200         45.00	     7.348
  62.220         49.17	     7.681
  62.240         61.67	     8.602
  62.260         50.83	     7.810
  62.280         48.33	     7.616
  62.300         50.00	     7.746
  62.320         49.17	     7.681
  62.340         51.67	     7.874
  62.360         60.83	     8.544
  62.380         42.50	     7.141
  62.400         45.00	     7.348
  62.420         52.50	     7.937
  62.440         60.83	     8.544
  62.460         60.83	     8.544
  62.480         62.50	     8.660
  62.500         82.50	     9.950
  62.520         85.00	    10.100
  62.540         93.33	    10.583
  62.560         82.50	     9.950
  62.580         57.50	     8.307
  62.600         68.33	     9.055
  62.620         45.00	     7.348
  62.640         60.00	     8.485
  62.660         67.50	     9.000
  62.680         71.67	     9.274
  62.700         75.83	     9.539
  62.720         77.50	     9.644
  62.740         74.17	     9.434
  62.760         49.17	     7.681
  62.780         40.00	     6.928
  62.800         35.83	     6.557
  62.820         56.67	     8.246
  62.840         40.83	     7.000
  62.860         45.83	     7.416
  62.880         38.33	     6.782
  62.900         50.83	     7.810
  62.920         40.00	     6.928
  62.940         52.50	     7.937
  62.960         41.67	     7.071
  62.980         41.67	     7.071
  63.000         48.33	     7.616
  63.020         55.00	     8.124
  63.040         60.00	     8.485
  63.060         61.67	     8.602
  63.080         50.00	     7.746
  63.100         45.00	     7.348
  63.120         38.33	     6.782
  63.140         44.17	     7.280
  63.160         45.00	     7.348
  63.180         45.00	     7.348
  63.200         60.83	     8.544
  63.220         50.00	     7.746
  63.240         52.50	     7.937
  63.260         53.33	     8.000
  63.280         42.50	     7.141
  63.300         43.33	     7.211
  63.320         59.17	     8.426
  63.340         62.50	     8.660
  63.360         50.83	     7.810
  63.380         72.50	     9.327
  63.400         58.33	     8.367
  63.420         69.17	     9.110
  63.440         62.50	     8.660
  63.460         80.00	     9.798
  63.480         56.67	     8.246
  63.500         54.17	     8.062
  63.520         63.33	     8.718
  63.540         51.67	     7.874
  63.560         67.50	     9.000
  63.580         60.00	     8.485
  63.600         59.17	     8.426
  63.620         70.00	     9.165
  63.640         79.17	     9.747
  63.660         77.50	     9.644
  63.680         55.00	     8.124
  63.700         56.67	     8.246
  63.720         56.67	     8.246
  63.740         43.33	     7.211
  63.760         41.67	     7.071
  63.780         50.00	     7.746
  63.800         70.00	     9.165
  63.820         52.50	     7.937
  63.840         72.50	     9.327
  63.860         65.00	     8.832
  63.880         54.17	     8.062
  63.900         72.50	     9.327
  63.920         87.50	    10.247
  63.940         75.00	     9.487
  63.960        110.83	    11.533
  63.980         88.33	    10.296
  64.000         75.83	     9.539
  64.020         75.00	     9.487
  64.040         65.00	     8.832
  64.060         69.17	     9.110
  64.080         63.33	     8.718
  64.100         70.83	     9.220
  64.120         95.00	    10.677
  64.140         86.67	    10.198
  64.160         65.83	     8.888
  64.180         66.67	     8.944
  64.200         55.83	     8.185
  64.220         66.67	     8.944
  64.240         63.33	     8.718
  64.260         77.50	     9.644
  64.280         60.83	     8.544
  64.300         67.50	     9.000
  64.320         59.17	     8.426
  64.340         49.17	     7.681
  64.360         46.67	     7.483
  64.380         55.00	     8.124
  64.400         61.67	     8.602
  64.420         48.33	     7.616
  64.440         46.67	     7.483
  64.460         61.67	     8.602
  64.480         45.83	     7.416
  64.500         54.17	     8.062
  64.520         58.33	     8.367
  64.540         50.00	     7.746
  64.560         41.67	     7.071
  64.580         42.50	     7.141
  64.600         45.00	     7.348
  64.620         42.50	     7.141
  64.640         52.50	     7.937
  64.660         60.00	     8.485
  64.680         58.33	     8.367
  64.700         50.83	     7.810
  64.720         53.33	     8.000
  64.740         42.50	     7.141
  64.760         40.00	     6.928
  64.780         47.50	     7.550
  64.800         52.50	     7.937
  64.820         50.83	     7.810
  64.840         47.50	     7.550
  64.860         50.83	     7.810
  64.880         49.17	     7.681
  64.900         53.33	     8.000
  64.920         63.33	     8.718
  64.940         44.17	     7.280
  64.960         53.33	     8.000
  64.980         57.50	     8.307
  65.000         59.17	     8.426
