
Filename:
	C:\Program Files\Thermo Electron\WinXRD\Datafiles\F_HERMAN\GEO\G68_RT.raw

File Created:
	February 20, 2020 - 11:09 PM

Specimen Id:
	G68_RT

Specimen Name:
	

Specimen Description:
	

Comment:
Scan Type: 2Theta Scan
Start Angle: 3 deg.
Stop Angle: 65 deg.
Num Points: 3101
Step Size: 0.02 deg.
Scan Rate: 1.000000
Scan Mode: Continuous
Wavelength: 1.540562
\Kalpha1: 1.540562	\Kalpha2: 1.544390	\Kbeta: 1.392218

Optics:
		Detector:
			 Type: Fixed Slits
		Tube: 
			 Type: Fixed Slits


Datas:
 Pos [deg]       Rate [CPS]      ESD [-]

Range 1 ---> Iteration 1
   3.000        475.00	    23.875
   3.020        463.33	    23.580
   3.040        519.17	    24.960
   3.060        517.50	    24.920
   3.080        470.00	    23.749
   3.100        479.17	    23.979
   3.120        472.50	    23.812
   3.140        431.67	    22.760
   3.160        456.67	    23.409
   3.180        472.50	    23.812
   3.200        444.17	    23.087
   3.220        445.00	    23.108
   3.240        473.33	    23.833
   3.260        459.17	    23.473
   3.280        466.67	    23.664
   3.300        443.33	    23.065
   3.320        457.50	    23.431
   3.340        447.50	    23.173
   3.360        424.17	    22.561
   3.380        453.33	    23.324
   3.400        437.50	    22.913
   3.420        409.17	    22.159
   3.440        410.83	    22.204
   3.460        395.83	    21.794
   3.480        391.67	    21.679
   3.500        412.50	    22.249
   3.520        389.17	    21.610
   3.540        407.50	    22.113
   3.560        410.00	    22.181
   3.580        378.33	    21.307
   3.600        396.67	    21.817
   3.620        403.33	    22.000
   3.640        401.67	    21.954
   3.660        365.83	    20.952
   3.680        406.67	    22.091
   3.700        365.83	    20.952
   3.720        353.33	    20.591
   3.740        381.67	    21.401
   3.760        355.00	    20.640
   3.780        354.17	    20.616
   3.800        357.50	    20.712
   3.820        374.17	    21.190
   3.840        358.33	    20.736
   3.860        368.33	    21.024
   3.880        350.00	    20.494
   3.900        357.50	    20.712
   3.920        361.67	    20.833
   3.940        373.33	    21.166
   3.960        371.67	    21.119
   3.980        351.67	    20.543
   4.000        337.50	    20.125
   4.020        369.17	    21.048
   4.040        325.00	    19.748
   4.060        332.50	    19.975
   4.080        311.67	    19.339
   4.100        345.83	    20.372
   4.120        376.67	    21.260
   4.140        315.00	    19.442
   4.160        339.17	    20.174
   4.180        344.17	    20.322
   4.200        300.00	    18.974
   4.220        291.67	    18.708
   4.240        320.00	    19.596
   4.260        308.33	    19.235
   4.280        301.67	    19.026
   4.300        328.33	    19.849
   4.320        308.33	    19.235
   4.340        319.17	    19.570
   4.360        310.83	    19.313
   4.380        306.67	    19.183
   4.400        322.50	    19.672
   4.420        327.50	    19.824
   4.440        294.17	    18.788
   4.460        315.00	    19.442
   4.480        302.50	    19.053
   4.500        301.67	    19.026
   4.520        278.33	    18.276
   4.540        307.50	    19.209
   4.560        258.33	    17.607
   4.580        284.17	    18.466
   4.600        270.00	    18.000
   4.620        303.33	    19.079
   4.640        297.50	    18.894
   4.660        295.83	    18.841
   4.680        277.50	    18.248
   4.700        290.83	    18.682
   4.720        272.50	    18.083
   4.740        321.67	    19.647
   4.760        260.83	    17.692
   4.780        265.00	    17.833
   4.800        278.33	    18.276
   4.820        253.33	    17.436
   4.840        285.00	    18.493
   4.860        264.17	    17.804
   4.880        264.17	    17.804
   4.900        265.00	    17.833
   4.920        270.83	    18.028
   4.940        284.17	    18.466
   4.960        289.17	    18.628
   4.980        270.83	    18.028
   5.000        265.00	    17.833
   5.020        288.33	    18.601
   5.040        263.33	    17.776
   5.060        270.00	    18.000
   5.080        264.17	    17.804
   5.100        268.33	    17.944
   5.120        260.00	    17.664
   5.140        232.50	    16.703
   5.160        250.00	    17.321
   5.180        245.83	    17.176
   5.200        290.00	    18.655
   5.220        287.50	    18.574
   5.240        257.50	    17.578
   5.260        265.83	    17.861
   5.280        266.67	    17.889
   5.300        257.50	    17.578
   5.320        249.17	    17.292
   5.340        257.50	    17.578
   5.360        254.17	    17.464
   5.380        270.83	    18.028
   5.400        263.33	    17.776
   5.420        245.83	    17.176
   5.440        261.67	    17.720
   5.460        237.50	    16.882
   5.480        260.83	    17.692
   5.500        272.50	    18.083
   5.520        273.33	    18.111
   5.540        243.33	    17.088
   5.560        247.50	    17.234
   5.580        260.00	    17.664
   5.600        291.67	    18.708
   5.620        248.33	    17.263
   5.640        272.50	    18.083
   5.660        288.33	    18.601
   5.680        290.00	    18.655
   5.700        355.00	    20.640
   5.720        341.67	    20.248
   5.740        354.17	    20.616
   5.760        360.00	    20.785
   5.780        420.83	    22.472
   5.800        455.83	    23.388
   5.820        459.17	    23.473
   5.840        399.17	    21.886
   5.860        370.00	    21.071
   5.880        354.17	    20.616
   5.900        388.33	    21.587
   5.920        360.83	    20.809
   5.940        404.17	    22.023
   5.960        462.50	    23.558
   5.980        514.17	    24.839
   6.000        535.83	    25.357
   6.020        521.67	    25.020
   6.040        482.50	    24.062
   6.060        507.50	    24.678
   6.080        397.50	    21.840
   6.100        330.83	    19.925
   6.120        273.33	    18.111
   6.140        238.33	    16.912
   6.160        259.17	    17.635
   6.180        273.33	    18.111
   6.200        230.83	    16.643
   6.220        235.00	    16.793
   6.240        229.17	    16.583
   6.260        221.67	    16.310
   6.280        236.67	    16.852
   6.300        215.83	    16.093
   6.320        215.00	    16.062
   6.340        204.17	    15.652
   6.360        200.83	    15.524
   6.380        213.33	    16.000
   6.400        215.00	    16.062
   6.420        217.50	    16.155
   6.440        214.17	    16.031
   6.460        235.00	    16.793
   6.480        220.00	    16.248
   6.500        236.67	    16.852
   6.520        199.17	    15.460
   6.540        195.83	    15.330
   6.560        222.50	    16.340
   6.580        202.50	    15.588
   6.600        215.83	    16.093
   6.620        185.83	    14.933
   6.640        212.50	    15.969
   6.660        170.00	    14.283
   6.680        215.00	    16.062
   6.700        203.33	    15.620
   6.720        185.00	    14.900
   6.740        190.00	    15.100
   6.760        220.83	    16.279
   6.780        198.33	    15.427
   6.800        207.50	    15.780
   6.820        203.33	    15.620
   6.840        179.17	    14.663
   6.860        199.17	    15.460
   6.880        198.33	    15.427
   6.900        203.33	    15.620
   6.920        205.83	    15.716
   6.940        185.00	    14.900
   6.960        175.83	    14.526
   6.980        190.83	    15.133
   7.000        197.50	    15.395
   7.020        190.83	    15.133
   7.040        190.83	    15.133
   7.060        195.83	    15.330
   7.080        178.33	    14.629
   7.100        172.50	    14.387
   7.120        199.17	    15.460
   7.140        161.67	    13.928
   7.160        184.17	    14.866
   7.180        179.17	    14.663
   7.200        180.00	    14.697
   7.220        189.17	    15.067
   7.240        187.50	    15.000
   7.260        193.33	    15.232
   7.280        174.17	    14.457
   7.300        182.50	    14.799
   7.320        172.50	    14.387
   7.340        160.00	    13.856
   7.360        180.83	    14.731
   7.380        165.83	    14.107
   7.400        166.67	    14.142
   7.420        172.50	    14.387
   7.440        193.33	    15.232
   7.460        162.50	    13.964
   7.480        195.00	    15.297
   7.500        173.33	    14.422
   7.520        175.83	    14.526
   7.540        175.00	    14.491
   7.560        185.00	    14.900
   7.580        178.33	    14.629
   7.600        179.17	    14.663
   7.620        164.17	    14.036
   7.640        159.17	    13.820
   7.660        165.00	    14.071
   7.680        178.33	    14.629
   7.700        171.67	    14.353
   7.720        173.33	    14.422
   7.740        165.00	    14.071
   7.760        167.50	    14.177
   7.780        186.67	    14.967
   7.800        175.83	    14.526
   7.820        141.67	    13.038
   7.840        160.00	    13.856
   7.860        170.83	    14.318
   7.880        164.17	    14.036
   7.900        169.17	    14.248
   7.920        156.67	    13.711
   7.940        175.83	    14.526
   7.960        162.50	    13.964
   7.980        161.67	    13.928
   8.000        171.67	    14.353
   8.020        160.00	    13.856
   8.040        158.33	    13.784
   8.060        174.17	    14.457
   8.080        165.83	    14.107
   8.100        158.33	    13.784
   8.120        186.67	    14.967
   8.140        170.00	    14.283
   8.160        146.67	    13.266
   8.180        169.17	    14.248
   8.200        169.17	    14.248
   8.220        160.00	    13.856
   8.240        152.50	    13.528
   8.260        169.17	    14.248
   8.280        165.00	    14.071
   8.300        162.50	    13.964
   8.320        163.33	    14.000
   8.340        160.83	    13.892
   8.360        175.00	    14.491
   8.380        180.00	    14.697
   8.400        191.67	    15.166
   8.420        191.67	    15.166
   8.440        194.17	    15.264
   8.460        204.17	    15.652
   8.480        210.83	    15.906
   8.500        208.33	    15.811
   8.520        222.50	    16.340
   8.540        280.00	    18.330
   8.560        250.83	    17.349
   8.580        289.17	    18.628
   8.600        351.67	    20.543
   8.620        397.50	    21.840
   8.640        403.33	    22.000
   8.660        549.17	    25.671
   8.680        844.17	    31.828
   8.700       1025.00	    35.071
   8.720        900.00	    32.863
   8.740        571.67	    26.192
   8.760        307.50	    19.209
   8.780        222.50	    16.340
   8.800        174.17	    14.457
   8.820        181.67	    14.765
   8.840        182.50	    14.799
   8.860        173.33	    14.422
   8.880        170.00	    14.283
   8.900        172.50	    14.387
   8.920        145.00	    13.191
   8.940        179.17	    14.663
   8.960        156.67	    13.711
   8.980        161.67	    13.928
   9.000        172.50	    14.387
   9.020        185.00	    14.900
   9.040        153.33	    13.565
   9.060        131.67	    12.570
   9.080        145.00	    13.191
   9.100        135.83	    12.767
   9.120        138.33	    12.884
   9.140        148.33	    13.342
   9.160        153.33	    13.565
   9.180        144.17	    13.153
   9.200        158.33	    13.784
   9.220        195.83	    15.330
   9.240        211.67	    15.937
   9.260        239.17	    16.941
   9.280        275.83	    18.193
   9.300        217.50	    16.155
   9.320        177.50	    14.595
   9.340        127.50	    12.369
   9.360        138.33	    12.884
   9.380        136.67	    12.806
   9.400        118.33	    11.916
   9.420        124.17	    12.207
   9.440        120.83	    12.042
   9.460        117.50	    11.874
   9.480        130.83	    12.530
   9.500        112.50	    11.619
   9.520        141.67	    13.038
   9.540        163.33	    14.000
   9.560        136.67	    12.806
   9.580        132.50	    12.610
   9.600        144.17	    13.153
   9.620        123.33	    12.166
   9.640        137.50	    12.845
   9.660        149.17	    13.379
   9.680        124.17	    12.207
   9.700        129.17	    12.450
   9.720        120.83	    12.042
   9.740        108.33	    11.402
   9.760        117.50	    11.874
   9.780        112.50	    11.619
   9.800        126.67	    12.329
   9.820        124.17	    12.207
   9.840        124.17	    12.207
   9.860        138.33	    12.884
   9.880        131.67	    12.570
   9.900        127.50	    12.369
   9.920        123.33	    12.166
   9.940        121.67	    12.083
   9.960        120.00	    12.000
   9.980        140.00	    12.961
  10.000        115.83	    11.790
  10.020        119.17	    11.958
  10.040        117.50	    11.874
  10.060        115.00	    11.747
  10.080        105.83	    11.269
  10.100        118.33	    11.916
  10.120        122.50	    12.124
  10.140        130.00	    12.490
  10.160        128.33	    12.410
  10.180        119.17	    11.958
  10.200        146.67	    13.266
  10.220        136.67	    12.806
  10.240        155.83	    13.675
  10.260        178.33	    14.629
  10.280        184.17	    14.866
  10.300        236.67	    16.852
  10.320        274.17	    18.138
  10.340        382.50	    21.424
  10.360        616.67	    27.203
  10.380        698.33	    28.948
  10.400        499.17	    24.474
  10.420        286.67	    18.547
  10.440        175.83	    14.526
  10.460        136.67	    12.806
  10.480         92.50	    10.536
  10.500        125.00	    12.247
  10.520        130.00	    12.490
  10.540        105.00	    11.225
  10.560        122.50	    12.124
  10.580        126.67	    12.329
  10.600        114.17	    11.705
  10.620        113.33	    11.662
  10.640        118.33	    11.916
  10.660        109.17	    11.446
  10.680        101.67	    11.045
  10.700        114.17	    11.705
  10.720         96.67	    10.770
  10.740        106.67	    11.314
  10.760        129.17	    12.450
  10.780        118.33	    11.916
  10.800        121.67	    12.083
  10.820        109.17	    11.446
  10.840        113.33	    11.662
  10.860        135.00	    12.728
  10.880        106.67	    11.314
  10.900         90.83	    10.440
  10.920        111.67	    11.576
  10.940        102.50	    11.091
  10.960        101.67	    11.045
  10.980        105.00	    11.225
  11.000        123.33	    12.166
  11.020        115.00	    11.747
  11.040        116.67	    11.832
  11.060        103.33	    11.136
  11.080        123.33	    12.166
  11.100        132.50	    12.610
  11.120        129.17	    12.450
  11.140        114.17	    11.705
  11.160        131.67	    12.570
  11.180        122.50	    12.124
  11.200         93.33	    10.583
  11.220         95.00	    10.677
  11.240        103.33	    11.136
  11.260        110.00	    11.489
  11.280        110.00	    11.489
  11.300        107.50	    11.358
  11.320        119.17	    11.958
  11.340        113.33	    11.662
  11.360        110.00	    11.489
  11.380        111.67	    11.576
  11.400         91.67	    10.488
  11.420        101.67	    11.045
  11.440        102.50	    11.091
  11.460        105.00	    11.225
  11.480        114.17	    11.705
  11.500        125.83	    12.288
  11.520        138.33	    12.884
  11.540        117.50	    11.874
  11.560        116.67	    11.832
  11.580        121.67	    12.083
  11.600        117.50	    11.874
  11.620        115.83	    11.790
  11.640        128.33	    12.410
  11.660        134.17	    12.689
  11.680        112.50	    11.619
  11.700        115.00	    11.747
  11.720        130.00	    12.490
  11.740        138.33	    12.884
  11.760        127.50	    12.369
  11.780        135.83	    12.767
  11.800        155.00	    13.638
  11.820        165.83	    14.107
  11.840        161.67	    13.928
  11.860        176.67	    14.560
  11.880        235.00	    16.793
  11.900        266.67	    17.889
  11.920        321.67	    19.647
  11.940        392.50	    21.703
  11.960        615.83	    27.185
  11.980       1033.33	    35.214
  12.000       1406.67	    41.085
  12.020       1365.00	    40.472
  12.040       1036.67	    35.270
  12.060        649.17	    27.911
  12.080        416.67	    22.361
  12.100        394.17	    21.749
  12.120        460.83	    23.516
  12.140        558.33	    25.884
  12.160        686.67	    28.705
  12.180        706.67	    29.120
  12.200        647.50	    27.875
  12.220        496.67	    24.413
  12.240        437.50	    22.913
  12.260        443.33	    23.065
  12.280        545.00	    25.573
  12.300        624.17	    27.368
  12.320        620.00	    27.276
  12.340        526.67	    25.140
  12.360        343.33	    20.298
  12.380        227.50	    16.523
  12.400        146.67	    13.266
  12.420        132.50	    12.610
  12.440        115.00	    11.747
  12.460        126.67	    12.329
  12.480        143.33	    13.115
  12.500        120.83	    12.042
  12.520        121.67	    12.083
  12.540        104.17	    11.180
  12.560        108.33	    11.402
  12.580        112.50	    11.619
  12.600        118.33	    11.916
  12.620        130.00	    12.490
  12.640        101.67	    11.045
  12.660        111.67	    11.576
  12.680         92.50	    10.536
  12.700        109.17	    11.446
  12.720         90.83	    10.440
  12.740        103.33	    11.136
  12.760         90.83	    10.440
  12.780         96.67	    10.770
  12.800         99.17	    10.909
  12.820         88.33	    10.296
  12.840        103.33	    11.136
  12.860        115.00	    11.747
  12.880         84.17	    10.050
  12.900         98.33	    10.863
  12.920         89.17	    10.344
  12.940        100.00	    10.954
  12.960         98.33	    10.863
  12.980        105.00	    11.225
  13.000         91.67	    10.488
  13.020         85.00	    10.100
  13.040         95.00	    10.677
  13.060        106.67	    11.314
  13.080        105.00	    11.225
  13.100        105.00	    11.225
  13.120         88.33	    10.296
  13.140         81.67	     9.899
  13.160        110.83	    11.533
  13.180         95.83	    10.724
  13.200        100.00	    10.954
  13.220        100.00	    10.954
  13.240         90.83	    10.440
  13.260         85.00	    10.100
  13.280         96.67	    10.770
  13.300         93.33	    10.583
  13.320         85.00	    10.100
  13.340         99.17	    10.909
  13.360         94.17	    10.630
  13.380         85.00	    10.100
  13.400        104.17	    11.180
  13.420         82.50	     9.950
  13.440         91.67	    10.488
  13.460        107.50	    11.358
  13.480         92.50	    10.536
  13.500         73.33	     9.381
  13.520         78.33	     9.695
  13.540         84.17	    10.050
  13.560         76.67	     9.592
  13.580         97.50	    10.817
  13.600        109.17	    11.446
  13.620         93.33	    10.583
  13.640        126.67	    12.329
  13.660        130.00	    12.490
  13.680        133.33	    12.649
  13.700        108.33	    11.402
  13.720        101.67	    11.045
  13.740         83.33	    10.000
  13.760         78.33	     9.695
  13.780         79.17	     9.747
  13.800        106.67	    11.314
  13.820         59.17	     8.426
  13.840         90.00	    10.392
  13.860         80.00	     9.798
  13.880         86.67	    10.198
  13.900         86.67	    10.198
  13.920         71.67	     9.274
  13.940         80.00	     9.798
  13.960         72.50	     9.327
  13.980         79.17	     9.747
  14.000         80.83	     9.849
  14.020         95.83	    10.724
  14.040         84.17	    10.050
  14.060         67.50	     9.000
  14.080         80.83	     9.849
  14.100         80.83	     9.849
  14.120         82.50	     9.950
  14.140         85.00	    10.100
  14.160         67.50	     9.000
  14.180         80.83	     9.849
  14.200         76.67	     9.592
  14.220         82.50	     9.950
  14.240         63.33	     8.718
  14.260         58.33	     8.367
  14.280         79.17	     9.747
  14.300         69.17	     9.110
  14.320         78.33	     9.695
  14.340         80.00	     9.798
  14.360         85.83	    10.149
  14.380         73.33	     9.381
  14.400         77.50	     9.644
  14.420         86.67	    10.198
  14.440         80.83	     9.849
  14.460         80.00	     9.798
  14.480         59.17	     8.426
  14.500         68.33	     9.055
  14.520         80.83	     9.849
  14.540         75.83	     9.539
  14.560         73.33	     9.381
  14.580         67.50	     9.000
  14.600         75.00	     9.487
  14.620         84.17	    10.050
  14.640         75.00	     9.487
  14.660         70.00	     9.165
  14.680         76.67	     9.592
  14.700         81.67	     9.899
  14.720         71.67	     9.274
  14.740         88.33	    10.296
  14.760         80.00	     9.798
  14.780         73.33	     9.381
  14.800         79.17	     9.747
  14.820         78.33	     9.695
  14.840         61.67	     8.602
  14.860         84.17	    10.050
  14.880         76.67	     9.592
  14.900         79.17	     9.747
  14.920         58.33	     8.367
  14.940         74.17	     9.434
  14.960         83.33	    10.000
  14.980         77.50	     9.644
  15.000         80.00	     9.798
  15.020         63.33	     8.718
  15.040         75.83	     9.539
  15.060         63.33	     8.718
  15.080         80.00	     9.798
  15.100         73.33	     9.381
  15.120         69.17	     9.110
  15.140         63.33	     8.718
  15.160         62.50	     8.660
  15.180         71.67	     9.274
  15.200         62.50	     8.660
  15.220         65.83	     8.888
  15.240         50.00	     7.746
  15.260         59.17	     8.426
  15.280         60.83	     8.544
  15.300         65.83	     8.888
  15.320         62.50	     8.660
  15.340         75.83	     9.539
  15.360         48.33	     7.616
  15.380         72.50	     9.327
  15.400         71.67	     9.274
  15.420         70.83	     9.220
  15.440         61.67	     8.602
  15.460         65.83	     8.888
  15.480         80.00	     9.798
  15.500         49.17	     7.681
  15.520         67.50	     9.000
  15.540         62.50	     8.660
  15.560         70.83	     9.220
  15.580         55.00	     8.124
  15.600         73.33	     9.381
  15.620         73.33	     9.381
  15.640         75.83	     9.539
  15.660         73.33	     9.381
  15.680         65.83	     8.888
  15.700         63.33	     8.718
  15.720         67.50	     9.000
  15.740         75.00	     9.487
  15.760         70.83	     9.220
  15.780         67.50	     9.000
  15.800         69.17	     9.110
  15.820         65.83	     8.888
  15.840         84.17	    10.050
  15.860         64.17	     8.775
  15.880         75.00	     9.487
  15.900         70.00	     9.165
  15.920         67.50	     9.000
  15.940         68.33	     9.055
  15.960         54.17	     8.062
  15.980         75.00	     9.487
  16.000         74.17	     9.434
  16.020         67.50	     9.000
  16.040         70.00	     9.165
  16.060         70.00	     9.165
  16.080         70.83	     9.220
  16.100         62.50	     8.660
  16.120         53.33	     8.000
  16.140         66.67	     8.944
  16.160         55.83	     8.185
  16.180         61.67	     8.602
  16.200         66.67	     8.944
  16.220         64.17	     8.775
  16.240         63.33	     8.718
  16.260         70.83	     9.220
  16.280         70.00	     9.165
  16.300         69.17	     9.110
  16.320         68.33	     9.055
  16.340         77.50	     9.644
  16.360         67.50	     9.000
  16.380         60.00	     8.485
  16.400         58.33	     8.367
  16.420         72.50	     9.327
  16.440         70.83	     9.220
  16.460         70.83	     9.220
  16.480         56.67	     8.246
  16.500         71.67	     9.274
  16.520         69.17	     9.110
  16.540         54.17	     8.062
  16.560         62.50	     8.660
  16.580         66.67	     8.944
  16.600         70.00	     9.165
  16.620         75.83	     9.539
  16.640         55.00	     8.124
  16.660         62.50	     8.660
  16.680         62.50	     8.660
  16.700         78.33	     9.695
  16.720         75.83	     9.539
  16.740         64.17	     8.775
  16.760         86.67	    10.198
  16.780         78.33	     9.695
  16.800         77.50	     9.644
  16.820         82.50	     9.950
  16.840         57.50	     8.307
  16.860         54.17	     8.062
  16.880         70.00	     9.165
  16.900         57.50	     8.307
  16.920         88.33	    10.296
  16.940         59.17	     8.426
  16.960         63.33	     8.718
  16.980         65.00	     8.832
  17.000         65.83	     8.888
  17.020         70.83	     9.220
  17.040         75.83	     9.539
  17.060        112.50	    11.619
  17.080        110.00	    11.489
  17.100        120.83	    12.042
  17.120        121.67	    12.083
  17.140        309.17	    19.261
  17.160        692.50	    28.827
  17.180        396.67	    21.817
  17.200        419.17	    22.428
  17.220        250.00	    17.321
  17.240         92.50	    10.536
  17.260         82.50	     9.950
  17.280         80.83	     9.849
  17.300         65.83	     8.888
  17.320         80.00	     9.798
  17.340         67.50	     9.000
  17.360         78.33	     9.695
  17.380         85.83	    10.149
  17.400         73.33	     9.381
  17.420         84.17	    10.050
  17.440         90.00	    10.392
  17.460         85.83	    10.149
  17.480        102.50	    11.091
  17.500        101.67	    11.045
  17.520         94.17	    10.630
  17.540         94.17	    10.630
  17.560        113.33	    11.662
  17.580        166.67	    14.142
  17.600        269.17	    17.972
  17.620        307.50	    19.209
  17.640        326.67	    19.799
  17.660        294.17	    18.788
  17.680        248.33	    17.263
  17.700        202.50	    15.588
  17.720        135.00	    12.728
  17.740        121.67	    12.083
  17.760         70.83	     9.220
  17.780         85.83	    10.149
  17.800         76.67	     9.592
  17.820         85.83	    10.149
  17.840         68.33	     9.055
  17.860         62.50	     8.660
  17.880         65.00	     8.832
  17.900         81.67	     9.899
  17.920         85.83	    10.149
  17.940         69.17	     9.110
  17.960         83.33	    10.000
  17.980         81.67	     9.899
  18.000         59.17	     8.426
  18.020         75.00	     9.487
  18.040         70.83	     9.220
  18.060         87.50	    10.247
  18.080         73.33	     9.381
  18.100         81.67	     9.899
  18.120         79.17	     9.747
  18.140         71.67	     9.274
  18.160         72.50	     9.327
  18.180         98.33	    10.863
  18.200         89.17	    10.344
  18.220         89.17	    10.344
  18.240         95.83	    10.724
  18.260        108.33	    11.402
  18.280        117.50	    11.874
  18.300        121.67	    12.083
  18.320        168.33	    14.213
  18.340        235.83	    16.823
  18.360        315.83	    19.468
  18.380        366.67	    20.976
  18.400        332.50	    19.975
  18.420        303.33	    19.079
  18.440        250.83	    17.349
  18.460        205.83	    15.716
  18.480        181.67	    14.765
  18.500        180.00	    14.697
  18.520        163.33	    14.000
  18.540        196.67	    15.362
  18.560        213.33	    16.000
  18.580        244.17	    17.117
  18.600        261.67	    17.720
  18.620        234.17	    16.763
  18.640        213.33	    16.000
  18.660        191.67	    15.166
  18.680        125.83	    12.288
  18.700         93.33	    10.583
  18.720         93.33	    10.583
  18.740         91.67	    10.488
  18.760         85.83	    10.149
  18.780         83.33	    10.000
  18.800         88.33	    10.296
  18.820         85.83	    10.149
  18.840         95.00	    10.677
  18.860         71.67	     9.274
  18.880         85.00	    10.100
  18.900         69.17	     9.110
  18.920         70.00	     9.165
  18.940         76.67	     9.592
  18.960         76.67	     9.592
  18.980         69.17	     9.110
  19.000         80.00	     9.798
  19.020         91.67	    10.488
  19.040         80.83	     9.849
  19.060        115.00	    11.747
  19.080         87.50	    10.247
  19.100        100.83	    11.000
  19.120        110.83	    11.533
  19.140        117.50	    11.874
  19.160         90.83	    10.440
  19.180         95.83	    10.724
  19.200         93.33	    10.583
  19.220         75.00	     9.487
  19.240         63.33	     8.718
  19.260         96.67	    10.770
  19.280         85.00	    10.100
  19.300         70.00	     9.165
  19.320         85.00	    10.100
  19.340         70.00	     9.165
  19.360        100.00	    10.954
  19.380         69.17	     9.110
  19.400         73.33	     9.381
  19.420         84.17	    10.050
  19.440         82.50	     9.950
  19.460         80.83	     9.849
  19.480        105.83	    11.269
  19.500        100.00	    10.954
  19.520         79.17	     9.747
  19.540         95.00	    10.677
  19.560         85.83	    10.149
  19.580        100.00	    10.954
  19.600         94.17	    10.630
  19.620         95.83	    10.724
  19.640        109.17	    11.446
  19.660         89.17	    10.344
  19.680         95.83	    10.724
  19.700        108.33	    11.402
  19.720         86.67	    10.198
  19.740         75.00	     9.487
  19.760         88.33	    10.296
  19.780         83.33	    10.000
  19.800         94.17	    10.630
  19.820         77.50	     9.644
  19.840         70.83	     9.220
  19.860         65.83	     8.888
  19.880         87.50	    10.247
  19.900         75.83	     9.539
  19.920         61.67	     8.602
  19.940         75.83	     9.539
  19.960         89.17	    10.344
  19.980         65.00	     8.832
  20.000         70.00	     9.165
  20.020         82.50	     9.950
  20.040         87.50	    10.247
  20.060         60.00	     8.485
  20.080         72.50	     9.327
  20.100         60.83	     8.544
  20.120         59.17	     8.426
  20.140         84.17	    10.050
  20.160         68.33	     9.055
  20.180         56.67	     8.246
  20.200         76.67	     9.592
  20.220         67.50	     9.000
  20.240         65.83	     8.888
  20.260         61.67	     8.602
  20.280         74.17	     9.434
  20.300         65.00	     8.832
  20.320         65.83	     8.888
  20.340         68.33	     9.055
  20.360         79.17	     9.747
  20.380         62.50	     8.660
  20.400         69.17	     9.110
  20.420         73.33	     9.381
  20.440        101.67	    11.045
  20.460         75.00	     9.487
  20.480         70.83	     9.220
  20.500         85.83	    10.149
  20.520         78.33	     9.695
  20.540         90.00	    10.392
  20.560         91.67	    10.488
  20.580        129.17	    12.450
  20.600        127.50	    12.369
  20.620        178.33	    14.629
  20.640        320.00	    19.596
  20.660        515.00	    24.860
  20.680        555.83	    25.826
  20.700        466.67	    23.664
  20.720        380.83	    21.378
  20.740        269.17	    17.972
  20.760        191.67	    15.166
  20.780        123.33	    12.166
  20.800        120.83	    12.042
  20.820         96.67	    10.770
  20.840         98.33	    10.863
  20.860        115.83	    11.790
  20.880         95.83	    10.724
  20.900        102.50	    11.091
  20.920        100.00	    10.954
  20.940         85.00	    10.100
  20.960        105.00	    11.225
  20.980         90.00	    10.392
  21.000        121.67	    12.083
  21.020        130.83	    12.530
  21.040         94.17	    10.630
  21.060         90.00	    10.392
  21.080         74.17	     9.434
  21.100         65.83	     8.888
  21.120         75.00	     9.487
  21.140         55.83	     8.185
  21.160         76.67	     9.592
  21.180         55.83	     8.185
  21.200         59.17	     8.426
  21.220         65.00	     8.832
  21.240         70.00	     9.165
  21.260         72.50	     9.327
  21.280         70.00	     9.165
  21.300         66.67	     8.944
  21.320         70.00	     9.165
  21.340         65.00	     8.832
  21.360         60.00	     8.485
  21.380         64.17	     8.775
  21.400         72.50	     9.327
  21.420         69.17	     9.110
  21.440         64.17	     8.775
  21.460         52.50	     7.937
  21.480         55.83	     8.185
  21.500         70.83	     9.220
  21.520         58.33	     8.367
  21.540         73.33	     9.381
  21.560         62.50	     8.660
  21.580         54.17	     8.062
  21.600         65.00	     8.832
  21.620         58.33	     8.367
  21.640         70.00	     9.165
  21.660         58.33	     8.367
  21.680         56.67	     8.246
  21.700         62.50	     8.660
  21.720         65.00	     8.832
  21.740         82.50	     9.950
  21.760         90.00	    10.392
  21.780         99.17	    10.909
  21.800        109.17	    11.446
  21.820        133.33	    12.649
  21.840        168.33	    14.213
  21.860        165.00	    14.071
  21.880        168.33	    14.213
  21.900        169.17	    14.248
  21.920        139.17	    12.923
  21.940        114.17	    11.705
  21.960         98.33	    10.863
  21.980         88.33	    10.296
  22.000         80.00	     9.798
  22.020         66.67	     8.944
  22.040         53.33	     8.000
  22.060         69.17	     9.110
  22.080         55.83	     8.185
  22.100         72.50	     9.327
  22.120         60.00	     8.485
  22.140         59.17	     8.426
  22.160         70.83	     9.220
  22.180         61.67	     8.602
  22.200         59.17	     8.426
  22.220         53.33	     8.000
  22.240         68.33	     9.055
  22.260         63.33	     8.718
  22.280         70.00	     9.165
  22.300         73.33	     9.381
  22.320         53.33	     8.000
  22.340         59.17	     8.426
  22.360         58.33	     8.367
  22.380         50.83	     7.810
  22.400         65.83	     8.888
  22.420         53.33	     8.000
  22.440         71.67	     9.274
  22.460         75.00	     9.487
  22.480         65.00	     8.832
  22.500         60.00	     8.485
  22.520         69.17	     9.110
  22.540         50.83	     7.810
  22.560         60.00	     8.485
  22.580         85.83	    10.149
  22.600         69.17	     9.110
  22.620         87.50	    10.247
  22.640         83.33	    10.000
  22.660         91.67	    10.488
  22.680         85.00	    10.100
  22.700         90.00	    10.392
  22.720         87.50	    10.247
  22.740         95.00	    10.677
  22.760         82.50	     9.950
  22.780         96.67	    10.770
  22.800         85.00	    10.100
  22.820         93.33	    10.583
  22.840         93.33	    10.583
  22.860         91.67	    10.488
  22.880        109.17	    11.446
  22.900         93.33	    10.583
  22.920         80.00	     9.798
  22.940         71.67	     9.274
  22.960         83.33	    10.000
  22.980         70.00	     9.165
  23.000         70.00	     9.165
  23.020         75.00	     9.487
  23.040         65.00	     8.832
  23.060         70.83	     9.220
  23.080         66.67	     8.944
  23.100         60.83	     8.544
  23.120         75.00	     9.487
  23.140         66.67	     8.944
  23.160         70.00	     9.165
  23.180         73.33	     9.381
  23.200         71.67	     9.274
  23.220         69.17	     9.110
  23.240         76.67	     9.592
  23.260         72.50	     9.327
  23.280         93.33	    10.583
  23.300        115.00	    11.747
  23.320        128.33	    12.410
  23.340        195.00	    15.297
  23.360        171.67	    14.353
  23.380        175.00	    14.491
  23.400        182.50	    14.799
  23.420        141.67	    13.038
  23.440        150.00	    13.416
  23.460        131.67	    12.570
  23.480        121.67	    12.083
  23.500         87.50	    10.247
  23.520        101.67	    11.045
  23.540        104.17	    11.180
  23.560         94.17	    10.630
  23.580         81.67	     9.899
  23.600         95.83	    10.724
  23.620         96.67	    10.770
  23.640        110.00	    11.489
  23.660        124.17	    12.207
  23.680        143.33	    13.115
  23.700        135.00	    12.728
  23.720        111.67	    11.576
  23.740        100.00	    10.954
  23.760        110.00	    11.489
  23.780        100.83	    11.000
  23.800         81.67	     9.899
  23.820         96.67	    10.770
  23.840        110.83	    11.533
  23.860         92.50	    10.536
  23.880         91.67	    10.488
  23.900         77.50	     9.644
  23.920         97.50	    10.817
  23.940         89.17	    10.344
  23.960         96.67	    10.770
  23.980        119.17	    11.958
  24.000        107.50	    11.358
  24.020        116.67	    11.832
  24.040        135.00	    12.728
  24.060        143.33	    13.115
  24.080        138.33	    12.884
  24.100        151.67	    13.491
  24.120        126.67	    12.329
  24.140        137.50	    12.845
  24.160        106.67	    11.314
  24.180        130.00	    12.490
  24.200        115.00	    11.747
  24.220        132.50	    12.610
  24.240        120.83	    12.042
  24.260        117.50	    11.874
  24.280        137.50	    12.845
  24.300        161.67	    13.928
  24.320        233.33	    16.733
  24.340        410.83	    22.204
  24.360        471.67	    23.791
  24.380        571.67	    26.192
  24.400        699.17	    28.965
  24.420        674.17	    28.443
  24.440        739.17	    29.783
  24.460        643.33	    27.785
  24.480        550.00	    25.690
  24.500        455.00	    23.367
  24.520        416.67	    22.361
  24.540        314.17	    19.416
  24.560        288.33	    18.601
  24.580        260.83	    17.692
  24.600        286.67	    18.547
  24.620        321.67	    19.647
  24.640        371.67	    21.119
  24.660        334.17	    20.025
  24.680        330.83	    19.925
  24.700        331.67	    19.950
  24.720        302.50	    19.053
  24.740        246.67	    17.205
  24.760        233.33	    16.733
  24.780        200.83	    15.524
  24.800        195.83	    15.330
  24.820        181.67	    14.765
  24.840        205.83	    15.716
  24.860        201.67	    15.556
  24.880        220.83	    16.279
  24.900        275.83	    18.193
  24.920        346.67	    20.396
  24.940        385.83	    21.517
  24.960        421.67	    22.494
  24.980        380.00	    21.354
  25.000        363.33	    20.881
  25.020        330.83	    19.925
  25.040        259.17	    17.635
  25.060        200.00	    15.492
  25.080        165.83	    14.107
  25.100        129.17	    12.450
  25.120        131.67	    12.570
  25.140        110.83	    11.533
  25.160        119.17	    11.958
  25.180        119.17	    11.958
  25.200        149.17	    13.379
  25.220        168.33	    14.213
  25.240        138.33	    12.884
  25.260        142.50	    13.077
  25.280        143.33	    13.115
  25.300        130.00	    12.490
  25.320        130.83	    12.530
  25.340        139.17	    12.923
  25.360        147.50	    13.304
  25.380        115.00	    11.747
  25.400        115.83	    11.790
  25.420        120.00	    12.000
  25.440        115.00	    11.747
  25.460        127.50	    12.369
  25.480        104.17	    11.180
  25.500        110.83	    11.533
  25.520         94.17	    10.630
  25.540        107.50	    11.358
  25.560         95.83	    10.724
  25.580         90.00	    10.392
  25.600         87.50	    10.247
  25.620         84.17	    10.050
  25.640         80.00	     9.798
  25.660         73.33	     9.381
  25.680         66.67	     8.944
  25.700         60.83	     8.544
  25.720         91.67	    10.488
  25.740         79.17	     9.747
  25.760         73.33	     9.381
  25.780         62.50	     8.660
  25.800         62.50	     8.660
  25.820         70.83	     9.220
  25.840         71.67	     9.274
  25.860         80.83	     9.849
  25.880         75.83	     9.539
  25.900         82.50	     9.950
  25.920         79.17	     9.747
  25.940         80.83	     9.849
  25.960         86.67	    10.198
  25.980         73.33	     9.381
  26.000        102.50	    11.091
  26.020         77.50	     9.644
  26.040         85.00	    10.100
  26.060         79.17	     9.747
  26.080         98.33	    10.863
  26.100        109.17	    11.446
  26.120        105.00	    11.225
  26.140        110.83	    11.533
  26.160        120.00	    12.000
  26.180        125.83	    12.288
  26.200        150.00	    13.416
  26.220        135.83	    12.767
  26.240        161.67	    13.928
  26.260        153.33	    13.565
  26.280        169.17	    14.248
  26.300        210.00	    15.875
  26.320        195.83	    15.330
  26.340        242.50	    17.059
  26.360        281.67	    18.385
  26.380        389.17	    21.610
  26.400        603.33	    26.907
  26.420       1110.00	    36.497
  26.440       1751.67	    45.848
  26.460       2201.67	    51.400
  26.480       1584.17	    43.600
  26.500       1214.17	    38.171
  26.520       1178.33	    37.603
  26.540        976.67	    34.234
  26.560        560.83	    25.942
  26.580        335.00	    20.050
  26.600        345.00	    20.347
  26.620        365.83	    20.952
  26.640        548.33	    25.652
  26.660        574.17	    26.249
  26.680        686.67	    28.705
  26.700        714.17	    29.275
  26.720        759.17	    30.183
  26.740        635.00	    27.604
  26.760        551.67	    25.729
  26.780        394.17	    21.749
  26.800        326.67	    19.799
  26.820        243.33	    17.088
  26.840        242.50	    17.059
  26.860        235.00	    16.793
  26.880        285.83	    18.520
  26.900        230.00	    16.613
  26.920        180.83	    14.731
  26.940        186.67	    14.967
  26.960        149.17	    13.379
  26.980        128.33	    12.410
  27.000        108.33	    11.402
  27.020         95.83	    10.724
  27.040        100.00	    10.954
  27.060         96.67	    10.770
  27.080        100.83	    11.000
  27.100         97.50	    10.817
  27.120         98.33	    10.863
  27.140        106.67	    11.314
  27.160         85.00	    10.100
  27.180        115.83	    11.790
  27.200         95.00	    10.677
  27.220        104.17	    11.180
  27.240        101.67	    11.045
  27.260        107.50	    11.358
  27.280        130.83	    12.530
  27.300        128.33	    12.410
  27.320        136.67	    12.806
  27.340        162.50	    13.964
  27.360        164.17	    14.036
  27.380        145.83	    13.229
  27.400        148.33	    13.342
  27.420        120.83	    12.042
  27.440        123.33	    12.166
  27.460        113.33	    11.662
  27.480        124.17	    12.207
  27.500        162.50	    13.964
  27.520        237.50	    16.882
  27.540        270.83	    18.028
  27.560        333.33	    20.000
  27.580        300.83	    19.000
  27.600        296.67	    18.868
  27.620        310.83	    19.313
  27.640        296.67	    18.868
  27.660        362.50	    20.857
  27.680        535.83	    25.357
  27.700        855.83	    32.047
  27.720       1058.33	    35.637
  27.740        859.17	    32.109
  27.760        735.00	    29.698
  27.780        678.33	    28.531
  27.800        592.50	    26.665
  27.820        389.17	    21.610
  27.840        255.83	    17.521
  27.860        186.67	    14.967
  27.880        160.00	    13.856
  27.900        127.50	    12.369
  27.920        125.83	    12.288
  27.940        162.50	    13.964
  27.960        151.67	    13.491
  27.980        114.17	    11.705
  28.000        114.17	    11.705
  28.020        110.00	    11.489
  28.040         86.67	    10.198
  28.060        103.33	    11.136
  28.080        102.50	    11.091
  28.100        117.50	    11.874
  28.120        111.67	    11.576
  28.140        117.50	    11.874
  28.160        117.50	    11.874
  28.180         89.17	    10.344
  28.200         85.00	    10.100
  28.220         75.83	     9.539
  28.240         84.17	    10.050
  28.260         80.83	     9.849
  28.280         88.33	    10.296
  28.300         77.50	     9.644
  28.320        114.17	    11.705
  28.340        149.17	    13.379
  28.360        233.33	    16.733
  28.380        250.83	    17.349
  28.400        267.50	    17.916
  28.420        259.17	    17.635
  28.440        294.17	    18.788
  28.460        300.83	    19.000
  28.480        229.17	    16.583
  28.500        220.83	    16.279
  28.520        145.83	    13.229
  28.540        123.33	    12.166
  28.560        105.83	    11.269
  28.580         89.17	    10.344
  28.600         87.50	    10.247
  28.620         70.00	     9.165
  28.640         68.33	     9.055
  28.660         68.33	     9.055
  28.680         70.83	     9.220
  28.700         59.17	     8.426
  28.720         64.17	     8.775
  28.740         59.17	     8.426
  28.760         54.17	     8.062
  28.780         54.17	     8.062
  28.800         47.50	     7.550
  28.820         60.83	     8.544
  28.840         51.67	     7.874
  28.860         53.33	     8.000
  28.880         45.83	     7.416
  28.900         50.00	     7.746
  28.920         52.50	     7.937
  28.940         57.50	     8.307
  28.960         49.17	     7.681
  28.980         45.00	     7.348
  29.000         70.00	     9.165
  29.020         61.67	     8.602
  29.040         58.33	     8.367
  29.060         56.67	     8.246
  29.080         60.00	     8.485
  29.100         55.83	     8.185
  29.120         49.17	     7.681
  29.140         55.83	     8.185
  29.160         57.50	     8.307
  29.180         67.50	     9.000
  29.200         70.83	     9.220
  29.220         80.00	     9.798
  29.240         81.67	     9.899
  29.260         85.00	    10.100
  29.280         86.67	    10.198
  29.300         72.50	     9.327
  29.320         87.50	    10.247
  29.340         83.33	    10.000
  29.360         75.00	     9.487
  29.380         76.67	     9.592
  29.400         78.33	     9.695
  29.420         83.33	    10.000
  29.440         79.17	     9.747
  29.460         71.67	     9.274
  29.480         75.00	     9.487
  29.500         70.83	     9.220
  29.520         82.50	     9.950
  29.540         69.17	     9.110
  29.560         78.33	     9.695
  29.580         93.33	    10.583
  29.600        115.00	    11.747
  29.620        135.83	    12.767
  29.640        127.50	    12.369
  29.660        162.50	    13.964
  29.680        155.83	    13.675
  29.700        130.00	    12.490
  29.720        141.67	    13.038
  29.740        125.00	    12.247
  29.760        104.17	    11.180
  29.780         98.33	    10.863
  29.800         99.17	    10.909
  29.820         87.50	    10.247
  29.840         79.17	     9.747
  29.860         85.00	    10.100
  29.880         72.50	     9.327
  29.900         81.67	     9.899
  29.920         85.00	    10.100
  29.940         80.00	     9.798
  29.960        105.83	    11.269
  29.980         90.00	    10.392
  30.000         92.50	    10.536
  30.020        138.33	    12.884
  30.040        144.17	    13.153
  30.060        150.83	    13.454
  30.080        140.83	    13.000
  30.100        122.50	    12.124
  30.120        110.00	    11.489
  30.140        105.83	    11.269
  30.160        132.50	    12.610
  30.180        116.67	    11.832
  30.200         91.67	    10.488
  30.220         81.67	     9.899
  30.240        110.00	    11.489
  30.260        110.83	    11.533
  30.280        125.00	    12.247
  30.300        154.17	    13.601
  30.320        171.67	    14.353
  30.340        131.67	    12.570
  30.360        120.83	    12.042
  30.380        103.33	    11.136
  30.400        117.50	    11.874
  30.420         94.17	    10.630
  30.440         78.33	     9.695
  30.460         69.17	     9.110
  30.480         60.83	     8.544
  30.500         64.17	     8.775
  30.520         80.83	     9.849
  30.540         82.50	     9.950
  30.560         81.67	     9.899
  30.580         70.00	     9.165
  30.600        100.00	    10.954
  30.620        115.83	    11.790
  30.640        125.83	    12.288
  30.660        114.17	    11.705
  30.680        121.67	    12.083
  30.700        143.33	    13.115
  30.720        142.50	    13.077
  30.740        105.83	    11.269
  30.760        117.50	    11.874
  30.780        136.67	    12.806
  30.800         97.50	    10.817
  30.820         92.50	    10.536
  30.840         90.83	    10.440
  30.860         80.83	     9.849
  30.880         88.33	    10.296
  30.900         65.83	     8.888
  30.920         80.00	     9.798
  30.940         95.83	    10.724
  30.960         90.00	    10.392
  30.980        139.17	    12.923
  31.000        126.67	    12.329
  31.020        139.17	    12.923
  31.040        151.67	    13.491
  31.060        126.67	    12.329
  31.080        143.33	    13.115
  31.100        150.83	    13.454
  31.120        117.50	    11.874
  31.140        110.00	    11.489
  31.160        106.67	    11.314
  31.180         86.67	    10.198
  31.200         72.50	     9.327
  31.220         75.83	     9.539
  31.240         95.83	    10.724
  31.260         80.00	     9.798
  31.280         75.00	     9.487
  31.300         80.00	     9.798
  31.320         86.67	    10.198
  31.340        102.50	    11.091
  31.360        109.17	    11.446
  31.380        120.83	    12.042
  31.400        108.33	    11.402
  31.420        104.17	    11.180
  31.440        103.33	    11.136
  31.460         88.33	    10.296
  31.480         78.33	     9.695
  31.500         74.17	     9.434
  31.520         75.83	     9.539
  31.540         60.83	     8.544
  31.560         60.83	     8.544
  31.580         65.83	     8.888
  31.600         59.17	     8.426
  31.620         52.50	     7.937
  31.640         70.83	     9.220
  31.660         53.33	     8.000
  31.680         62.50	     8.660
  31.700         66.67	     8.944
  31.720         84.17	    10.050
  31.740        130.00	    12.490
  31.760        146.67	    13.266
  31.780        151.67	    13.491
  31.800        149.17	    13.379
  31.820        148.33	    13.342
  31.840        152.50	    13.528
  31.860        122.50	    12.124
  31.880        144.17	    13.153
  31.900        111.67	    11.576
  31.920         94.17	    10.630
  31.940         75.00	     9.487
  31.960         85.00	    10.100
  31.980         73.33	     9.381
  32.000         76.67	     9.592
  32.020         70.00	     9.165
  32.040         87.50	    10.247
  32.060        109.17	    11.446
  32.080         93.33	    10.583
  32.100         93.33	    10.583
  32.120         59.17	     8.426
  32.140         71.67	     9.274
  32.160         83.33	    10.000
  32.180         65.83	     8.888
  32.200         54.17	     8.062
  32.220         56.67	     8.246
  32.240         41.67	     7.071
  32.260         50.00	     7.746
  32.280         44.17	     7.280
  32.300         57.50	     8.307
  32.320         36.67	     6.633
  32.340         62.50	     8.660
  32.360         48.33	     7.616
  32.380         47.50	     7.550
  32.400         50.83	     7.810
  32.420         41.67	     7.071
  32.440         43.33	     7.211
  32.460         40.00	     6.928
  32.480         44.17	     7.280
  32.500         43.33	     7.211
  32.520         40.83	     7.000
  32.540         53.33	     8.000
  32.560         47.50	     7.550
  32.580         46.67	     7.483
  32.600         44.17	     7.280
  32.620         51.67	     7.874
  32.640         56.67	     8.246
  32.660         42.50	     7.141
  32.680         55.83	     8.185
  32.700         45.83	     7.416
  32.720         59.17	     8.426
  32.740         45.00	     7.348
  32.760         56.67	     8.246
  32.780         61.67	     8.602
  32.800         62.50	     8.660
  32.820         83.33	    10.000
  32.840        100.00	    10.954
  32.860        126.67	    12.329
  32.880         97.50	    10.817
  32.900        100.83	    11.000
  32.920         73.33	     9.381
  32.940         80.00	     9.798
  32.960         76.67	     9.592
  32.980         57.50	     8.307
  33.000         55.83	     8.185
  33.020         43.33	     7.211
  33.040         40.00	     6.928
  33.060         40.83	     7.000
  33.080         45.83	     7.416
  33.100         45.00	     7.348
  33.120         56.67	     8.246
  33.140         47.50	     7.550
  33.160         52.50	     7.937
  33.180         56.67	     8.246
  33.200         58.33	     8.367
  33.220         53.33	     8.000
  33.240         41.67	     7.071
  33.260         61.67	     8.602
  33.280         49.17	     7.681
  33.300         55.83	     8.185
  33.320         63.33	     8.718
  33.340         62.50	     8.660
  33.360         50.00	     7.746
  33.380         65.00	     8.832
  33.400         45.83	     7.416
  33.420         55.83	     8.185
  33.440         56.67	     8.246
  33.460         55.00	     8.124
  33.480         45.00	     7.348
  33.500         37.50	     6.708
  33.520         49.17	     7.681
  33.540         51.67	     7.874
  33.560         42.50	     7.141
  33.580         51.67	     7.874
  33.600         55.00	     8.124
  33.620         41.67	     7.071
  33.640         45.83	     7.416
  33.660         55.83	     8.185
  33.680         55.00	     8.124
  33.700         54.17	     8.062
  33.720         70.83	     9.220
  33.740         71.67	     9.274
  33.760         73.33	     9.381
  33.780         77.50	     9.644
  33.800         65.00	     8.832
  33.820         69.17	     9.110
  33.840         65.00	     8.832
  33.860         69.17	     9.110
  33.880         70.00	     9.165
  33.900         80.00	     9.798
  33.920         90.83	    10.440
  33.940         87.50	    10.247
  33.960         67.50	     9.000
  33.980         68.33	     9.055
  34.000         72.50	     9.327
  34.020         65.00	     8.832
  34.040         68.33	     9.055
  34.060         60.00	     8.485
  34.080         61.67	     8.602
  34.100         46.67	     7.483
  34.120         58.33	     8.367
  34.140         61.67	     8.602
  34.160         75.00	     9.487
  34.180         91.67	    10.488
  34.200         66.67	     8.944
  34.220         83.33	    10.000
  34.240        105.83	    11.269
  34.260         97.50	    10.817
  34.280         92.50	    10.536
  34.300         95.83	    10.724
  34.320         99.17	    10.909
  34.340        105.00	    11.225
  34.360        125.00	    12.247
  34.380        144.17	    13.153
  34.400        135.00	    12.728
  34.420        114.17	    11.705
  34.440        101.67	    11.045
  34.460        116.67	    11.832
  34.480        104.17	    11.180
  34.500         90.83	    10.440
  34.520         96.67	    10.770
  34.540         88.33	    10.296
  34.560         68.33	     9.055
  34.580         92.50	    10.536
  34.600         85.00	    10.100
  34.620         61.67	     8.602
  34.640         77.50	     9.644
  34.660         95.00	    10.677
  34.680        112.50	    11.619
  34.700        127.50	    12.369
  34.720        106.67	    11.314
  34.740        127.50	    12.369
  34.760        118.33	    11.916
  34.780        154.17	    13.601
  34.800        164.17	    14.036
  34.820        170.00	    14.283
  34.840        190.00	    15.100
  34.860        184.17	    14.866
  34.880        145.00	    13.191
  34.900        164.17	    14.036
  34.920        153.33	    13.565
  34.940        141.67	    13.038
  34.960        133.33	    12.649
  34.980        150.83	    13.454
  35.000        143.33	    13.115
  35.020        144.17	    13.153
  35.040        118.33	    11.916
  35.060        121.67	    12.083
  35.080        115.83	    11.790
  35.100        119.17	    11.958
  35.120        127.50	    12.369
  35.140        142.50	    13.077
  35.160        131.67	    12.570
  35.180        115.83	    11.790
  35.200        128.33	    12.410
  35.220        132.50	    12.610
  35.240        174.17	    14.457
  35.260        200.00	    15.492
  35.280        228.33	    16.553
  35.300        234.17	    16.763
  35.320        244.17	    17.117
  35.340        261.67	    17.720
  35.360        270.00	    18.000
  35.380        314.17	    19.416
  35.400        284.17	    18.466
  35.420        257.50	    17.578
  35.440        252.50	    17.407
  35.460        233.33	    16.733
  35.480        204.17	    15.652
  35.500        168.33	    14.213
  35.520        153.33	    13.565
  35.540        129.17	    12.450
  35.560        117.50	    11.874
  35.580        100.83	    11.000
  35.600        115.00	    11.747
  35.620         94.17	    10.630
  35.640         80.83	     9.849
  35.660         85.00	    10.100
  35.680         83.33	    10.000
  35.700         85.00	    10.100
  35.720         75.00	     9.487
  35.740         85.83	    10.149
  35.760         85.00	    10.100
  35.780         85.83	    10.149
  35.800         93.33	    10.583
  35.820         85.83	    10.149
  35.840        102.50	    11.091
  35.860        105.83	    11.269
  35.880        125.83	    12.288
  35.900        100.00	    10.954
  35.920        106.67	    11.314
  35.940        120.83	    12.042
  35.960        103.33	    11.136
  35.980         89.17	    10.344
  36.000         80.00	     9.798
  36.020         75.83	     9.539
  36.040         73.33	     9.381
  36.060         67.50	     9.000
  36.080         63.33	     8.718
  36.100         64.17	     8.775
  36.120         52.50	     7.937
  36.140         65.83	     8.888
  36.160         67.50	     9.000
  36.180         72.50	     9.327
  36.200         86.67	    10.198
  36.220         98.33	    10.863
  36.240        113.33	    11.662
  36.260        107.50	    11.358
  36.280        130.00	    12.490
  36.300        161.67	    13.928
  36.320        207.50	    15.780
  36.340        197.50	    15.395
  36.360        224.17	    16.401
  36.380        182.50	    14.799
  36.400        166.67	    14.142
  36.420        163.33	    14.000
  36.440        150.00	    13.416
  36.460        161.67	    13.928
  36.480        141.67	    13.038
  36.500        108.33	    11.402
  36.520        109.17	    11.446
  36.540        107.50	    11.358
  36.560        125.83	    12.288
  36.580        101.67	    11.045
  36.600        101.67	    11.045
  36.620        100.00	    10.954
  36.640         84.17	    10.050
  36.660         82.50	     9.950
  36.680         74.17	     9.434
  36.700         60.00	     8.485
  36.720         58.33	     8.367
  36.740         64.17	     8.775
  36.760         59.17	     8.426
  36.780         61.67	     8.602
  36.800         56.67	     8.246
  36.820         66.67	     8.944
  36.840         67.50	     9.000
  36.860         64.17	     8.775
  36.880         65.00	     8.832
  36.900         73.33	     9.381
  36.920         74.17	     9.434
  36.940         62.50	     8.660
  36.960         94.17	    10.630
  36.980         91.67	    10.488
  37.000         79.17	     9.747
  37.020         84.17	    10.050
  37.040         78.33	     9.695
  37.060         76.67	     9.592
  37.080         78.33	     9.695
  37.100         93.33	    10.583
  37.120         91.67	    10.488
  37.140        102.50	    11.091
  37.160        115.00	    11.747
  37.180        108.33	    11.402
  37.200        103.33	    11.136
  37.220        107.50	    11.358
  37.240        104.17	    11.180
  37.260         90.83	    10.440
  37.280        101.67	    11.045
  37.300        100.00	    10.954
  37.320         91.67	    10.488
  37.340         90.83	    10.440
  37.360         96.67	    10.770
  37.380         91.67	    10.488
  37.400         90.83	    10.440
  37.420         93.33	    10.583
  37.440        114.17	    11.705
  37.460         96.67	    10.770
  37.480         96.67	    10.770
  37.500         97.50	    10.817
  37.520         86.67	    10.198
  37.540         92.50	    10.536
  37.560         85.00	    10.100
  37.580         84.17	    10.050
  37.600         75.00	     9.487
  37.620         81.67	     9.899
  37.640         75.83	     9.539
  37.660         62.50	     8.660
  37.680         48.33	     7.616
  37.700         55.00	     8.124
  37.720         50.83	     7.810
  37.740         50.00	     7.746
  37.760         46.67	     7.483
  37.780         38.33	     6.782
  37.800         41.67	     7.071
  37.820         40.83	     7.000
  37.840         30.83	     6.083
  37.860         42.50	     7.141
  37.880         46.67	     7.483
  37.900         45.83	     7.416
  37.920         37.50	     6.708
  37.940         35.00	     6.481
  37.960         45.83	     7.416
  37.980         52.50	     7.937
  38.000         49.17	     7.681
  38.020         46.67	     7.483
  38.040         45.00	     7.348
  38.060         45.83	     7.416
  38.080         40.83	     7.000
  38.100         53.33	     8.000
  38.120         43.33	     7.211
  38.140         39.17	     6.856
  38.160         43.33	     7.211
  38.180         54.17	     8.062
  38.200         45.00	     7.348
  38.220         41.67	     7.071
  38.240         47.50	     7.550
  38.260         45.00	     7.348
  38.280         58.33	     8.367
  38.300         49.17	     7.681
  38.320         45.83	     7.416
  38.340         53.33	     8.000
  38.360         58.33	     8.367
  38.380         45.00	     7.348
  38.400         45.00	     7.348
  38.420         51.67	     7.874
  38.440         60.83	     8.544
  38.460         55.83	     8.185
  38.480         40.83	     7.000
  38.500         47.50	     7.550
  38.520         41.67	     7.071
  38.540         45.00	     7.348
  38.560         53.33	     8.000
  38.580         41.67	     7.071
  38.600         55.00	     8.124
  38.620         45.00	     7.348
  38.640         59.17	     8.426
  38.660         63.33	     8.718
  38.680         75.83	     9.539
  38.700         57.50	     8.307
  38.720         63.33	     8.718
  38.740         47.50	     7.550
  38.760         47.50	     7.550
  38.780         54.17	     8.062
  38.800         46.67	     7.483
  38.820         52.50	     7.937
  38.840         50.83	     7.810
  38.860         75.83	     9.539
  38.880        101.67	    11.045
  38.900         93.33	    10.583
  38.920         63.33	     8.718
  38.940         66.67	     8.944
  38.960         61.67	     8.602
  38.980         88.33	    10.296
  39.000         89.17	    10.344
  39.020         77.50	     9.644
  39.040         70.00	     9.165
  39.060         69.17	     9.110
  39.080         61.67	     8.602
  39.100         70.83	     9.220
  39.120         58.33	     8.367
  39.140         60.00	     8.485
  39.160         58.33	     8.367
  39.180         59.17	     8.426
  39.200         75.83	     9.539
  39.220        105.83	    11.269
  39.240        137.50	    12.845
  39.260        193.33	    15.232
  39.280        240.00	    16.971
  39.300        246.67	    17.205
  39.320        230.83	    16.643
  39.340        183.33	    14.832
  39.360        164.17	    14.036
  39.380        197.50	    15.395
  39.400        169.17	    14.248
  39.420        164.17	    14.036
  39.440        137.50	    12.845
  39.460        143.33	    13.115
  39.480        117.50	    11.874
  39.500         95.83	    10.724
  39.520         78.33	     9.695
  39.540         88.33	    10.296
  39.560         84.17	    10.050
  39.580         86.67	    10.198
  39.600         85.83	    10.149
  39.620         69.17	     9.110
  39.640         62.50	     8.660
  39.660         65.00	     8.832
  39.680         72.50	     9.327
  39.700         65.00	     8.832
  39.720         57.50	     8.307
  39.740         53.33	     8.000
  39.760         52.50	     7.937
  39.780         66.67	     8.944
  39.800         65.00	     8.832
  39.820         40.83	     7.000
  39.840         48.33	     7.616
  39.860         64.17	     8.775
  39.880         85.83	    10.149
  39.900         72.50	     9.327
  39.920         58.33	     8.367
  39.940         62.50	     8.660
  39.960         61.67	     8.602
  39.980         65.00	     8.832
  40.000         65.83	     8.888
  40.020         54.17	     8.062
  40.040         76.67	     9.592
  40.060         79.17	     9.747
  40.080         94.17	    10.630
  40.100        111.67	    11.576
  40.120         92.50	    10.536
  40.140         75.00	     9.487
  40.160         82.50	     9.950
  40.180         89.17	    10.344
  40.200         80.83	     9.849
  40.220         81.67	     9.899
  40.240         80.83	     9.849
  40.260         90.00	    10.392
  40.280         56.67	     8.246
  40.300         55.00	     8.124
  40.320         58.33	     8.367
  40.340         54.17	     8.062
  40.360         44.17	     7.280
  40.380         48.33	     7.616
  40.400         37.50	     6.708
  40.420         54.17	     8.062
  40.440         55.00	     8.124
  40.460         44.17	     7.280
  40.480         64.17	     8.775
  40.500         70.83	     9.220
  40.520         62.50	     8.660
  40.540         48.33	     7.616
  40.560         48.33	     7.616
  40.580         45.83	     7.416
  40.600         47.50	     7.550
  40.620         54.17	     8.062
  40.640         56.67	     8.246
  40.660         56.67	     8.246
  40.680         55.83	     8.185
  40.700         70.83	     9.220
  40.720         66.67	     8.944
  40.740         63.33	     8.718
  40.760         46.67	     7.483
  40.780         54.17	     8.062
  40.800         53.33	     8.000
  40.820         79.17	     9.747
  40.840         67.50	     9.000
  40.860         59.17	     8.426
  40.880         61.67	     8.602
  40.900         53.33	     8.000
  40.920         59.17	     8.426
  40.940         78.33	     9.695
  40.960         80.00	     9.798
  40.980         83.33	    10.000
  41.000         84.17	    10.050
  41.020         99.17	    10.909
  41.040         84.17	    10.050
  41.060         95.00	    10.677
  41.080        100.83	    11.000
  41.100        105.83	    11.269
  41.120         93.33	    10.583
  41.140         72.50	     9.327
  41.160         64.17	     8.775
  41.180         69.17	     9.110
  41.200         71.67	     9.274
  41.220         60.00	     8.485
  41.240         57.50	     8.307
  41.260         54.17	     8.062
  41.280         44.17	     7.280
  41.300         62.50	     8.660
  41.320         54.17	     8.062
  41.340         59.17	     8.426
  41.360         74.17	     9.434
  41.380         69.17	     9.110
  41.400        105.00	    11.225
  41.420        110.00	    11.489
  41.440        144.17	    13.153
  41.460        246.67	    17.205
  41.480        362.50	    20.857
  41.500        218.33	    16.186
  41.520        147.50	    13.304
  41.540        157.50	    13.748
  41.560        169.17	    14.248
  41.580        213.33	    16.000
  41.600        197.50	    15.395
  41.620        120.00	    12.000
  41.640        117.50	    11.874
  41.660        106.67	    11.314
  41.680         99.17	    10.909
  41.700         95.83	    10.724
  41.720        121.67	    12.083
  41.740        119.17	    11.958
  41.760        116.67	    11.832
  41.780        125.83	    12.288
  41.800         99.17	    10.909
  41.820        120.83	    12.042
  41.840         88.33	    10.296
  41.860         79.17	     9.747
  41.880         90.83	    10.440
  41.900         75.00	     9.487
  41.920         75.00	     9.487
  41.940         60.00	     8.485
  41.960         60.00	     8.485
  41.980         65.83	     8.888
  42.000         55.83	     8.185
  42.020         70.00	     9.165
  42.040         76.67	     9.592
  42.060         76.67	     9.592
  42.080         77.50	     9.644
  42.100         90.00	    10.392
  42.120         88.33	    10.296
  42.140         90.00	    10.392
  42.160         98.33	    10.863
  42.180        105.83	    11.269
  42.200        127.50	    12.369
  42.220        169.17	    14.248
  42.240        248.33	    17.263
  42.260        292.50	    18.735
  42.280        253.33	    17.436
  42.300        211.67	    15.937
  42.320        163.33	    14.000
  42.340        151.67	    13.491
  42.360        155.83	    13.675
  42.380        173.33	    14.422
  42.400        142.50	    13.077
  42.420        125.00	    12.247
  42.440         79.17	     9.747
  42.460         67.50	     9.000
  42.480         65.83	     8.888
  42.500         60.83	     8.544
  42.520         57.50	     8.307
  42.540         41.67	     7.071
  42.560         57.50	     8.307
  42.580         67.50	     9.000
  42.600         62.50	     8.660
  42.620         59.17	     8.426
  42.640         47.50	     7.550
  42.660         52.50	     7.937
  42.680         61.67	     8.602
  42.700         56.67	     8.246
  42.720         55.00	     8.124
  42.740         66.67	     8.944
  42.760         63.33	     8.718
  42.780         49.17	     7.681
  42.800         58.33	     8.367
  42.820         50.00	     7.746
  42.840         46.67	     7.483
  42.860         55.00	     8.124
  42.880         49.17	     7.681
  42.900         70.83	     9.220
  42.920         45.83	     7.416
  42.940         42.50	     7.141
  42.960         38.33	     6.782
  42.980         53.33	     8.000
  43.000         55.83	     8.185
  43.020         49.17	     7.681
  43.040         55.00	     8.124
  43.060         62.50	     8.660
  43.080         58.33	     8.367
  43.100         49.17	     7.681
  43.120         48.33	     7.616
  43.140         40.00	     6.928
  43.160         45.00	     7.348
  43.180         49.17	     7.681
  43.200         45.00	     7.348
  43.220         42.50	     7.141
  43.240         54.17	     8.062
  43.260         46.67	     7.483
  43.280         40.00	     6.928
  43.300         51.67	     7.874
  43.320         45.83	     7.416
  43.340         56.67	     8.246
  43.360         53.33	     8.000
  43.380         48.33	     7.616
  43.400         55.00	     8.124
  43.420         60.00	     8.485
  43.440         50.00	     7.746
  43.460         71.67	     9.274
  43.480         76.67	     9.592
  43.500         60.00	     8.485
  43.520         68.33	     9.055
  43.540         56.67	     8.246
  43.560         59.17	     8.426
  43.580         65.83	     8.888
  43.600         70.83	     9.220
  43.620         59.17	     8.426
  43.640         58.33	     8.367
  43.660         44.17	     7.280
  43.680         54.17	     8.062
  43.700         54.17	     8.062
  43.720         45.00	     7.348
  43.740         57.50	     8.307
  43.760         39.17	     6.856
  43.780         41.67	     7.071
  43.800         39.17	     6.856
  43.820         44.17	     7.280
  43.840         37.50	     6.708
  43.860         45.83	     7.416
  43.880         45.83	     7.416
  43.900         48.33	     7.616
  43.920         60.00	     8.485
  43.940         55.00	     8.124
  43.960         59.17	     8.426
  43.980         83.33	    10.000
  44.000         73.33	     9.381
  44.020         56.67	     8.246
  44.040         62.50	     8.660
  44.060         67.50	     9.000
  44.080         52.50	     7.937
  44.100         68.33	     9.055
  44.120         63.33	     8.718
  44.140         66.67	     8.944
  44.160         70.83	     9.220
  44.180         59.17	     8.426
  44.200         65.83	     8.888
  44.220         68.33	     9.055
  44.240         72.50	     9.327
  44.260         85.00	    10.100
  44.280        100.83	    11.000
  44.300        100.83	    11.000
  44.320         99.17	    10.909
  44.340        105.00	    11.225
  44.360         75.00	     9.487
  44.380         83.33	    10.000
  44.400         87.50	    10.247
  44.420         90.83	    10.440
  44.440         78.33	     9.695
  44.460         85.00	    10.100
  44.480         78.33	     9.695
  44.500         64.17	     8.775
  44.520         64.17	     8.775
  44.540         74.17	     9.434
  44.560         70.00	     9.165
  44.580         60.00	     8.485
  44.600         70.83	     9.220
  44.620         50.00	     7.746
  44.640         68.33	     9.055
  44.660         80.83	     9.849
  44.680         72.50	     9.327
  44.700         85.83	    10.149
  44.720         72.50	     9.327
  44.740         96.67	    10.770
  44.760         90.00	    10.392
  44.780        106.67	    11.314
  44.800         83.33	    10.000
  44.820         83.33	    10.000
  44.840         97.50	    10.817
  44.860         97.50	    10.817
  44.880        103.33	    11.136
  44.900         99.17	    10.909
  44.920         80.83	     9.849
  44.940         92.50	    10.536
  44.960         78.33	     9.695
  44.980         94.17	    10.630
  45.000         75.83	     9.539
  45.020         89.17	    10.344
  45.040         79.17	     9.747
  45.060         69.17	     9.110
  45.080         80.00	     9.798
  45.100         77.50	     9.644
  45.120         85.00	    10.100
  45.140         77.50	     9.644
  45.160         66.67	     8.944
  45.180         81.67	     9.899
  45.200         92.50	    10.536
  45.220         80.00	     9.798
  45.240        117.50	    11.874
  45.260        112.50	    11.619
  45.280        159.17	    13.820
  45.300        159.17	    13.820
  45.320        193.33	    15.232
  45.340        221.67	    16.310
  45.360        230.00	    16.613
  45.380        196.67	    15.362
  45.400        223.33	    16.371
  45.420        257.50	    17.578
  45.440        292.50	    18.735
  45.460        260.83	    17.692
  45.480        240.00	    16.971
  45.500        176.67	    14.560
  45.520        147.50	    13.304
  45.540        162.50	    13.964
  45.560        180.83	    14.731
  45.580        150.00	    13.416
  45.600        153.33	    13.565
  45.620        127.50	    12.369
  45.640         90.00	    10.392
  45.660         82.50	     9.950
  45.680         82.50	     9.950
  45.700         80.00	     9.798
  45.720         85.83	    10.149
  45.740         99.17	    10.909
  45.760         74.17	     9.434
  45.780         71.67	     9.274
  45.800         50.00	     7.746
  45.820         41.67	     7.071
  45.840         70.00	     9.165
  45.860         70.83	     9.220
  45.880         50.00	     7.746
  45.900         44.17	     7.280
  45.920         54.17	     8.062
  45.940         49.17	     7.681
  45.960         41.67	     7.071
  45.980         45.83	     7.416
  46.000         40.00	     6.928
  46.020         42.50	     7.141
  46.040         47.50	     7.550
  46.060         45.00	     7.348
  46.080         48.33	     7.616
  46.100         37.50	     6.708
  46.120         40.00	     6.928
  46.140         56.67	     8.246
  46.160         25.00	     5.477
  46.180         41.67	     7.071
  46.200         35.00	     6.481
  46.220         38.33	     6.782
  46.240         37.50	     6.708
  46.260         45.00	     7.348
  46.280         42.50	     7.141
  46.300         45.00	     7.348
  46.320         36.67	     6.633
  46.340         31.67	     6.164
  46.360         33.33	     6.325
  46.380         39.17	     6.856
  46.400         50.00	     7.746
  46.420         41.67	     7.071
  46.440         38.33	     6.782
  46.460         33.33	     6.325
  46.480         37.50	     6.708
  46.500         35.00	     6.481
  46.520         35.83	     6.557
  46.540         31.67	     6.164
  46.560         39.17	     6.856
  46.580         34.17	     6.403
  46.600         40.00	     6.928
  46.620         30.83	     6.083
  46.640         30.83	     6.083
  46.660         32.50	     6.245
  46.680         34.17	     6.403
  46.700         42.50	     7.141
  46.720         40.83	     7.000
  46.740         34.17	     6.403
  46.760         41.67	     7.071
  46.780         40.83	     7.000
  46.800         48.33	     7.616
  46.820         40.83	     7.000
  46.840         45.83	     7.416
  46.860         45.83	     7.416
  46.880         41.67	     7.071
  46.900         53.33	     8.000
  46.920         52.50	     7.937
  46.940         63.33	     8.718
  46.960         80.83	     9.849
  46.980         64.17	     8.775
  47.000         67.50	     9.000
  47.020         85.83	    10.149
  47.040         84.17	    10.050
  47.060         76.67	     9.592
  47.080         64.17	     8.775
  47.100         47.50	     7.550
  47.120         50.00	     7.746
  47.140         52.50	     7.937
  47.160         63.33	     8.718
  47.180         51.67	     7.874
  47.200         48.33	     7.616
  47.220         35.83	     6.557
  47.240         35.83	     6.557
  47.260         42.50	     7.141
  47.280         45.00	     7.348
  47.300         45.83	     7.416
  47.320         47.50	     7.550
  47.340         45.83	     7.416
  47.360         42.50	     7.141
  47.380         45.83	     7.416
  47.400         36.67	     6.633
  47.420         40.83	     7.000
  47.440         46.67	     7.483
  47.460         43.33	     7.211
  47.480         43.33	     7.211
  47.500         30.00	     6.000
  47.520         46.67	     7.483
  47.540         38.33	     6.782
  47.560         37.50	     6.708
  47.580         40.00	     6.928
  47.600         36.67	     6.633
  47.620         40.83	     7.000
  47.640         26.67	     5.657
  47.660         35.83	     6.557
  47.680         35.00	     6.481
  47.700         30.83	     6.083
  47.720         39.17	     6.856
  47.740         49.17	     7.681
  47.760         35.83	     6.557
  47.780         45.00	     7.348
  47.800         61.67	     8.602
  47.820         50.83	     7.810
  47.840         48.33	     7.616
  47.860         66.67	     8.944
  47.880         59.17	     8.426
  47.900         66.67	     8.944
  47.920         70.83	     9.220
  47.940         77.50	     9.644
  47.960         81.67	     9.899
  47.980         73.33	     9.381
  48.000         66.67	     8.944
  48.020         70.83	     9.220
  48.040         59.17	     8.426
  48.060         73.33	     9.381
  48.080         93.33	    10.583
  48.100         78.33	     9.695
  48.120         75.83	     9.539
  48.140         70.00	     9.165
  48.160         69.17	     9.110
  48.180         73.33	     9.381
  48.200         71.67	     9.274
  48.220         91.67	    10.488
  48.240        140.83	    13.000
  48.260        139.17	    12.923
  48.280         77.50	     9.644
  48.300         65.83	     8.888
  48.320         56.67	     8.246
  48.340         61.67	     8.602
  48.360         85.00	    10.100
  48.380         80.83	     9.849
  48.400         56.67	     8.246
  48.420         60.00	     8.485
  48.440         55.00	     8.124
  48.460         70.00	     9.165
  48.480         57.50	     8.307
  48.500         63.33	     8.718
  48.520         43.33	     7.211
  48.540         59.17	     8.426
  48.560         49.17	     7.681
  48.580         52.50	     7.937
  48.600         65.83	     8.888
  48.620         59.17	     8.426
  48.640         50.00	     7.746
  48.660         50.00	     7.746
  48.680         45.00	     7.348
  48.700         44.17	     7.280
  48.720         40.83	     7.000
  48.740         44.17	     7.280
  48.760         51.67	     7.874
  48.780         35.00	     6.481
  48.800         38.33	     6.782
  48.820         42.50	     7.141
  48.840         31.67	     6.164
  48.860         34.17	     6.403
  48.880         36.67	     6.633
  48.900         36.67	     6.633
  48.920         40.00	     6.928
  48.940         31.67	     6.164
  48.960         44.17	     7.280
  48.980         36.67	     6.633
  49.000         44.17	     7.280
  49.020         54.17	     8.062
  49.040         50.00	     7.746
  49.060         51.67	     7.874
  49.080         55.00	     8.124
  49.100         38.33	     6.782
  49.120         48.33	     7.616
  49.140         57.50	     8.307
  49.160         52.50	     7.937
  49.180         61.67	     8.602
  49.200         62.50	     8.660
  49.220         38.33	     6.782
  49.240         53.33	     8.000
  49.260         45.83	     7.416
  49.280         47.50	     7.550
  49.300         41.67	     7.071
  49.320         65.00	     8.832
  49.340         68.33	     9.055
  49.360         77.50	     9.644
  49.380         81.67	     9.899
  49.400         56.67	     8.246
  49.420         65.83	     8.888
  49.440         85.00	    10.100
  49.460         73.33	     9.381
  49.480         66.67	     8.944
  49.500         77.50	     9.644
  49.520         71.67	     9.274
  49.540         60.83	     8.544
  49.560         64.17	     8.775
  49.580         69.17	     9.110
  49.600         71.67	     9.274
  49.620         77.50	     9.644
  49.640         69.17	     9.110
  49.660         53.33	     8.000
  49.680         69.17	     9.110
  49.700         72.50	     9.327
  49.720         78.33	     9.695
  49.740        100.00	    10.954
  49.760         85.00	    10.100
  49.780         81.67	     9.899
  49.800         70.00	     9.165
  49.820         75.00	     9.487
  49.840         99.17	    10.909
  49.860         77.50	     9.644
  49.880        100.83	    11.000
  49.900        129.17	    12.450
  49.920        184.17	    14.866
  49.940        244.17	    17.117
  49.960        234.17	    16.763
  49.980        168.33	    14.213
  50.000        133.33	    12.649
  50.020        129.17	    12.450
  50.040        126.67	    12.329
  50.060        130.00	    12.490
  50.080        150.83	    13.454
  50.100        145.83	    13.229
  50.120        127.50	    12.369
  50.140         82.50	     9.950
  50.160         73.33	     9.381
  50.180         69.17	     9.110
  50.200         55.83	     8.185
  50.220         51.67	     7.874
  50.240         70.00	     9.165
  50.260         60.00	     8.485
  50.280         46.67	     7.483
  50.300         54.17	     8.062
  50.320         61.67	     8.602
  50.340         55.83	     8.185
  50.360         60.00	     8.485
  50.380         76.67	     9.592
  50.400         70.00	     9.165
  50.420        100.00	    10.954
  50.440        114.17	    11.705
  50.460        111.67	    11.576
  50.480        122.50	    12.124
  50.500         78.33	     9.695
  50.520         71.67	     9.274
  50.540         75.83	     9.539
  50.560         72.50	     9.327
  50.580         65.00	     8.832
  50.600         63.33	     8.718
  50.620         59.17	     8.426
  50.640         46.67	     7.483
  50.660         39.17	     6.856
  50.680         50.83	     7.810
  50.700         48.33	     7.616
  50.720         40.83	     7.000
  50.740         39.17	     6.856
  50.760         42.50	     7.141
  50.780         41.67	     7.071
  50.800         29.17	     5.916
  50.820         52.50	     7.937
  50.840         48.33	     7.616
  50.860         53.33	     8.000
  50.880         65.00	     8.832
  50.900         89.17	    10.344
  50.920        126.67	    12.329
  50.940        144.17	    13.153
  50.960        135.83	    12.767
  50.980        113.33	    11.662
  51.000         89.17	    10.344
  51.020        117.50	    11.874
  51.040         90.83	    10.440
  51.060        120.00	    12.000
  51.080        107.50	    11.358
  51.100         99.17	    10.909
  51.120         84.17	    10.050
  51.140         81.67	     9.899
  51.160         63.33	     8.718
  51.180         69.17	     9.110
  51.200         59.17	     8.426
  51.220         66.67	     8.944
  51.240         45.00	     7.348
  51.260         38.33	     6.782
  51.280         50.83	     7.810
  51.300         30.83	     6.083
  51.320         40.83	     7.000
  51.340         50.00	     7.746
  51.360         42.50	     7.141
  51.380         36.67	     6.633
  51.400         40.00	     6.928
  51.420         32.50	     6.245
  51.440         23.33	     5.292
  51.460         42.50	     7.141
  51.480         40.83	     7.000
  51.500         29.17	     5.916
  51.520         23.33	     5.292
  51.540         26.67	     5.657
  51.560         37.50	     6.708
  51.580         30.00	     6.000
  51.600         45.83	     7.416
  51.620         32.50	     6.245
  51.640         32.50	     6.245
  51.660         29.17	     5.916
  51.680         40.00	     6.928
  51.700         28.33	     5.831
  51.720         30.83	     6.083
  51.740         24.17	     5.385
  51.760         41.67	     7.071
  51.780         32.50	     6.245
  51.800         25.83	     5.568
  51.820         40.83	     7.000
  51.840         45.83	     7.416
  51.860         42.50	     7.141
  51.880         38.33	     6.782
  51.900         48.33	     7.616
  51.920         48.33	     7.616
  51.940         67.50	     9.000
  51.960         65.83	     8.888
  51.980         55.00	     8.124
  52.000         55.83	     8.185
  52.020         60.83	     8.544
  52.040         53.33	     8.000
  52.060         50.83	     7.810
  52.080         49.17	     7.681
  52.100         73.33	     9.381
  52.120         55.83	     8.185
  52.140         69.17	     9.110
  52.160         54.17	     8.062
  52.180         60.00	     8.485
  52.200         52.50	     7.937
  52.220         60.00	     8.485
  52.240         47.50	     7.550
  52.260         43.33	     7.211
  52.280         66.67	     8.944
  52.300        105.00	    11.225
  52.320         80.83	     9.849
  52.340         75.00	     9.487
  52.360         50.00	     7.746
  52.380         60.00	     8.485
  52.400         58.33	     8.367
  52.420         44.17	     7.280
  52.440         57.50	     8.307
  52.460         70.83	     9.220
  52.480         60.00	     8.485
  52.500         53.33	     8.000
  52.520         44.17	     7.280
  52.540         49.17	     7.681
  52.560         50.00	     7.746
  52.580         60.00	     8.485
  52.600         55.00	     8.124
  52.620         63.33	     8.718
  52.640         52.50	     7.937
  52.660         48.33	     7.616
  52.680         48.33	     7.616
  52.700         55.00	     8.124
  52.720         50.00	     7.746
  52.740         51.67	     7.874
  52.760         46.67	     7.483
  52.780         55.83	     8.185
  52.800         46.67	     7.483
  52.820         40.00	     6.928
  52.840         50.00	     7.746
  52.860         60.83	     8.544
  52.880         42.50	     7.141
  52.900         47.50	     7.550
  52.920         45.00	     7.348
  52.940         35.83	     6.557
  52.960         47.50	     7.550
  52.980         46.67	     7.483
  53.000         42.50	     7.141
  53.020         61.67	     8.602
  53.040         45.00	     7.348
  53.060         54.17	     8.062
  53.080         45.00	     7.348
  53.100         56.67	     8.246
  53.120         42.50	     7.141
  53.140         55.83	     8.185
  53.160         43.33	     7.211
  53.180         47.50	     7.550
  53.200         36.67	     6.633
  53.220         49.17	     7.681
  53.240         39.17	     6.856
  53.260         45.00	     7.348
  53.280         51.67	     7.874
  53.300         41.67	     7.071
  53.320         40.00	     6.928
  53.340         42.50	     7.141
  53.360         41.67	     7.071
  53.380         45.00	     7.348
  53.400         45.00	     7.348
  53.420         41.67	     7.071
  53.440         43.33	     7.211
  53.460         42.50	     7.141
  53.480         43.33	     7.211
  53.500         44.17	     7.280
  53.520         40.00	     6.928
  53.540         45.83	     7.416
  53.560         37.50	     6.708
  53.580         40.83	     7.000
  53.600         52.50	     7.937
  53.620         40.00	     6.928
  53.640         40.00	     6.928
  53.660         51.67	     7.874
  53.680         40.83	     7.000
  53.700         41.67	     7.071
  53.720         50.00	     7.746
  53.740         50.83	     7.810
  53.760         52.50	     7.937
  53.780         36.67	     6.633
  53.800         43.33	     7.211
  53.820         26.67	     5.657
  53.840         54.17	     8.062
  53.860         40.83	     7.000
  53.880         40.00	     6.928
  53.900         42.50	     7.141
  53.920         43.33	     7.211
  53.940         44.17	     7.280
  53.960         46.67	     7.483
  53.980         44.17	     7.280
  54.000         55.00	     8.124
  54.020         47.50	     7.550
  54.040         55.83	     8.185
  54.060         43.33	     7.211
  54.080         42.50	     7.141
  54.100         45.00	     7.348
  54.120         50.00	     7.746
  54.140         51.67	     7.874
  54.160         57.50	     8.307
  54.180         43.33	     7.211
  54.200         55.83	     8.185
  54.220         38.33	     6.782
  54.240         46.67	     7.483
  54.260         50.83	     7.810
  54.280         35.00	     6.481
  54.300         51.67	     7.874
  54.320         49.17	     7.681
  54.340         49.17	     7.681
  54.360         49.17	     7.681
  54.380         43.33	     7.211
  54.400         41.67	     7.071
  54.420         42.50	     7.141
  54.440         47.50	     7.550
  54.460         48.33	     7.616
  54.480         46.67	     7.483
  54.500         54.17	     8.062
  54.520         51.67	     7.874
  54.540         35.83	     6.557
  54.560         53.33	     8.000
  54.580         70.00	     9.165
  54.600         59.17	     8.426
  54.620         76.67	     9.592
  54.640         85.00	    10.100
  54.660        102.50	    11.091
  54.680        119.17	    11.958
  54.700        116.67	    11.832
  54.720         96.67	    10.770
  54.740         90.00	    10.392
  54.760         69.17	     9.110
  54.780         68.33	     9.055
  54.800         68.33	     9.055
  54.820         70.00	     9.165
  54.840         85.83	    10.149
  54.860         80.00	     9.798
  54.880         59.17	     8.426
  54.900         71.67	     9.274
  54.920         57.50	     8.307
  54.940         53.33	     8.000
  54.960         57.50	     8.307
  54.980         50.83	     7.810
  55.000         46.67	     7.483
  55.020         50.83	     7.810
  55.040         60.83	     8.544
  55.060         51.67	     7.874
  55.080         56.67	     8.246
  55.100         48.33	     7.616
  55.120         65.00	     8.832
  55.140         67.50	     9.000
  55.160         71.67	     9.274
  55.180         61.67	     8.602
  55.200         50.83	     7.810
  55.220         52.50	     7.937
  55.240         59.17	     8.426
  55.260         58.33	     8.367
  55.280         39.17	     6.856
  55.300         60.83	     8.544
  55.320         47.50	     7.550
  55.340         60.00	     8.485
  55.360         46.67	     7.483
  55.380         60.00	     8.485
  55.400         75.00	     9.487
  55.420         55.00	     8.124
  55.440         66.67	     8.944
  55.460         70.83	     9.220
  55.480         75.00	     9.487
  55.500         60.83	     8.544
  55.520         69.17	     9.110
  55.540         55.00	     8.124
  55.560         61.67	     8.602
  55.580         68.33	     9.055
  55.600         81.67	     9.899
  55.620         94.17	    10.630
  55.640         66.67	     8.944
  55.660         70.00	     9.165
  55.680         71.67	     9.274
  55.700         81.67	     9.899
  55.720         70.00	     9.165
  55.740         71.67	     9.274
  55.760         50.00	     7.746
  55.780         62.50	     8.660
  55.800         59.17	     8.426
  55.820         62.50	     8.660
  55.840         69.17	     9.110
  55.860         67.50	     9.000
  55.880         73.33	     9.381
  55.900         80.00	     9.798
  55.920         51.67	     7.874
  55.940         60.83	     8.544
  55.960         65.00	     8.832
  55.980         55.83	     8.185
  56.000         75.83	     9.539
  56.020         80.00	     9.798
  56.040         69.17	     9.110
  56.060         62.50	     8.660
  56.080         49.17	     7.681
  56.100         44.17	     7.280
  56.120         52.50	     7.937
  56.140         56.67	     8.246
  56.160         55.83	     8.185
  56.180         48.33	     7.616
  56.200         56.67	     8.246
  56.220         56.67	     8.246
  56.240         50.00	     7.746
  56.260         52.50	     7.937
  56.280         41.67	     7.071
  56.300         30.83	     6.083
  56.320         46.67	     7.483
  56.340         44.17	     7.280
  56.360         53.33	     8.000
  56.380         65.83	     8.888
  56.400         50.83	     7.810
  56.420         63.33	     8.718
  56.440         40.83	     7.000
  56.460         44.17	     7.280
  56.480         43.33	     7.211
  56.500         36.67	     6.633
  56.520         48.33	     7.616
  56.540         51.67	     7.874
  56.560         58.33	     8.367
  56.580         47.50	     7.550
  56.600         48.33	     7.616
  56.620         60.00	     8.485
  56.640         70.00	     9.165
  56.660         97.50	    10.817
  56.680        110.83	    11.533
  56.700         96.67	    10.770
  56.720         98.33	    10.863
  56.740         95.00	    10.677
  56.760        100.00	    10.954
  56.780         93.33	    10.583
  56.800        115.83	    11.790
  56.820        118.33	    11.916
  56.840        155.83	    13.675
  56.860        153.33	    13.565
  56.880        105.00	    11.225
  56.900         93.33	    10.583
  56.920         78.33	     9.695
  56.940         79.17	     9.747
  56.960         74.17	     9.434
  56.980         76.67	     9.592
  57.000         80.83	     9.849
  57.020         84.17	    10.050
  57.040         50.83	     7.810
  57.060         68.33	     9.055
  57.080         50.00	     7.746
  57.100         46.67	     7.483
  57.120         42.50	     7.141
  57.140         37.50	     6.708
  57.160         35.00	     6.481
  57.180         35.00	     6.481
  57.200         40.83	     7.000
  57.220         53.33	     8.000
  57.240         55.00	     8.124
  57.260         43.33	     7.211
  57.280         34.17	     6.403
  57.300         43.33	     7.211
  57.320         46.67	     7.483
  57.340         53.33	     8.000
  57.360         65.00	     8.832
  57.380         55.00	     8.124
  57.400         43.33	     7.211
  57.420         50.00	     7.746
  57.440         39.17	     6.856
  57.460         40.00	     6.928
  57.480         51.67	     7.874
  57.500         67.50	     9.000
  57.520         63.33	     8.718
  57.540         75.00	     9.487
  57.560         55.83	     8.185
  57.580         75.83	     9.539
  57.600         56.67	     8.246
  57.620         83.33	    10.000
  57.640         63.33	     8.718
  57.660         55.83	     8.185
  57.680         52.50	     7.937
  57.700         50.83	     7.810
  57.720         50.83	     7.810
  57.740         62.50	     8.660
  57.760         52.50	     7.937
  57.780         50.00	     7.746
  57.800         68.33	     9.055
  57.820         56.67	     8.246
  57.840         67.50	     9.000
  57.860         50.83	     7.810
  57.880         58.33	     8.367
  57.900         53.33	     8.000
  57.920         50.00	     7.746
  57.940         46.67	     7.483
  57.960         50.00	     7.746
  57.980         64.17	     8.775
  58.000         53.33	     8.000
  58.020         45.00	     7.348
  58.040         52.50	     7.937
  58.060         60.83	     8.544
  58.080         55.00	     8.124
  58.100         51.67	     7.874
  58.120         52.50	     7.937
  58.140         40.00	     6.928
  58.160         41.67	     7.071
  58.180         50.00	     7.746
  58.200         49.17	     7.681
  58.220         56.67	     8.246
  58.240         40.00	     6.928
  58.260         49.17	     7.681
  58.280         56.67	     8.246
  58.300         50.83	     7.810
  58.320         50.00	     7.746
  58.340         63.33	     8.718
  58.360         57.50	     8.307
  58.380         58.33	     8.367
  58.400         47.50	     7.550
  58.420         70.00	     9.165
  58.440         56.67	     8.246
  58.460         73.33	     9.381
  58.480         65.83	     8.888
  58.500         61.67	     8.602
  58.520         70.83	     9.220
  58.540         51.67	     7.874
  58.560         58.33	     8.367
  58.580         84.17	    10.050
  58.600         55.83	     8.185
  58.620         66.67	     8.944
  58.640         52.50	     7.937
  58.660         72.50	     9.327
  58.680         75.00	     9.487
  58.700         58.33	     8.367
  58.720         76.67	     9.592
  58.740         56.67	     8.246
  58.760         70.00	     9.165
  58.780         74.17	     9.434
  58.800         86.67	    10.198
  58.820         85.00	    10.100
  58.840        110.83	    11.533
  58.860         86.67	    10.198
  58.880         90.00	    10.392
  58.900         85.83	    10.149
  58.920         81.67	     9.899
  58.940         77.50	     9.644
  58.960        110.83	    11.533
  58.980        118.33	    11.916
  59.000        104.17	    11.180
  59.020         99.17	    10.909
  59.040         94.17	    10.630
  59.060         95.00	    10.677
  59.080         79.17	     9.747
  59.100         84.17	    10.050
  59.120         89.17	    10.344
  59.140         77.50	     9.644
  59.160         77.50	     9.644
  59.180         51.67	     7.874
  59.200         60.00	     8.485
  59.220         55.83	     8.185
  59.240         57.50	     8.307
  59.260         58.33	     8.367
  59.280         47.50	     7.550
  59.300         46.67	     7.483
  59.320         48.33	     7.616
  59.340         57.50	     8.307
  59.360         65.00	     8.832
  59.380         60.83	     8.544
  59.400         38.33	     6.782
  59.420         44.17	     7.280
  59.440         46.67	     7.483
  59.460         38.33	     6.782
  59.480         55.00	     8.124
  59.500         51.67	     7.874
  59.520         66.67	     8.944
  59.540         60.00	     8.485
  59.560         54.17	     8.062
  59.580         44.17	     7.280
  59.600         64.17	     8.775
  59.620         63.33	     8.718
  59.640         72.50	     9.327
  59.660         85.00	    10.100
  59.680         85.00	    10.100
  59.700        110.00	    11.489
  59.720        164.17	    14.036
  59.740        195.00	    15.297
  59.760        278.33	    18.276
  59.780        351.67	    20.543
  59.800        287.50	    18.574
  59.820        220.00	    16.248
  59.840        148.33	    13.342
  59.860        131.67	    12.570
  59.880        143.33	    13.115
  59.900        140.83	    13.000
  59.920        185.83	    14.933
  59.940        204.17	    15.652
  59.960        170.00	    14.283
  59.980        140.83	    13.000
  60.000         97.50	    10.817
  60.020         98.33	    10.863
  60.040         82.50	     9.950
  60.060         77.50	     9.644
  60.080         69.17	     9.110
  60.100         71.67	     9.274
  60.120         69.17	     9.110
  60.140         63.33	     8.718
  60.160         65.83	     8.888
  60.180         67.50	     9.000
  60.200         79.17	     9.747
  60.220         81.67	     9.899
  60.240         69.17	     9.110
  60.260         74.17	     9.434
  60.280         75.00	     9.487
  60.300         86.67	    10.198
  60.320         83.33	    10.000
  60.340         65.83	     8.888
  60.360         70.00	     9.165
  60.380         61.67	     8.602
  60.400         68.33	     9.055
  60.420         61.67	     8.602
  60.440         61.67	     8.602
  60.460         72.50	     9.327
  60.480         63.33	     8.718
  60.500         56.67	     8.246
  60.520         88.33	    10.296
  60.540         71.67	     9.274
  60.560         75.00	     9.487
  60.580         69.17	     9.110
  60.600         70.83	     9.220
  60.620         60.83	     8.544
  60.640         89.17	    10.344
  60.660         57.50	     8.307
  60.680         86.67	    10.198
  60.700         75.00	     9.487
  60.720         85.00	    10.100
  60.740         88.33	    10.296
  60.760        110.00	    11.489
  60.780         89.17	    10.344
  60.800         91.67	    10.488
  60.820         69.17	     9.110
  60.840         66.67	     8.944
  60.860         70.83	     9.220
  60.880         75.00	     9.487
  60.900         63.33	     8.718
  60.920         70.00	     9.165
  60.940         78.33	     9.695
  60.960         66.67	     8.944
  60.980         70.83	     9.220
  61.000         59.17	     8.426
  61.020         56.67	     8.246
  61.040         53.33	     8.000
  61.060         57.50	     8.307
  61.080         52.50	     7.937
  61.100         60.00	     8.485
  61.120         59.17	     8.426
  61.140         63.33	     8.718
  61.160         60.83	     8.544
  61.180         71.67	     9.274
  61.200         70.00	     9.165
  61.220         65.00	     8.832
  61.240         85.83	    10.149
  61.260         80.83	     9.849
  61.280         93.33	    10.583
  61.300        102.50	    11.091
  61.320         91.67	    10.488
  61.340         93.33	    10.583
  61.360         69.17	     9.110
  61.380         89.17	    10.344
  61.400         71.67	     9.274
  61.420         87.50	    10.247
  61.440         79.17	     9.747
  61.460         75.83	     9.539
  61.480         75.00	     9.487
  61.500         80.83	     9.849
  61.520         80.83	     9.849
  61.540         91.67	    10.488
  61.560         86.67	    10.198
  61.580         82.50	     9.950
  61.600         81.67	     9.899
  61.620         69.17	     9.110
  61.640         67.50	     9.000
  61.660         75.00	     9.487
  61.680         62.50	     8.660
  61.700         76.67	     9.592
  61.720         77.50	     9.644
  61.740         64.17	     8.775
  61.760         65.00	     8.832
  61.780         66.67	     8.944
  61.800         64.17	     8.775
  61.820         70.83	     9.220
  61.840         74.17	     9.434
  61.860         64.17	     8.775
  61.880         75.00	     9.487
  61.900         56.67	     8.246
  61.920         51.67	     7.874
  61.940         66.67	     8.944
  61.960         59.17	     8.426
  61.980         73.33	     9.381
  62.000         55.83	     8.185
  62.020         50.00	     7.746
  62.040         45.83	     7.416
  62.060         48.33	     7.616
  62.080         43.33	     7.211
  62.100         34.17	     6.403
  62.120         49.17	     7.681
  62.140         44.17	     7.280
  62.160         35.83	     6.557
  62.180         47.50	     7.550
  62.200         49.17	     7.681
  62.220         35.83	     6.557
  62.240         45.83	     7.416
  62.260         42.50	     7.141
  62.280         49.17	     7.681
  62.300         42.50	     7.141
  62.320         40.83	     7.000
  62.340         48.33	     7.616
  62.360         40.00	     6.928
  62.380         42.50	     7.141
  62.400         53.33	     8.000
  62.420         55.00	     8.124
  62.440         48.33	     7.616
  62.460         55.83	     8.185
  62.480         55.83	     8.185
  62.500         59.17	     8.426
  62.520         50.00	     7.746
  62.540         50.00	     7.746
  62.560         40.00	     6.928
  62.580         46.67	     7.483
  62.600         53.33	     8.000
  62.620         55.00	     8.124
  62.640         43.33	     7.211
  62.660         59.17	     8.426
  62.680         47.50	     7.550
  62.700         52.50	     7.937
  62.720         50.83	     7.810
  62.740         46.67	     7.483
  62.760         50.00	     7.746
  62.780         42.50	     7.141
  62.800         39.17	     6.856
  62.820         41.67	     7.071
  62.840         35.00	     6.481
  62.860         42.50	     7.141
  62.880         37.50	     6.708
  62.900         45.83	     7.416
  62.920         32.50	     6.245
  62.940         35.83	     6.557
  62.960         47.50	     7.550
  62.980         45.00	     7.348
  63.000         34.17	     6.403
  63.020         37.50	     6.708
  63.040         41.67	     7.071
  63.060         42.50	     7.141
  63.080         37.50	     6.708
  63.100         49.17	     7.681
  63.120         56.67	     8.246
  63.140         35.83	     6.557
  63.160         35.83	     6.557
  63.180         64.17	     8.775
  63.200         53.33	     8.000
  63.220         55.83	     8.185
  63.240         50.00	     7.746
  63.260         48.33	     7.616
  63.280         55.00	     8.124
  63.300         65.00	     8.832
  63.320         53.33	     8.000
  63.340         66.67	     8.944
  63.360         61.67	     8.602
  63.380         56.67	     8.246
  63.400         50.83	     7.810
  63.420         51.67	     7.874
  63.440         63.33	     8.718
  63.460         41.67	     7.071
  63.480         56.67	     8.246
  63.500         44.17	     7.280
  63.520         54.17	     8.062
  63.540         52.50	     7.937
  63.560         53.33	     8.000
  63.580         41.67	     7.071
  63.600         57.50	     8.307
  63.620         44.17	     7.280
  63.640         61.67	     8.602
  63.660         47.50	     7.550
  63.680         53.33	     8.000
  63.700         65.00	     8.832
  63.720         56.67	     8.246
  63.740         60.83	     8.544
  63.760         50.83	     7.810
  63.780         54.17	     8.062
  63.800         60.83	     8.544
  63.820         55.83	     8.185
  63.840         75.83	     9.539
  63.860         67.50	     9.000
  63.880         60.83	     8.544
  63.900         75.00	     9.487
  63.920         56.67	     8.246
  63.940         63.33	     8.718
  63.960         60.00	     8.485
  63.980         55.00	     8.124
  64.000         65.00	     8.832
  64.020         61.67	     8.602
  64.040         56.67	     8.246
  64.060         57.50	     8.307
  64.080         65.00	     8.832
  64.100         50.00	     7.746
  64.120         56.67	     8.246
  64.140         58.33	     8.367
  64.160         54.17	     8.062
  64.180         52.50	     7.937
  64.200         44.17	     7.280
  64.220         43.33	     7.211
  64.240         40.83	     7.000
  64.260         35.00	     6.481
  64.280         41.67	     7.071
  64.300         40.00	     6.928
  64.320         54.17	     8.062
  64.340         41.67	     7.071
  64.360         45.83	     7.416
  64.380         50.00	     7.746
  64.400         50.00	     7.746
  64.420         35.83	     6.557
  64.440         41.67	     7.071
  64.460         49.17	     7.681
  64.480         46.67	     7.483
  64.500         40.83	     7.000
  64.520         61.67	     8.602
  64.540         39.17	     6.856
  64.560         52.50	     7.937
  64.580         52.50	     7.937
  64.600         49.17	     7.681
  64.620         54.17	     8.062
  64.640         44.17	     7.280
  64.660         47.50	     7.550
  64.680         39.17	     6.856
  64.700         35.83	     6.557
  64.720         46.67	     7.483
  64.740         47.50	     7.550
  64.760         44.17	     7.280
  64.780         40.83	     7.000
  64.800         36.67	     6.633
  64.820         44.17	     7.280
  64.840         43.33	     7.211
  64.860         34.17	     6.403
  64.880         46.67	     7.483
  64.900         50.00	     7.746
  64.920         49.17	     7.681
  64.940         56.67	     8.246
  64.960         70.00	     9.165
  64.980         49.17	     7.681
  65.000         50.00	     7.746
