
Filename:
	C:\Program Files\Thermo Electron\WinXRD\Datafiles\F_HERMAN\GEO\G71_RT.raw

File Created:
	February 21, 2020 - 08:37 PM

Specimen Id:
	G71_RT

Specimen Name:
	

Specimen Description:
	

Comment:
Scan Type: 2Theta Scan
Start Angle: 3 deg.
Stop Angle: 65 deg.
Num Points: 3101
Step Size: 0.02 deg.
Scan Rate: 1.000000
Scan Mode: Continuous
Wavelength: 1.540562
\Kalpha1: 1.540562	\Kalpha2: 1.544390	\Kbeta: 1.392218

Optics:
		Detector:
			 Type: Fixed Slits
		Tube: 
			 Type: Fixed Slits


Datas:
 Pos [deg]       Rate [CPS]      ESD [-]

Range 1 ---> Iteration 1
   3.000        394.17	    21.749
   3.020        455.00	    23.367
   3.040        440.00	    22.978
   3.060        417.50	    22.383
   3.080        419.17	    22.428
   3.100        398.33	    21.863
   3.120        445.83	    23.130
   3.140        428.33	    22.672
   3.160        442.50	    23.043
   3.180        449.17	    23.216
   3.200        404.17	    22.023
   3.220        409.17	    22.159
   3.240        430.83	    22.738
   3.260        417.50	    22.383
   3.280        392.50	    21.703
   3.300        402.50	    21.977
   3.320        385.83	    21.517
   3.340        425.83	    22.605
   3.360        393.33	    21.726
   3.380        416.67	    22.361
   3.400        388.33	    21.587
   3.420        431.67	    22.760
   3.440        395.00	    21.772
   3.460        388.33	    21.587
   3.480        390.83	    21.656
   3.500        350.83	    20.518
   3.520        385.83	    21.517
   3.540        330.83	    19.925
   3.560        356.67	    20.688
   3.580        342.50	    20.273
   3.600        353.33	    20.591
   3.620        350.83	    20.518
   3.640        339.17	    20.174
   3.660        363.33	    20.881
   3.680        345.00	    20.347
   3.700        334.17	    20.025
   3.720        339.17	    20.174
   3.740        357.50	    20.712
   3.760        338.33	    20.149
   3.780        347.50	    20.421
   3.800        339.17	    20.174
   3.820        345.83	    20.372
   3.840        339.17	    20.174
   3.860        316.67	    19.494
   3.880        355.83	    20.664
   3.900        334.17	    20.025
   3.920        317.50	    19.519
   3.940        335.00	    20.050
   3.960        320.00	    19.596
   3.980        294.17	    18.788
   4.000        321.67	    19.647
   4.020        319.17	    19.570
   4.040        300.00	    18.974
   4.060        320.00	    19.596
   4.080        307.50	    19.209
   4.100        295.83	    18.841
   4.120        289.17	    18.628
   4.140        323.33	    19.698
   4.160        306.67	    19.183
   4.180        330.83	    19.925
   4.200        306.67	    19.183
   4.220        316.67	    19.494
   4.240        305.83	    19.157
   4.260        325.00	    19.748
   4.280        287.50	    18.574
   4.300        292.50	    18.735
   4.320        281.67	    18.385
   4.340        300.00	    18.974
   4.360        260.00	    17.664
   4.380        306.67	    19.183
   4.400        280.83	    18.358
   4.420        270.83	    18.028
   4.440        280.00	    18.330
   4.460        271.67	    18.055
   4.480        299.17	    18.947
   4.500        248.33	    17.263
   4.520        271.67	    18.055
   4.540        270.00	    18.000
   4.560        252.50	    17.407
   4.580        267.50	    17.916
   4.600        267.50	    17.916
   4.620        265.00	    17.833
   4.640        247.50	    17.234
   4.660        264.17	    17.804
   4.680        250.00	    17.321
   4.700        222.50	    16.340
   4.720        276.67	    18.221
   4.740        234.17	    16.763
   4.760        243.33	    17.088
   4.780        259.17	    17.635
   4.800        220.00	    16.248
   4.820        255.83	    17.521
   4.840        277.50	    18.248
   4.860        271.67	    18.055
   4.880        235.83	    16.823
   4.900        235.00	    16.793
   4.920        246.67	    17.205
   4.940        250.83	    17.349
   4.960        246.67	    17.205
   4.980        233.33	    16.733
   5.000        280.00	    18.330
   5.020        241.67	    17.029
   5.040        242.50	    17.059
   5.060        229.17	    16.583
   5.080        250.83	    17.349
   5.100        227.50	    16.523
   5.120        246.67	    17.205
   5.140        262.50	    17.748
   5.160        228.33	    16.553
   5.180        236.67	    16.852
   5.200        231.67	    16.673
   5.220        223.33	    16.371
   5.240        215.83	    16.093
   5.260        227.50	    16.523
   5.280        223.33	    16.371
   5.300        215.83	    16.093
   5.320        211.67	    15.937
   5.340        226.67	    16.492
   5.360        218.33	    16.186
   5.380        213.33	    16.000
   5.400        225.83	    16.462
   5.420        214.17	    16.031
   5.440        223.33	    16.371
   5.460        226.67	    16.492
   5.480        216.67	    16.125
   5.500        228.33	    16.553
   5.520        230.83	    16.643
   5.540        216.67	    16.125
   5.560        217.50	    16.155
   5.580        233.33	    16.733
   5.600        214.17	    16.031
   5.620        193.33	    15.232
   5.640        218.33	    16.186
   5.660        215.83	    16.093
   5.680        247.50	    17.234
   5.700        221.67	    16.310
   5.720        215.83	    16.093
   5.740        213.33	    16.000
   5.760        215.83	    16.093
   5.780        243.33	    17.088
   5.800        209.17	    15.843
   5.820        214.17	    16.031
   5.840        190.00	    15.100
   5.860        212.50	    15.969
   5.880        210.83	    15.906
   5.900        223.33	    16.371
   5.920        208.33	    15.811
   5.940        223.33	    16.371
   5.960        224.17	    16.401
   5.980        246.67	    17.205
   6.000        232.50	    16.703
   6.020        213.33	    16.000
   6.040        253.33	    17.436
   6.060        235.83	    16.823
   6.080        268.33	    17.944
   6.100        281.67	    18.385
   6.120        240.83	    17.000
   6.140        315.00	    19.442
   6.160        289.17	    18.628
   6.180        265.83	    17.861
   6.200        225.00	    16.432
   6.220        194.17	    15.264
   6.240        215.83	    16.093
   6.260        201.67	    15.556
   6.280        198.33	    15.427
   6.300        188.33	    15.033
   6.320        195.00	    15.297
   6.340        160.00	    13.856
   6.360        198.33	    15.427
   6.380        200.00	    15.492
   6.400        190.00	    15.100
   6.420        172.50	    14.387
   6.440        182.50	    14.799
   6.460        167.50	    14.177
   6.480        162.50	    13.964
   6.500        203.33	    15.620
   6.520        192.50	    15.199
   6.540        173.33	    14.422
   6.560        188.33	    15.033
   6.580        199.17	    15.460
   6.600        198.33	    15.427
   6.620        166.67	    14.142
   6.640        184.17	    14.866
   6.660        175.00	    14.491
   6.680        170.00	    14.283
   6.700        189.17	    15.067
   6.720        181.67	    14.765
   6.740        180.83	    14.731
   6.760        160.00	    13.856
   6.780        165.00	    14.071
   6.800        189.17	    15.067
   6.820        180.83	    14.731
   6.840        172.50	    14.387
   6.860        171.67	    14.353
   6.880        156.67	    13.711
   6.900        160.83	    13.892
   6.920        167.50	    14.177
   6.940        165.00	    14.071
   6.960        175.83	    14.526
   6.980        160.83	    13.892
   7.000        202.50	    15.588
   7.020        177.50	    14.595
   7.040        171.67	    14.353
   7.060        142.50	    13.077
   7.080        171.67	    14.353
   7.100        147.50	    13.304
   7.120        168.33	    14.213
   7.140        156.67	    13.711
   7.160        172.50	    14.387
   7.180        164.17	    14.036
   7.200        185.00	    14.900
   7.220        160.83	    13.892
   7.240        159.17	    13.820
   7.260        148.33	    13.342
   7.280        165.83	    14.107
   7.300        160.83	    13.892
   7.320        166.67	    14.142
   7.340        163.33	    14.000
   7.360        170.00	    14.283
   7.380        153.33	    13.565
   7.400        155.00	    13.638
   7.420        155.83	    13.675
   7.440        161.67	    13.928
   7.460        155.83	    13.675
   7.480        147.50	    13.304
   7.500        175.00	    14.491
   7.520        155.83	    13.675
   7.540        150.00	    13.416
   7.560        140.00	    12.961
   7.580        156.67	    13.711
   7.600        144.17	    13.153
   7.620        174.17	    14.457
   7.640        150.83	    13.454
   7.660        150.83	    13.454
   7.680        165.83	    14.107
   7.700        159.17	    13.820
   7.720        139.17	    12.923
   7.740        170.83	    14.318
   7.760        153.33	    13.565
   7.780        136.67	    12.806
   7.800        146.67	    13.266
   7.820        156.67	    13.711
   7.840        151.67	    13.491
   7.860        152.50	    13.528
   7.880        154.17	    13.601
   7.900        141.67	    13.038
   7.920        130.00	    12.490
   7.940        146.67	    13.266
   7.960        149.17	    13.379
   7.980        148.33	    13.342
   8.000        133.33	    12.649
   8.020        139.17	    12.923
   8.040        145.83	    13.229
   8.060        155.00	    13.638
   8.080        149.17	    13.379
   8.100        138.33	    12.884
   8.120        151.67	    13.491
   8.140        147.50	    13.304
   8.160        143.33	    13.115
   8.180        139.17	    12.923
   8.200        132.50	    12.610
   8.220        150.00	    13.416
   8.240        147.50	    13.304
   8.260        155.83	    13.675
   8.280        138.33	    12.884
   8.300        116.67	    11.832
   8.320        155.83	    13.675
   8.340        150.00	    13.416
   8.360        159.17	    13.820
   8.380        165.83	    14.107
   8.400        152.50	    13.528
   8.420        165.00	    14.071
   8.440        162.50	    13.964
   8.460        155.83	    13.675
   8.480        172.50	    14.387
   8.500        175.83	    14.526
   8.520        187.50	    15.000
   8.540        190.00	    15.100
   8.560        210.83	    15.906
   8.580        220.00	    16.248
   8.600        205.83	    15.716
   8.620        262.50	    17.748
   8.640        224.17	    16.401
   8.660        270.00	    18.000
   8.680        276.67	    18.221
   8.700        300.83	    19.000
   8.720        352.50	    20.567
   8.740        424.17	    22.561
   8.760        563.33	    26.000
   8.780        671.67	    28.390
   8.800        721.67	    29.428
   8.820        580.83	    26.401
   8.840        442.50	    23.043
   8.860        253.33	    17.436
   8.880        202.50	    15.588
   8.900        160.00	    13.856
   8.920        159.17	    13.820
   8.940        129.17	    12.450
   8.960        135.83	    12.767
   8.980        131.67	    12.570
   9.000        170.00	    14.283
   9.020        132.50	    12.610
   9.040        156.67	    13.711
   9.060        140.83	    13.000
   9.080        156.67	    13.711
   9.100        161.67	    13.928
   9.120        166.67	    14.142
   9.140        152.50	    13.528
   9.160        134.17	    12.689
   9.180        124.17	    12.207
   9.200        146.67	    13.266
   9.220        125.00	    12.247
   9.240        115.83	    11.790
   9.260        136.67	    12.806
   9.280        145.83	    13.229
   9.300        168.33	    14.213
   9.320        147.50	    13.304
   9.340        140.83	    13.000
   9.360        146.67	    13.266
   9.380        142.50	    13.077
   9.400        141.67	    13.038
   9.420        136.67	    12.806
   9.440        134.17	    12.689
   9.460        123.33	    12.166
   9.480        121.67	    12.083
   9.500        128.33	    12.410
   9.520        114.17	    11.705
   9.540        124.17	    12.207
   9.560        134.17	    12.689
   9.580        113.33	    11.662
   9.600        105.00	    11.225
   9.620        124.17	    12.207
   9.640        105.83	    11.269
   9.660         99.17	    10.909
   9.680        120.83	    12.042
   9.700        117.50	    11.874
   9.720        138.33	    12.884
   9.740        118.33	    11.916
   9.760        110.00	    11.489
   9.780        103.33	    11.136
   9.800        118.33	    11.916
   9.820        115.00	    11.747
   9.840        106.67	    11.314
   9.860        117.50	    11.874
   9.880        100.83	    11.000
   9.900        110.83	    11.533
   9.920         91.67	    10.488
   9.940        100.83	    11.000
   9.960        113.33	    11.662
   9.980        104.17	    11.180
  10.000        106.67	    11.314
  10.020         99.17	    10.909
  10.040        102.50	    11.091
  10.060        105.00	    11.225
  10.080         95.00	    10.677
  10.100        105.00	    11.225
  10.120        109.17	    11.446
  10.140        114.17	    11.705
  10.160        112.50	    11.619
  10.180        118.33	    11.916
  10.200        109.17	    11.446
  10.220         88.33	    10.296
  10.240        115.83	    11.790
  10.260        115.83	    11.790
  10.280         97.50	    10.817
  10.300        112.50	    11.619
  10.320        124.17	    12.207
  10.340        122.50	    12.124
  10.360        137.50	    12.845
  10.380        151.67	    13.491
  10.400        190.83	    15.133
  10.420        192.50	    15.199
  10.440        197.50	    15.395
  10.460        156.67	    13.711
  10.480        127.50	    12.369
  10.500         93.33	    10.583
  10.520         99.17	    10.909
  10.540        116.67	    11.832
  10.560        103.33	    11.136
  10.580        110.83	    11.533
  10.600        111.67	    11.576
  10.620         95.00	    10.677
  10.640        100.83	    11.000
  10.660        104.17	    11.180
  10.680         97.50	    10.817
  10.700        103.33	    11.136
  10.720         99.17	    10.909
  10.740        100.00	    10.954
  10.760         93.33	    10.583
  10.780         92.50	    10.536
  10.800         96.67	    10.770
  10.820        100.83	    11.000
  10.840         93.33	    10.583
  10.860         97.50	    10.817
  10.880        105.00	    11.225
  10.900        110.00	    11.489
  10.920        103.33	    11.136
  10.940        103.33	    11.136
  10.960        102.50	    11.091
  10.980        100.00	    10.954
  11.000         95.00	    10.677
  11.020         91.67	    10.488
  11.040         98.33	    10.863
  11.060         99.17	    10.909
  11.080         94.17	    10.630
  11.100         92.50	    10.536
  11.120         95.83	    10.724
  11.140         65.00	     8.832
  11.160        101.67	    11.045
  11.180         88.33	    10.296
  11.200         91.67	    10.488
  11.220         99.17	    10.909
  11.240        104.17	    11.180
  11.260         86.67	    10.198
  11.280        104.17	    11.180
  11.300         93.33	    10.583
  11.320         87.50	    10.247
  11.340         86.67	    10.198
  11.360         80.83	     9.849
  11.380         98.33	    10.863
  11.400         91.67	    10.488
  11.420         77.50	     9.644
  11.440         94.17	    10.630
  11.460         87.50	    10.247
  11.480        103.33	    11.136
  11.500         89.17	    10.344
  11.520         91.67	    10.488
  11.540         98.33	    10.863
  11.560         91.67	    10.488
  11.580         87.50	    10.247
  11.600         93.33	    10.583
  11.620         95.00	    10.677
  11.640        102.50	    11.091
  11.660         92.50	    10.536
  11.680         86.67	    10.198
  11.700         99.17	    10.909
  11.720         85.00	    10.100
  11.740        110.00	    11.489
  11.760         85.83	    10.149
  11.780         92.50	    10.536
  11.800         96.67	    10.770
  11.820         79.17	     9.747
  11.840         97.50	    10.817
  11.860        101.67	    11.045
  11.880         91.67	    10.488
  11.900        103.33	    11.136
  11.920         91.67	    10.488
  11.940         82.50	     9.950
  11.960         96.67	    10.770
  11.980        120.00	    12.000
  12.000        120.83	    12.042
  12.020        138.33	    12.884
  12.040        180.00	    14.697
  12.060        210.83	    15.906
  12.080        265.00	    17.833
  12.100        333.33	    20.000
  12.120        342.50	    20.273
  12.140        275.83	    18.193
  12.160        228.33	    16.553
  12.180        144.17	    13.153
  12.200        163.33	    14.000
  12.220        160.00	    13.856
  12.240        191.67	    15.166
  12.260        223.33	    16.371
  12.280        207.50	    15.780
  12.300        202.50	    15.588
  12.320        192.50	    15.199
  12.340        180.83	    14.731
  12.360        240.83	    17.000
  12.380        267.50	    17.916
  12.400        339.17	    20.174
  12.420        409.17	    22.159
  12.440        330.00	    19.900
  12.460        246.67	    17.205
  12.480        167.50	    14.177
  12.500        147.50	    13.304
  12.520        118.33	    11.916
  12.540        114.17	    11.705
  12.560        106.67	    11.314
  12.580        106.67	    11.314
  12.600         93.33	    10.583
  12.620        101.67	    11.045
  12.640         73.33	     9.381
  12.660         87.50	    10.247
  12.680         94.17	    10.630
  12.700         87.50	    10.247
  12.720         97.50	    10.817
  12.740         93.33	    10.583
  12.760         88.33	    10.296
  12.780         98.33	    10.863
  12.800         74.17	     9.434
  12.820         80.83	     9.849
  12.840         76.67	     9.592
  12.860         90.83	    10.440
  12.880         77.50	     9.644
  12.900         88.33	    10.296
  12.920         79.17	     9.747
  12.940         66.67	     8.944
  12.960         85.00	    10.100
  12.980         90.00	    10.392
  13.000         80.00	     9.798
  13.020         69.17	     9.110
  13.040         70.83	     9.220
  13.060         70.00	     9.165
  13.080         82.50	     9.950
  13.100         90.83	    10.440
  13.120         75.00	     9.487
  13.140         81.67	     9.899
  13.160         90.83	    10.440
  13.180         66.67	     8.944
  13.200         92.50	    10.536
  13.220         76.67	     9.592
  13.240         80.00	     9.798
  13.260         70.83	     9.220
  13.280         75.83	     9.539
  13.300         75.00	     9.487
  13.320         75.00	     9.487
  13.340         80.00	     9.798
  13.360         80.83	     9.849
  13.380         70.00	     9.165
  13.400         62.50	     8.660
  13.420         71.67	     9.274
  13.440         78.33	     9.695
  13.460         66.67	     8.944
  13.480         68.33	     9.055
  13.500         89.17	    10.344
  13.520         76.67	     9.592
  13.540         77.50	     9.644
  13.560         86.67	    10.198
  13.580         72.50	     9.327
  13.600         93.33	    10.583
  13.620         80.83	     9.849
  13.640         83.33	    10.000
  13.660         65.83	     8.888
  13.680         75.00	     9.487
  13.700         74.17	     9.434
  13.720         98.33	    10.863
  13.740         98.33	    10.863
  13.760        120.83	    12.042
  13.780        110.83	    11.533
  13.800         99.17	    10.909
  13.820         89.17	    10.344
  13.840         78.33	     9.695
  13.860         80.83	     9.849
  13.880        103.33	    11.136
  13.900         85.83	    10.149
  13.920         75.83	     9.539
  13.940         85.00	    10.100
  13.960         76.67	     9.592
  13.980         71.67	     9.274
  14.000         85.83	    10.149
  14.020         75.00	     9.487
  14.040         69.17	     9.110
  14.060         75.00	     9.487
  14.080         75.00	     9.487
  14.100         72.50	     9.327
  14.120         70.83	     9.220
  14.140         81.67	     9.899
  14.160         65.83	     8.888
  14.180         60.00	     8.485
  14.200         67.50	     9.000
  14.220         60.00	     8.485
  14.240         73.33	     9.381
  14.260         76.67	     9.592
  14.280         58.33	     8.367
  14.300         64.17	     8.775
  14.320         76.67	     9.592
  14.340         65.83	     8.888
  14.360         75.83	     9.539
  14.380         69.17	     9.110
  14.400         68.33	     9.055
  14.420         71.67	     9.274
  14.440         73.33	     9.381
  14.460         60.83	     8.544
  14.480         73.33	     9.381
  14.500         67.50	     9.000
  14.520         55.83	     8.185
  14.540         61.67	     8.602
  14.560         68.33	     9.055
  14.580         66.67	     8.944
  14.600         76.67	     9.592
  14.620         79.17	     9.747
  14.640         68.33	     9.055
  14.660         71.67	     9.274
  14.680         71.67	     9.274
  14.700         70.00	     9.165
  14.720         58.33	     8.367
  14.740         69.17	     9.110
  14.760         76.67	     9.592
  14.780         63.33	     8.718
  14.800         78.33	     9.695
  14.820         69.17	     9.110
  14.840         80.00	     9.798
  14.860         78.33	     9.695
  14.880         77.50	     9.644
  14.900         66.67	     8.944
  14.920         73.33	     9.381
  14.940         88.33	    10.296
  14.960         53.33	     8.000
  14.980         70.83	     9.220
  15.000         78.33	     9.695
  15.020         84.17	    10.050
  15.040         56.67	     8.246
  15.060         67.50	     9.000
  15.080         70.00	     9.165
  15.100         60.83	     8.544
  15.120         73.33	     9.381
  15.140         63.33	     8.718
  15.160         53.33	     8.000
  15.180         68.33	     9.055
  15.200         65.83	     8.888
  15.220         71.67	     9.274
  15.240         70.00	     9.165
  15.260         66.67	     8.944
  15.280         57.50	     8.307
  15.300         54.17	     8.062
  15.320         68.33	     9.055
  15.340         80.00	     9.798
  15.360         77.50	     9.644
  15.380         58.33	     8.367
  15.400         69.17	     9.110
  15.420         66.67	     8.944
  15.440         55.83	     8.185
  15.460         63.33	     8.718
  15.480         74.17	     9.434
  15.500         59.17	     8.426
  15.520         70.00	     9.165
  15.540         55.00	     8.124
  15.560         65.83	     8.888
  15.580         46.67	     7.483
  15.600         74.17	     9.434
  15.620         56.67	     8.246
  15.640         75.00	     9.487
  15.660         60.00	     8.485
  15.680         55.83	     8.185
  15.700         65.83	     8.888
  15.720         78.33	     9.695
  15.740         80.83	     9.849
  15.760         82.50	     9.950
  15.780         80.83	     9.849
  15.800         74.17	     9.434
  15.820         60.83	     8.544
  15.840         70.83	     9.220
  15.860         59.17	     8.426
  15.880         54.17	     8.062
  15.900         70.83	     9.220
  15.920         62.50	     8.660
  15.940         79.17	     9.747
  15.960         59.17	     8.426
  15.980         64.17	     8.775
  16.000         60.83	     8.544
  16.020         63.33	     8.718
  16.040         58.33	     8.367
  16.060         53.33	     8.000
  16.080         58.33	     8.367
  16.100         63.33	     8.718
  16.120         55.83	     8.185
  16.140         56.67	     8.246
  16.160         47.50	     7.550
  16.180         56.67	     8.246
  16.200         63.33	     8.718
  16.220         60.00	     8.485
  16.240         68.33	     9.055
  16.260         58.33	     8.367
  16.280         63.33	     8.718
  16.300         82.50	     9.950
  16.320         53.33	     8.000
  16.340         50.00	     7.746
  16.360         71.67	     9.274
  16.380         77.50	     9.644
  16.400         76.67	     9.592
  16.420         59.17	     8.426
  16.440         53.33	     8.000
  16.460         55.83	     8.185
  16.480         66.67	     8.944
  16.500         60.00	     8.485
  16.520         56.67	     8.246
  16.540         46.67	     7.483
  16.560         62.50	     8.660
  16.580         54.17	     8.062
  16.600         63.33	     8.718
  16.620         52.50	     7.937
  16.640         63.33	     8.718
  16.660         48.33	     7.616
  16.680         56.67	     8.246
  16.700         52.50	     7.937
  16.720         65.83	     8.888
  16.740         63.33	     8.718
  16.760         60.00	     8.485
  16.780         65.00	     8.832
  16.800         65.83	     8.888
  16.820         55.83	     8.185
  16.840         50.00	     7.746
  16.860         56.67	     8.246
  16.880         50.00	     7.746
  16.900         55.00	     8.124
  16.920         47.50	     7.550
  16.940         62.50	     8.660
  16.960         56.67	     8.246
  16.980         58.33	     8.367
  17.000         60.00	     8.485
  17.020         60.83	     8.544
  17.040         65.83	     8.888
  17.060         56.67	     8.246
  17.080         60.83	     8.544
  17.100         58.33	     8.367
  17.120         61.67	     8.602
  17.140         57.50	     8.307
  17.160         55.00	     8.124
  17.180         52.50	     7.937
  17.200         61.67	     8.602
  17.220         53.33	     8.000
  17.240         60.00	     8.485
  17.260         63.33	     8.718
  17.280         58.33	     8.367
  17.300         65.00	     8.832
  17.320         67.50	     9.000
  17.340         62.50	     8.660
  17.360         55.00	     8.124
  17.380         71.67	     9.274
  17.400         62.50	     8.660
  17.420         54.17	     8.062
  17.440         67.50	     9.000
  17.460         66.67	     8.944
  17.480         57.50	     8.307
  17.500         63.33	     8.718
  17.520         60.83	     8.544
  17.540         65.83	     8.888
  17.560         71.67	     9.274
  17.580         70.00	     9.165
  17.600         67.50	     9.000
  17.620         80.83	     9.849
  17.640        105.83	    11.269
  17.660        135.83	    12.767
  17.680        154.17	    13.601
  17.700        191.67	    15.166
  17.720        254.17	    17.464
  17.740        236.67	    16.852
  17.760        241.67	    17.029
  17.780        193.33	    15.232
  17.800        145.00	    13.191
  17.820        120.00	    12.000
  17.840        110.00	    11.489
  17.860         69.17	     9.110
  17.880         66.67	     8.944
  17.900         58.33	     8.367
  17.920         66.67	     8.944
  17.940         72.50	     9.327
  17.960         50.00	     7.746
  17.980         70.00	     9.165
  18.000         51.67	     7.874
  18.020         62.50	     8.660
  18.040         47.50	     7.550
  18.060         57.50	     8.307
  18.080         64.17	     8.775
  18.100         67.50	     9.000
  18.120         57.50	     8.307
  18.140         57.50	     8.307
  18.160         50.83	     7.810
  18.180         57.50	     8.307
  18.200         50.83	     7.810
  18.220         65.00	     8.832
  18.240         70.83	     9.220
  18.260         58.33	     8.367
  18.280         82.50	     9.950
  18.300         61.67	     8.602
  18.320         67.50	     9.000
  18.340         87.50	    10.247
  18.360         81.67	     9.899
  18.380         71.67	     9.274
  18.400         73.33	     9.381
  18.420         89.17	    10.344
  18.440         76.67	     9.592
  18.460        113.33	    11.662
  18.480        105.83	    11.269
  18.500        102.50	    11.091
  18.520         80.00	     9.798
  18.540         84.17	    10.050
  18.560         82.50	     9.950
  18.580         74.17	     9.434
  18.600         94.17	    10.630
  18.620         84.17	    10.050
  18.640        105.00	    11.225
  18.660        135.83	    12.767
  18.680        155.00	    13.638
  18.700        170.00	    14.283
  18.720        167.50	    14.177
  18.740        152.50	    13.528
  18.760        116.67	    11.832
  18.780        113.33	    11.662
  18.800         75.00	     9.487
  18.820         71.67	     9.274
  18.840         63.33	     8.718
  18.860         60.00	     8.485
  18.880         70.83	     9.220
  18.900         70.83	     9.220
  18.920         64.17	     8.775
  18.940         67.50	     9.000
  18.960         69.17	     9.110
  18.980         45.00	     7.348
  19.000         61.67	     8.602
  19.020         65.83	     8.888
  19.040         63.33	     8.718
  19.060         58.33	     8.367
  19.080         63.33	     8.718
  19.100         67.50	     9.000
  19.120         71.67	     9.274
  19.140         61.67	     8.602
  19.160         53.33	     8.000
  19.180         72.50	     9.327
  19.200         65.83	     8.888
  19.220         63.33	     8.718
  19.240         70.83	     9.220
  19.260         67.50	     9.000
  19.280         68.33	     9.055
  19.300         52.50	     7.937
  19.320         60.00	     8.485
  19.340         58.33	     8.367
  19.360         50.83	     7.810
  19.380         55.83	     8.185
  19.400         70.83	     9.220
  19.420         45.00	     7.348
  19.440         75.83	     9.539
  19.460         68.33	     9.055
  19.480         66.67	     8.944
  19.500         66.67	     8.944
  19.520         50.83	     7.810
  19.540         63.33	     8.718
  19.560         51.67	     7.874
  19.580         45.00	     7.348
  19.600         65.83	     8.888
  19.620         92.50	    10.536
  19.640         80.83	     9.849
  19.660         80.00	     9.798
  19.680         84.17	    10.050
  19.700         97.50	    10.817
  19.720         97.50	    10.817
  19.740         90.00	    10.392
  19.760         91.67	    10.488
  19.780         86.67	    10.198
  19.800         92.50	    10.536
  19.820         92.50	    10.536
  19.840         80.83	     9.849
  19.860         70.00	     9.165
  19.880         80.00	     9.798
  19.900         72.50	     9.327
  19.920         77.50	     9.644
  19.940         68.33	     9.055
  19.960         68.33	     9.055
  19.980         59.17	     8.426
  20.000         60.83	     8.544
  20.020         50.00	     7.746
  20.040         67.50	     9.000
  20.060         55.00	     8.124
  20.080         54.17	     8.062
  20.100         66.67	     8.944
  20.120         61.67	     8.602
  20.140         52.50	     7.937
  20.160         62.50	     8.660
  20.180         47.50	     7.550
  20.200         71.67	     9.274
  20.220         62.50	     8.660
  20.240         50.00	     7.746
  20.260         64.17	     8.775
  20.280         54.17	     8.062
  20.300         54.17	     8.062
  20.320         62.50	     8.660
  20.340         60.00	     8.485
  20.360         60.00	     8.485
  20.380         46.67	     7.483
  20.400         68.33	     9.055
  20.420         54.17	     8.062
  20.440         55.00	     8.124
  20.460         51.67	     7.874
  20.480         61.67	     8.602
  20.500         67.50	     9.000
  20.520         70.00	     9.165
  20.540         65.00	     8.832
  20.560         64.17	     8.775
  20.580         75.00	     9.487
  20.600         78.33	     9.695
  20.620         85.83	    10.149
  20.640         84.17	    10.050
  20.660         90.00	    10.392
  20.680         87.50	    10.247
  20.700        139.17	    12.923
  20.720        196.67	    15.362
  20.740        363.33	    20.881
  20.760        605.83	    26.963
  20.780        894.17	    32.757
  20.800        853.33	    32.000
  20.820        560.83	    25.942
  20.840        440.83	    23.000
  20.860        322.50	    19.672
  20.880        157.50	    13.748
  20.900         98.33	    10.863
  20.920         96.67	    10.770
  20.940        100.00	    10.954
  20.960         93.33	    10.583
  20.980         89.17	    10.344
  21.000         94.17	    10.630
  21.020         81.67	     9.899
  21.040         82.50	     9.950
  21.060         80.00	     9.798
  21.080         75.83	     9.539
  21.100         56.67	     8.246
  21.120         64.17	     8.775
  21.140         53.33	     8.000
  21.160         53.33	     8.000
  21.180         58.33	     8.367
  21.200         57.50	     8.307
  21.220         52.50	     7.937
  21.240         54.17	     8.062
  21.260         55.83	     8.185
  21.280         63.33	     8.718
  21.300         58.33	     8.367
  21.320         57.50	     8.307
  21.340         61.67	     8.602
  21.360         60.00	     8.485
  21.380         43.33	     7.211
  21.400         55.83	     8.185
  21.420         60.83	     8.544
  21.440         59.17	     8.426
  21.460         50.83	     7.810
  21.480         60.00	     8.485
  21.500         56.67	     8.246
  21.520         68.33	     9.055
  21.540         52.50	     7.937
  21.560         70.00	     9.165
  21.580         60.83	     8.544
  21.600         65.00	     8.832
  21.620         52.50	     7.937
  21.640         60.00	     8.485
  21.660         53.33	     8.000
  21.680         57.50	     8.307
  21.700         49.17	     7.681
  21.720         60.83	     8.544
  21.740         59.17	     8.426
  21.760         53.33	     8.000
  21.780         57.50	     8.307
  21.800         64.17	     8.775
  21.820         62.50	     8.660
  21.840         77.50	     9.644
  21.860         62.50	     8.660
  21.880         76.67	     9.592
  21.900        100.83	    11.000
  21.920        141.67	    13.038
  21.940        170.00	    14.283
  21.960        175.83	    14.526
  21.980        162.50	    13.964
  22.000        150.83	    13.454
  22.020        147.50	    13.304
  22.040         95.00	    10.677
  22.060        102.50	    11.091
  22.080         68.33	     9.055
  22.100         68.33	     9.055
  22.120         60.00	     8.485
  22.140         75.00	     9.487
  22.160         56.67	     8.246
  22.180         55.83	     8.185
  22.200         55.00	     8.124
  22.220         59.17	     8.426
  22.240         65.00	     8.832
  22.260         60.00	     8.485
  22.280         52.50	     7.937
  22.300         56.67	     8.246
  22.320         60.00	     8.485
  22.340         45.83	     7.416
  22.360         58.33	     8.367
  22.380         59.17	     8.426
  22.400         61.67	     8.602
  22.420         61.67	     8.602
  22.440         73.33	     9.381
  22.460         67.50	     9.000
  22.480         62.50	     8.660
  22.500         64.17	     8.775
  22.520         58.33	     8.367
  22.540         59.17	     8.426
  22.560         55.00	     8.124
  22.580         65.00	     8.832
  22.600         56.67	     8.246
  22.620         50.83	     7.810
  22.640         57.50	     8.307
  22.660         59.17	     8.426
  22.680         72.50	     9.327
  22.700         71.67	     9.274
  22.720         80.00	     9.798
  22.740         79.17	     9.747
  22.760         77.50	     9.644
  22.780         94.17	    10.630
  22.800        105.83	    11.269
  22.820         82.50	     9.950
  22.840         74.17	     9.434
  22.860         75.00	     9.487
  22.880         60.00	     8.485
  22.900         71.67	     9.274
  22.920         80.00	     9.798
  22.940         74.17	     9.434
  22.960        104.17	    11.180
  22.980         89.17	    10.344
  23.000         73.33	     9.381
  23.020         88.33	    10.296
  23.040         60.00	     8.485
  23.060         65.00	     8.832
  23.080         63.33	     8.718
  23.100         60.83	     8.544
  23.120         62.50	     8.660
  23.140         65.83	     8.888
  23.160         46.67	     7.483
  23.180         58.33	     8.367
  23.200         59.17	     8.426
  23.220         65.83	     8.888
  23.240         59.17	     8.426
  23.260         51.67	     7.874
  23.280         58.33	     8.367
  23.300         60.83	     8.544
  23.320         57.50	     8.307
  23.340         67.50	     9.000
  23.360         79.17	     9.747
  23.380         89.17	    10.344
  23.400        101.67	    11.045
  23.420        110.00	    11.489
  23.440        173.33	    14.422
  23.460        173.33	    14.422
  23.480        165.00	    14.071
  23.500        140.00	    12.961
  23.520        152.50	    13.528
  23.540        101.67	    11.045
  23.560        102.50	    11.091
  23.580         88.33	    10.296
  23.600         63.33	     8.718
  23.620         66.67	     8.944
  23.640         72.50	     9.327
  23.660         71.67	     9.274
  23.680         84.17	    10.050
  23.700         75.83	     9.539
  23.720         76.67	     9.592
  23.740         72.50	     9.327
  23.760         82.50	     9.950
  23.780         71.67	     9.274
  23.800         74.17	     9.434
  23.820         81.67	     9.899
  23.840         68.33	     9.055
  23.860         75.00	     9.487
  23.880         63.33	     8.718
  23.900         80.00	     9.798
  23.920         76.67	     9.592
  23.940         99.17	    10.909
  23.960         97.50	    10.817
  23.980         88.33	    10.296
  24.000         67.50	     9.000
  24.020         95.83	    10.724
  24.040        101.67	    11.045
  24.060        119.17	    11.958
  24.080         95.83	    10.724
  24.100        103.33	    11.136
  24.120        113.33	    11.662
  24.140        110.00	    11.489
  24.160        100.00	    10.954
  24.180        139.17	    12.923
  24.200        130.83	    12.530
  24.220        148.33	    13.342
  24.240        151.67	    13.491
  24.260        142.50	    13.077
  24.280        109.17	    11.446
  24.300         84.17	    10.050
  24.320         88.33	    10.296
  24.340         76.67	     9.592
  24.360         84.17	    10.050
  24.380         76.67	     9.592
  24.400         90.00	    10.392
  24.420        101.67	    11.045
  24.440        139.17	    12.923
  24.460        140.83	    13.000
  24.480        182.50	    14.799
  24.500        197.50	    15.395
  24.520        233.33	    16.733
  24.540        218.33	    16.186
  24.560        209.17	    15.843
  24.580        154.17	    13.601
  24.600        179.17	    14.663
  24.620        130.00	    12.490
  24.640        109.17	    11.446
  24.660        133.33	    12.649
  24.680        111.67	    11.576
  24.700         95.83	    10.724
  24.720        122.50	    12.124
  24.740        129.17	    12.450
  24.760        139.17	    12.923
  24.780        124.17	    12.207
  24.800        127.50	    12.369
  24.820        130.00	    12.490
  24.840        100.00	    10.954
  24.860        120.00	    12.000
  24.880        101.67	    11.045
  24.900        113.33	    11.662
  24.920         88.33	    10.296
  24.940         95.83	    10.724
  24.960        114.17	    11.705
  24.980        129.17	    12.450
  25.000        153.33	    13.565
  25.020        204.17	    15.652
  25.040        253.33	    17.436
  25.060        251.67	    17.378
  25.080        240.83	    17.000
  25.100        235.00	    16.793
  25.120        205.83	    15.716
  25.140        168.33	    14.213
  25.160        130.83	    12.530
  25.180        123.33	    12.166
  25.200        110.83	    11.533
  25.220         75.00	     9.487
  25.240         85.83	    10.149
  25.260        100.00	    10.954
  25.280        103.33	    11.136
  25.300        134.17	    12.689
  25.320        130.83	    12.530
  25.340        118.33	    11.916
  25.360        121.67	    12.083
  25.380        135.00	    12.728
  25.400        140.00	    12.961
  25.420        149.17	    13.379
  25.440        175.83	    14.526
  25.460        175.00	    14.491
  25.480        161.67	    13.928
  25.500        159.17	    13.820
  25.520        147.50	    13.304
  25.540        153.33	    13.565
  25.560        142.50	    13.077
  25.580        123.33	    12.166
  25.600        156.67	    13.711
  25.620        116.67	    11.832
  25.640         91.67	    10.488
  25.660         78.33	     9.695
  25.680         77.50	     9.644
  25.700         74.17	     9.434
  25.720         72.50	     9.327
  25.740         76.67	     9.592
  25.760         71.67	     9.274
  25.780         62.50	     8.660
  25.800         70.83	     9.220
  25.820         54.17	     8.062
  25.840         49.17	     7.681
  25.860         74.17	     9.434
  25.880         80.00	     9.798
  25.900         60.00	     8.485
  25.920         63.33	     8.718
  25.940         72.50	     9.327
  25.960         70.00	     9.165
  25.980         81.67	     9.899
  26.000         59.17	     8.426
  26.020         64.17	     8.775
  26.040         80.00	     9.798
  26.060         88.33	    10.296
  26.080         75.83	     9.539
  26.100         90.00	    10.392
  26.120         70.83	     9.220
  26.140         75.83	     9.539
  26.160         98.33	    10.863
  26.180         84.17	    10.050
  26.200         85.00	    10.100
  26.220        105.83	    11.269
  26.240        110.83	    11.533
  26.260        136.67	    12.806
  26.280        133.33	    12.649
  26.300        178.33	    14.629
  26.320        181.67	    14.765
  26.340        173.33	    14.422
  26.360        188.33	    15.033
  26.380        185.00	    14.900
  26.400        237.50	    16.882
  26.420        250.83	    17.349
  26.440        300.83	    19.000
  26.460        328.33	    19.849
  26.480        518.33	    24.940
  26.500        900.00	    32.863
  26.520       1690.83	    45.044
  26.540       2785.00	    57.810
  26.560       2897.50	    58.966
  26.580       2217.50	    51.585
  26.600       1755.83	    45.902
  26.620       1631.67	    44.249
  26.640       1280.00	    39.192
  26.660        678.33	    28.531
  26.680        439.17	    22.956
  26.700        397.50	    21.840
  26.720        463.33	    23.580
  26.740        565.00	    26.038
  26.760        615.00	    27.166
  26.780        677.50	    28.513
  26.800        651.67	    27.964
  26.820        615.83	    27.185
  26.840        558.33	    25.884
  26.860        438.33	    22.935
  26.880        379.17	    21.331
  26.900        254.17	    17.464
  26.920        197.50	    15.395
  26.940        164.17	    14.036
  26.960        161.67	    13.928
  26.980        140.00	    12.961
  27.000        118.33	    11.916
  27.020        115.00	    11.747
  27.040        105.83	    11.269
  27.060        102.50	    11.091
  27.080         97.50	    10.817
  27.100         76.67	     9.592
  27.120         80.00	     9.798
  27.140         88.33	    10.296
  27.160         88.33	    10.296
  27.180         77.50	     9.644
  27.200         63.33	     8.718
  27.220         92.50	    10.536
  27.240         76.67	     9.592
  27.260         85.00	    10.100
  27.280         85.00	    10.100
  27.300         83.33	    10.000
  27.320         95.83	    10.724
  27.340         93.33	    10.583
  27.360        124.17	    12.207
  27.380        182.50	    14.799
  27.400        219.17	    16.217
  27.420        332.50	    19.975
  27.440        379.17	    21.331
  27.460        284.17	    18.466
  27.480        220.83	    16.279
  27.500        246.67	    17.205
  27.520        162.50	    13.964
  27.540        140.83	    13.000
  27.560        122.50	    12.124
  27.580        154.17	    13.601
  27.600        362.50	    20.857
  27.620        507.50	    24.678
  27.640        475.83	    23.896
  27.660        297.50	    18.894
  27.680        368.33	    21.024
  27.700        355.83	    20.664
  27.720        299.17	    18.947
  27.740        260.83	    17.692
  27.760        291.67	    18.708
  27.780        362.50	    20.857
  27.800        542.50	    25.515
  27.820        630.00	    27.495
  27.840        817.50	    31.321
  27.860        805.00	    31.081
  27.880        683.33	    28.636
  27.900        575.00	    26.268
  27.920        467.50	    23.685
  27.940        367.50	    21.000
  27.960        236.67	    16.852
  27.980        180.00	    14.697
  28.000        160.00	    13.856
  28.020        140.83	    13.000
  28.040        149.17	    13.379
  28.060        130.00	    12.490
  28.080        140.00	    12.961
  28.100        112.50	    11.619
  28.120        118.33	    11.916
  28.140        105.00	    11.225
  28.160        111.67	    11.576
  28.180        102.50	    11.091
  28.200        132.50	    12.610
  28.220        120.83	    12.042
  28.240        124.17	    12.207
  28.260        124.17	    12.207
  28.280         90.83	    10.440
  28.300        109.17	    11.446
  28.320         95.00	    10.677
  28.340         77.50	     9.644
  28.360         72.50	     9.327
  28.380         72.50	     9.327
  28.400         69.17	     9.110
  28.420         91.67	    10.488
  28.440         70.83	     9.220
  28.460         90.00	    10.392
  28.480        101.67	    11.045
  28.500        110.83	    11.533
  28.520        115.83	    11.790
  28.540        141.67	    13.038
  28.560        145.83	    13.229
  28.580        151.67	    13.491
  28.600        113.33	    11.662
  28.620        137.50	    12.845
  28.640        139.17	    12.923
  28.660        110.83	    11.533
  28.680        110.83	    11.533
  28.700        105.83	    11.269
  28.720         84.17	    10.050
  28.740         75.00	     9.487
  28.760         70.00	     9.165
  28.780         66.67	     8.944
  28.800         66.67	     8.944
  28.820         57.50	     8.307
  28.840         59.17	     8.426
  28.860         53.33	     8.000
  28.880         50.83	     7.810
  28.900         50.00	     7.746
  28.920         48.33	     7.616
  28.940         55.00	     8.124
  28.960         59.17	     8.426
  28.980         55.00	     8.124
  29.000         57.50	     8.307
  29.020         45.83	     7.416
  29.040         75.00	     9.487
  29.060         44.17	     7.280
  29.080         52.50	     7.937
  29.100         49.17	     7.681
  29.120         51.67	     7.874
  29.140         53.33	     8.000
  29.160         50.00	     7.746
  29.180         43.33	     7.211
  29.200         57.50	     8.307
  29.220         46.67	     7.483
  29.240         48.33	     7.616
  29.260         44.17	     7.280
  29.280         56.67	     8.246
  29.300         50.00	     7.746
  29.320         48.33	     7.616
  29.340         65.00	     8.832
  29.360         58.33	     8.367
  29.380         55.83	     8.185
  29.400         54.17	     8.062
  29.420         53.33	     8.000
  29.440         70.83	     9.220
  29.460         55.00	     8.124
  29.480         52.50	     7.937
  29.500         58.33	     8.367
  29.520         50.83	     7.810
  29.540         53.33	     8.000
  29.560         52.50	     7.937
  29.580         60.00	     8.485
  29.600         56.67	     8.246
  29.620         54.17	     8.062
  29.640         67.50	     9.000
  29.660         65.83	     8.888
  29.680         90.83	    10.440
  29.700         85.83	    10.149
  29.720         95.83	    10.724
  29.740        103.33	    11.136
  29.760        114.17	    11.705
  29.780         91.67	    10.488
  29.800        115.83	    11.790
  29.820        135.00	    12.728
  29.840        119.17	    11.958
  29.860        103.33	    11.136
  29.880         95.83	    10.724
  29.900         80.83	     9.849
  29.920         82.50	     9.950
  29.940         77.50	     9.644
  29.960         87.50	    10.247
  29.980        100.00	    10.954
  30.000        105.00	    11.225
  30.020        101.67	    11.045
  30.040        105.00	    11.225
  30.060         86.67	    10.198
  30.080         88.33	    10.296
  30.100         83.33	    10.000
  30.120         74.17	     9.434
  30.140         90.83	    10.440
  30.160         95.00	    10.677
  30.180         89.17	    10.344
  30.200         71.67	     9.274
  30.220         85.00	    10.100
  30.240         76.67	     9.592
  30.260         87.50	    10.247
  30.280         99.17	    10.909
  30.300        104.17	    11.180
  30.320         92.50	    10.536
  30.340         99.17	    10.909
  30.360        100.83	    11.000
  30.380        102.50	    11.091
  30.400        130.83	    12.530
  30.420        135.00	    12.728
  30.440        115.00	    11.747
  30.460        117.50	    11.874
  30.480         90.00	    10.392
  30.500         80.00	     9.798
  30.520         95.83	    10.724
  30.540         77.50	     9.644
  30.560         59.17	     8.426
  30.580         60.00	     8.485
  30.600         59.17	     8.426
  30.620         57.50	     8.307
  30.640         87.50	    10.247
  30.660         78.33	     9.695
  30.680        103.33	    11.136
  30.700         92.50	    10.536
  30.720        102.50	    11.091
  30.740        114.17	    11.705
  30.760        118.33	    11.916
  30.780        147.50	    13.304
  30.800        162.50	    13.964
  30.820        125.83	    12.288
  30.840        114.17	    11.705
  30.860         95.00	    10.677
  30.880        104.17	    11.180
  30.900         74.17	     9.434
  30.920         69.17	     9.110
  30.940         72.50	     9.327
  30.960         69.17	     9.110
  30.980         80.00	     9.798
  31.000         75.00	     9.487
  31.020         73.33	     9.381
  31.040         69.17	     9.110
  31.060         77.50	     9.644
  31.080         96.67	    10.770
  31.100        105.00	    11.225
  31.120        112.50	    11.619
  31.140        106.67	    11.314
  31.160         96.67	    10.770
  31.180        112.50	    11.619
  31.200         98.33	    10.863
  31.220        104.17	    11.180
  31.240         89.17	    10.344
  31.260         85.83	    10.149
  31.280         76.67	     9.592
  31.300         64.17	     8.775
  31.320         60.00	     8.485
  31.340         60.83	     8.544
  31.360         61.67	     8.602
  31.380         60.00	     8.485
  31.400         64.17	     8.775
  31.420         54.17	     8.062
  31.440         83.33	    10.000
  31.460         78.33	     9.695
  31.480         89.17	    10.344
  31.500         78.33	     9.695
  31.520         70.83	     9.220
  31.540         66.67	     8.944
  31.560         59.17	     8.426
  31.580         60.00	     8.485
  31.600         60.00	     8.485
  31.620         76.67	     9.592
  31.640         49.17	     7.681
  31.660         45.83	     7.416
  31.680         50.00	     7.746
  31.700         62.50	     8.660
  31.720         45.00	     7.348
  31.740         48.33	     7.616
  31.760         45.00	     7.348
  31.780         54.17	     8.062
  31.800         46.67	     7.483
  31.820         65.83	     8.888
  31.840         66.67	     8.944
  31.860         64.17	     8.775
  31.880         55.83	     8.185
  31.900         55.83	     8.185
  31.920         73.33	     9.381
  31.940         72.50	     9.327
  31.960         82.50	     9.950
  31.980         60.83	     8.544
  32.000         70.00	     9.165
  32.020         61.67	     8.602
  32.040         60.00	     8.485
  32.060         54.17	     8.062
  32.080         60.00	     8.485
  32.100         74.17	     9.434
  32.120         69.17	     9.110
  32.140         65.00	     8.832
  32.160         55.83	     8.185
  32.180         64.17	     8.775
  32.200         62.50	     8.660
  32.220         54.17	     8.062
  32.240         54.17	     8.062
  32.260         61.67	     8.602
  32.280         59.17	     8.426
  32.300         53.33	     8.000
  32.320         48.33	     7.616
  32.340         51.67	     7.874
  32.360         44.17	     7.280
  32.380         56.67	     8.246
  32.400         43.33	     7.211
  32.420         41.67	     7.071
  32.440         51.67	     7.874
  32.460         41.67	     7.071
  32.480         44.17	     7.280
  32.500         43.33	     7.211
  32.520         41.67	     7.071
  32.540         34.17	     6.403
  32.560         36.67	     6.633
  32.580         43.33	     7.211
  32.600         47.50	     7.550
  32.620         42.50	     7.141
  32.640         36.67	     6.633
  32.660         37.50	     6.708
  32.680         45.83	     7.416
  32.700         42.50	     7.141
  32.720         52.50	     7.937
  32.740         32.50	     6.245
  32.760         40.00	     6.928
  32.780         49.17	     7.681
  32.800         50.83	     7.810
  32.820         35.83	     6.557
  32.840         46.67	     7.483
  32.860         35.83	     6.557
  32.880         45.00	     7.348
  32.900         49.17	     7.681
  32.920         60.00	     8.485
  32.940         61.67	     8.602
  32.960         62.50	     8.660
  32.980         72.50	     9.327
  33.000         74.17	     9.434
  33.020         55.00	     8.124
  33.040         51.67	     7.874
  33.060         54.17	     8.062
  33.080         45.83	     7.416
  33.100         45.83	     7.416
  33.120         37.50	     6.708
  33.140         44.17	     7.280
  33.160         34.17	     6.403
  33.180         33.33	     6.325
  33.200         30.83	     6.083
  33.220         50.83	     7.810
  33.240         47.50	     7.550
  33.260         54.17	     8.062
  33.280         54.17	     8.062
  33.300         57.50	     8.307
  33.320         45.83	     7.416
  33.340         50.83	     7.810
  33.360         55.83	     8.185
  33.380         70.83	     9.220
  33.400         45.83	     7.416
  33.420         59.17	     8.426
  33.440         50.83	     7.810
  33.460         55.83	     8.185
  33.480         49.17	     7.681
  33.500         47.50	     7.550
  33.520         45.83	     7.416
  33.540         38.33	     6.782
  33.560         40.83	     7.000
  33.580         43.33	     7.211
  33.600         44.17	     7.280
  33.620         41.67	     7.071
  33.640         42.50	     7.141
  33.660         45.00	     7.348
  33.680         60.83	     8.544
  33.700         57.50	     8.307
  33.720         69.17	     9.110
  33.740        100.00	    10.954
  33.760        107.50	    11.358
  33.780         92.50	    10.536
  33.800         69.17	     9.110
  33.820         72.50	     9.327
  33.840         81.67	     9.899
  33.860         81.67	     9.899
  33.880         81.67	     9.899
  33.900         67.50	     9.000
  33.920         56.67	     8.246
  33.940         54.17	     8.062
  33.960         52.50	     7.937
  33.980         53.33	     8.000
  34.000         60.83	     8.544
  34.020         71.67	     9.274
  34.040         54.17	     8.062
  34.060         54.17	     8.062
  34.080         45.00	     7.348
  34.100         68.33	     9.055
  34.120         55.83	     8.185
  34.140         49.17	     7.681
  34.160         54.17	     8.062
  34.180         58.33	     8.367
  34.200         49.17	     7.681
  34.220         55.83	     8.185
  34.240         65.00	     8.832
  34.260         55.00	     8.124
  34.280         53.33	     8.000
  34.300         80.83	     9.849
  34.320         60.83	     8.544
  34.340         69.17	     9.110
  34.360         87.50	    10.247
  34.380         82.50	     9.950
  34.400         84.17	    10.050
  34.420         70.83	     9.220
  34.440         83.33	    10.000
  34.460        100.83	    11.000
  34.480         94.17	    10.630
  34.500        126.67	    12.329
  34.520        101.67	    11.045
  34.540        115.00	    11.747
  34.560         85.00	    10.100
  34.580        100.83	    11.000
  34.600         67.50	     9.000
  34.620         85.00	    10.100
  34.640         65.83	     8.888
  34.660         65.83	     8.888
  34.680         70.83	     9.220
  34.700         82.50	     9.950
  34.720         90.00	    10.392
  34.740         73.33	     9.381
  34.760         79.17	     9.747
  34.780         78.33	     9.695
  34.800         97.50	    10.817
  34.820         94.17	    10.630
  34.840        160.00	    13.856
  34.860        248.33	    17.263
  34.880        195.83	    15.330
  34.900        137.50	    12.845
  34.920        146.67	    13.266
  34.940        203.33	    15.620
  34.960        197.50	    15.395
  34.980        121.67	    12.083
  35.000        130.83	    12.530
  35.020        105.00	    11.225
  35.040         90.00	    10.392
  35.060         94.17	    10.630
  35.080         87.50	    10.247
  35.100         74.17	     9.434
  35.120         61.67	     8.602
  35.140         72.50	     9.327
  35.160         81.67	     9.899
  35.180         68.33	     9.055
  35.200         69.17	     9.110
  35.220         77.50	     9.644
  35.240         75.83	     9.539
  35.260         84.17	    10.050
  35.280         68.33	     9.055
  35.300         76.67	     9.592
  35.320         68.33	     9.055
  35.340         78.33	     9.695
  35.360         84.17	    10.050
  35.380         99.17	    10.909
  35.400         94.17	    10.630
  35.420        105.00	    11.225
  35.440         96.67	    10.770
  35.460        130.83	    12.530
  35.480        144.17	    13.153
  35.500        122.50	    12.124
  35.520        145.83	    13.229
  35.540        158.33	    13.784
  35.560        137.50	    12.845
  35.580        126.67	    12.329
  35.600         87.50	    10.247
  35.620         79.17	     9.747
  35.640         91.67	    10.488
  35.660        104.17	    11.180
  35.680         71.67	     9.274
  35.700         69.17	     9.110
  35.720         75.00	     9.487
  35.740         64.17	     8.775
  35.760         73.33	     9.381
  35.780         69.17	     9.110
  35.800         58.33	     8.367
  35.820         48.33	     7.616
  35.840         77.50	     9.644
  35.860         47.50	     7.550
  35.880         81.67	     9.899
  35.900         63.33	     8.718
  35.920         69.17	     9.110
  35.940         65.83	     8.888
  35.960         85.00	    10.100
  35.980         81.67	     9.899
  36.000        102.50	    11.091
  36.020         83.33	    10.000
  36.040         90.83	    10.440
  36.060         80.83	     9.849
  36.080         79.17	     9.747
  36.100         73.33	     9.381
  36.120         64.17	     8.775
  36.140         66.67	     8.944
  36.160         67.50	     9.000
  36.180         54.17	     8.062
  36.200         45.00	     7.348
  36.220         52.50	     7.937
  36.240         65.00	     8.832
  36.260         50.00	     7.746
  36.280         48.33	     7.616
  36.300         55.83	     8.185
  36.320         58.33	     8.367
  36.340         69.17	     9.110
  36.360         89.17	    10.344
  36.380         91.67	    10.488
  36.400         86.67	    10.198
  36.420        171.67	    14.353
  36.440        226.67	    16.492
  36.460        239.17	    16.941
  36.480        215.83	    16.093
  36.500        138.33	    12.884
  36.520        140.00	    12.961
  36.540        137.50	    12.845
  36.560        162.50	    13.964
  36.580        150.00	    13.416
  36.600        130.83	    12.530
  36.620         95.00	    10.677
  36.640        105.83	    11.269
  36.660        116.67	    11.832
  36.680         90.83	    10.440
  36.700         97.50	    10.817
  36.720         74.17	     9.434
  36.740         74.17	     9.434
  36.760         73.33	     9.381
  36.780         70.00	     9.165
  36.800         55.00	     8.124
  36.820         67.50	     9.000
  36.840         57.50	     8.307
  36.860         69.17	     9.110
  36.880         55.00	     8.124
  36.900         63.33	     8.718
  36.920         41.67	     7.071
  36.940         61.67	     8.602
  36.960         53.33	     8.000
  36.980         60.00	     8.485
  37.000         50.83	     7.810
  37.020         53.33	     8.000
  37.040         40.00	     6.928
  37.060         50.00	     7.746
  37.080         47.50	     7.550
  37.100         42.50	     7.141
  37.120         43.33	     7.211
  37.140         49.17	     7.681
  37.160         45.00	     7.348
  37.180         62.50	     8.660
  37.200         55.83	     8.185
  37.220         56.67	     8.246
  37.240         55.83	     8.185
  37.260         60.83	     8.544
  37.280         67.50	     9.000
  37.300         75.00	     9.487
  37.320         62.50	     8.660
  37.340         62.50	     8.660
  37.360         80.00	     9.798
  37.380         73.33	     9.381
  37.400         69.17	     9.110
  37.420         87.50	    10.247
  37.440         73.33	     9.381
  37.460         77.50	     9.644
  37.480         91.67	    10.488
  37.500         91.67	    10.488
  37.520        123.33	    12.166
  37.540        120.00	    12.000
  37.560        102.50	    11.091
  37.580         98.33	    10.863
  37.600         95.00	    10.677
  37.620         95.00	    10.677
  37.640         98.33	    10.863
  37.660         95.83	    10.724
  37.680         92.50	    10.536
  37.700         75.00	     9.487
  37.720         68.33	     9.055
  37.740         71.67	     9.274
  37.760         59.17	     8.426
  37.780         48.33	     7.616
  37.800         48.33	     7.616
  37.820         55.83	     8.185
  37.840         49.17	     7.681
  37.860         43.33	     7.211
  37.880         50.83	     7.810
  37.900         53.33	     8.000
  37.920         57.50	     8.307
  37.940         39.17	     6.856
  37.960         42.50	     7.141
  37.980         48.33	     7.616
  38.000         50.83	     7.810
  38.020         49.17	     7.681
  38.040         22.50	     5.196
  38.060         40.00	     6.928
  38.080         35.00	     6.481
  38.100         35.83	     6.557
  38.120         32.50	     6.245
  38.140         45.83	     7.416
  38.160         37.50	     6.708
  38.180         35.83	     6.557
  38.200         31.67	     6.164
  38.220         34.17	     6.403
  38.240         43.33	     7.211
  38.260         35.00	     6.481
  38.280         25.00	     5.477
  38.300         45.83	     7.416
  38.320         48.33	     7.616
  38.340         49.17	     7.681
  38.360         39.17	     6.856
  38.380         48.33	     7.616
  38.400         65.83	     8.888
  38.420         50.00	     7.746
  38.440         62.50	     8.660
  38.460         59.17	     8.426
  38.480         60.00	     8.485
  38.500         50.83	     7.810
  38.520         60.00	     8.485
  38.540         60.83	     8.544
  38.560         70.00	     9.165
  38.580         70.83	     9.220
  38.600         65.83	     8.888
  38.620         65.00	     8.832
  38.640         43.33	     7.211
  38.660         50.00	     7.746
  38.680         58.33	     8.367
  38.700         61.67	     8.602
  38.720         59.17	     8.426
  38.740         57.50	     8.307
  38.760         55.83	     8.185
  38.780         45.00	     7.348
  38.800         55.83	     8.185
  38.820         55.83	     8.185
  38.840         45.83	     7.416
  38.860         38.33	     6.782
  38.880         50.83	     7.810
  38.900         35.83	     6.557
  38.920         42.50	     7.141
  38.940         40.00	     6.928
  38.960         50.00	     7.746
  38.980         39.17	     6.856
  39.000         44.17	     7.280
  39.020         40.83	     7.000
  39.040         38.33	     6.782
  39.060         49.17	     7.681
  39.080         32.50	     6.245
  39.100         37.50	     6.708
  39.120         50.83	     7.810
  39.140         38.33	     6.782
  39.160         48.33	     7.616
  39.180         51.67	     7.874
  39.200         43.33	     7.211
  39.220         40.00	     6.928
  39.240         53.33	     8.000
  39.260         41.67	     7.071
  39.280         74.17	     9.434
  39.300         65.00	     8.832
  39.320        109.17	    11.446
  39.340        164.17	    14.036
  39.360        223.33	    16.371
  39.380        233.33	    16.733
  39.400        169.17	    14.248
  39.420        140.00	    12.961
  39.440         97.50	    10.817
  39.460        148.33	    13.342
  39.480        146.67	    13.266
  39.500        125.00	    12.247
  39.520         80.83	     9.849
  39.540         63.33	     8.718
  39.560         60.83	     8.544
  39.580         56.67	     8.246
  39.600         53.33	     8.000
  39.620         70.00	     9.165
  39.640         55.00	     8.124
  39.660         52.50	     7.937
  39.680         47.50	     7.550
  39.700         49.17	     7.681
  39.720         45.83	     7.416
  39.740         51.67	     7.874
  39.760         50.83	     7.810
  39.780         44.17	     7.280
  39.800         39.17	     6.856
  39.820         61.67	     8.602
  39.840         40.00	     6.928
  39.860         55.00	     8.124
  39.880         48.33	     7.616
  39.900         74.17	     9.434
  39.920         56.67	     8.246
  39.940         59.17	     8.426
  39.960         58.33	     8.367
  39.980         63.33	     8.718
  40.000         62.50	     8.660
  40.020         65.00	     8.832
  40.040         48.33	     7.616
  40.060         50.00	     7.746
  40.080         45.83	     7.416
  40.100         50.00	     7.746
  40.120         42.50	     7.141
  40.140         62.50	     8.660
  40.160         70.83	     9.220
  40.180        136.67	    12.806
  40.200        134.17	    12.689
  40.220        124.17	    12.207
  40.240         96.67	    10.770
  40.260         83.33	    10.000
  40.280         87.50	    10.247
  40.300         84.17	    10.050
  40.320         95.83	    10.724
  40.340         62.50	     8.660
  40.360         55.00	     8.124
  40.380         55.00	     8.124
  40.400         45.83	     7.416
  40.420         49.17	     7.681
  40.440         42.50	     7.141
  40.460         51.67	     7.874
  40.480         45.00	     7.348
  40.500         48.33	     7.616
  40.520         40.83	     7.000
  40.540         55.83	     8.185
  40.560         49.17	     7.681
  40.580         45.83	     7.416
  40.600         33.33	     6.325
  40.620         50.00	     7.746
  40.640         41.67	     7.071
  40.660         35.83	     6.557
  40.680         44.17	     7.280
  40.700         49.17	     7.681
  40.720         45.83	     7.416
  40.740         50.00	     7.746
  40.760         41.67	     7.071
  40.780         43.33	     7.211
  40.800         44.17	     7.280
  40.820         55.83	     8.185
  40.840         56.67	     8.246
  40.860         41.67	     7.071
  40.880         46.67	     7.483
  40.900         45.00	     7.348
  40.920         43.33	     7.211
  40.940         67.50	     9.000
  40.960         48.33	     7.616
  40.980         40.00	     6.928
  41.000         55.00	     8.124
  41.020         44.17	     7.280
  41.040         53.33	     8.000
  41.060         43.33	     7.211
  41.080         50.00	     7.746
  41.100         50.00	     7.746
  41.120         67.50	     9.000
  41.140         54.17	     8.062
  41.160         64.17	     8.775
  41.180         57.50	     8.307
  41.200         55.83	     8.185
  41.220         52.50	     7.937
  41.240         55.83	     8.185
  41.260         48.33	     7.616
  41.280         56.67	     8.246
  41.300         56.67	     8.246
  41.320         41.67	     7.071
  41.340         41.67	     7.071
  41.360         43.33	     7.211
  41.380         34.17	     6.403
  41.400         46.67	     7.483
  41.420         52.50	     7.937
  41.440         49.17	     7.681
  41.460         47.50	     7.550
  41.480         48.33	     7.616
  41.500         64.17	     8.775
  41.520         58.33	     8.367
  41.540         63.33	     8.718
  41.560         64.17	     8.775
  41.580         63.33	     8.718
  41.600         71.67	     9.274
  41.620         72.50	     9.327
  41.640         79.17	     9.747
  41.660         84.17	    10.050
  41.680         63.33	     8.718
  41.700         75.00	     9.487
  41.720         67.50	     9.000
  41.740         75.83	     9.539
  41.760         62.50	     8.660
  41.780         72.50	     9.327
  41.800         76.67	     9.592
  41.820         76.67	     9.592
  41.840         70.83	     9.220
  41.860         60.00	     8.485
  41.880         69.17	     9.110
  41.900         56.67	     8.246
  41.920         50.00	     7.746
  41.940         60.00	     8.485
  41.960         47.50	     7.550
  41.980         50.00	     7.746
  42.000         45.00	     7.348
  42.020         57.50	     8.307
  42.040         60.00	     8.485
  42.060         42.50	     7.141
  42.080         58.33	     8.367
  42.100         55.00	     8.124
  42.120         45.83	     7.416
  42.140         75.83	     9.539
  42.160         65.83	     8.888
  42.180         59.17	     8.426
  42.200         64.17	     8.775
  42.220         72.50	     9.327
  42.240         83.33	    10.000
  42.260         82.50	     9.950
  42.280        101.67	    11.045
  42.300        100.83	    11.000
  42.320        141.67	    13.038
  42.340        165.83	    14.107
  42.360        264.17	    17.804
  42.380        337.50	    20.125
  42.400        298.33	    18.921
  42.420        188.33	    15.033
  42.440        140.83	    13.000
  42.460        125.00	    12.247
  42.480        165.83	    14.107
  42.500        203.33	    15.620
  42.520        160.83	    13.892
  42.540         89.17	    10.344
  42.560         80.00	     9.798
  42.580         82.50	     9.950
  42.600         79.17	     9.747
  42.620         68.33	     9.055
  42.640         64.17	     8.775
  42.660         52.50	     7.937
  42.680         77.50	     9.644
  42.700         70.00	     9.165
  42.720         74.17	     9.434
  42.740         66.67	     8.944
  42.760         61.67	     8.602
  42.780         79.17	     9.747
  42.800         68.33	     9.055
  42.820         55.83	     8.185
  42.840         57.50	     8.307
  42.860         52.50	     7.937
  42.880         65.00	     8.832
  42.900         70.00	     9.165
  42.920         61.67	     8.602
  42.940         54.17	     8.062
  42.960         48.33	     7.616
  42.980         55.00	     8.124
  43.000         49.17	     7.681
  43.020         45.83	     7.416
  43.040         55.00	     8.124
  43.060         42.50	     7.141
  43.080         41.67	     7.071
  43.100         46.67	     7.483
  43.120         51.67	     7.874
  43.140         46.67	     7.483
  43.160         62.50	     8.660
  43.180         57.50	     8.307
  43.200         53.33	     8.000
  43.220         64.17	     8.775
  43.240         58.33	     8.367
  43.260         55.83	     8.185
  43.280         46.67	     7.483
  43.300         50.83	     7.810
  43.320         65.00	     8.832
  43.340         65.00	     8.832
  43.360         64.17	     8.775
  43.380         61.67	     8.602
  43.400         73.33	     9.381
  43.420         72.50	     9.327
  43.440         98.33	    10.863
  43.460        104.17	    11.180
  43.480         90.00	    10.392
  43.500         97.50	    10.817
  43.520        109.17	    11.446
  43.540         98.33	    10.863
  43.560        109.17	    11.446
  43.580        118.33	    11.916
  43.600        130.00	    12.490
  43.620        103.33	    11.136
  43.640        106.67	    11.314
  43.660         89.17	    10.344
  43.680         95.83	    10.724
  43.700         92.50	    10.536
  43.720         96.67	    10.770
  43.740        106.67	    11.314
  43.760         90.83	    10.440
  43.780         87.50	    10.247
  43.800         84.17	    10.050
  43.820         88.33	    10.296
  43.840         94.17	    10.630
  43.860        100.83	    11.000
  43.880         85.00	    10.100
  43.900         80.83	     9.849
  43.920         87.50	    10.247
  43.940         83.33	    10.000
  43.960         95.00	    10.677
  43.980        101.67	    11.045
  44.000        102.50	    11.091
  44.020        130.83	    12.530
  44.040         96.67	    10.770
  44.060        101.67	    11.045
  44.080        137.50	    12.845
  44.100        134.17	    12.689
  44.120        126.67	    12.329
  44.140        148.33	    13.342
  44.160        157.50	    13.748
  44.180        175.00	    14.491
  44.200        150.83	    13.454
  44.220        192.50	    15.199
  44.240        187.50	    15.000
  44.260        208.33	    15.811
  44.280        213.33	    16.000
  44.300        207.50	    15.780
  44.320        222.50	    16.340
  44.340        230.83	    16.643
  44.360        240.83	    17.000
  44.380        280.83	    18.358
  44.400        289.17	    18.628
  44.420        311.67	    19.339
  44.440        320.00	    19.596
  44.460        284.17	    18.466
  44.480        268.33	    17.944
  44.500        265.00	    17.833
  44.520        280.83	    18.358
  44.540        252.50	    17.407
  44.560        251.67	    17.378
  44.580        220.00	    16.248
  44.600        221.67	    16.310
  44.620        215.83	    16.093
  44.640        199.17	    15.460
  44.660        198.33	    15.427
  44.680        184.17	    14.866
  44.700        211.67	    15.937
  44.720        141.67	    13.038
  44.740        163.33	    14.000
  44.760        134.17	    12.689
  44.780        152.50	    13.528
  44.800        131.67	    12.570
  44.820        150.83	    13.454
  44.840        137.50	    12.845
  44.860        131.67	    12.570
  44.880        121.67	    12.083
  44.900         97.50	    10.817
  44.920        102.50	    11.091
  44.940        116.67	    11.832
  44.960        115.00	    11.747
  44.980        114.17	    11.705
  45.000        109.17	    11.446
  45.020        114.17	    11.705
  45.040        101.67	    11.045
  45.060        102.50	    11.091
  45.080         88.33	    10.296
  45.100         90.83	    10.440
  45.120         85.83	    10.149
  45.140         98.33	    10.863
  45.160         81.67	     9.899
  45.180         79.17	     9.747
  45.200         90.00	    10.392
  45.220        108.33	    11.402
  45.240         90.83	    10.440
  45.260         95.00	    10.677
  45.280         87.50	    10.247
  45.300         92.50	    10.536
  45.320        125.00	    12.247
  45.340        114.17	    11.705
  45.360        145.00	    13.191
  45.380        153.33	    13.565
  45.400        184.17	    14.866
  45.420        208.33	    15.811
  45.440        215.83	    16.093
  45.460        210.83	    15.906
  45.480        217.50	    16.155
  45.500        219.17	    16.217
  45.520        215.00	    16.062
  45.540        212.50	    15.969
  45.560        188.33	    15.033
  45.580        172.50	    14.387
  45.600        170.00	    14.283
  45.620        148.33	    13.342
  45.640        135.83	    12.767
  45.660        160.83	    13.892
  45.680        177.50	    14.595
  45.700        203.33	    15.620
  45.720        196.67	    15.362
  45.740        153.33	    13.565
  45.760        101.67	    11.045
  45.780         95.83	    10.724
  45.800         79.17	     9.747
  45.820        110.00	    11.489
  45.840        106.67	    11.314
  45.860         95.83	    10.724
  45.880         91.67	    10.488
  45.900         65.83	     8.888
  45.920         74.17	     9.434
  45.940         59.17	     8.426
  45.960         62.50	     8.660
  45.980         57.50	     8.307
  46.000         50.00	     7.746
  46.020         49.17	     7.681
  46.040         48.33	     7.616
  46.060         58.33	     8.367
  46.080         55.83	     8.185
  46.100         60.83	     8.544
  46.120         46.67	     7.483
  46.140         50.00	     7.746
  46.160         49.17	     7.681
  46.180         43.33	     7.211
  46.200         41.67	     7.071
  46.220         35.83	     6.557
  46.240         50.83	     7.810
  46.260         57.50	     8.307
  46.280         48.33	     7.616
  46.300         50.00	     7.746
  46.320         58.33	     8.367
  46.340         35.83	     6.557
  46.360         41.67	     7.071
  46.380         44.17	     7.280
  46.400         46.67	     7.483
  46.420         45.83	     7.416
  46.440         37.50	     6.708
  46.460         46.67	     7.483
  46.480         37.50	     6.708
  46.500         41.67	     7.071
  46.520         40.83	     7.000
  46.540         42.50	     7.141
  46.560         44.17	     7.280
  46.580         50.83	     7.810
  46.600         43.33	     7.211
  46.620         49.17	     7.681
  46.640         41.67	     7.071
  46.660         31.67	     6.164
  46.680         38.33	     6.782
  46.700         41.67	     7.071
  46.720         41.67	     7.071
  46.740         31.67	     6.164
  46.760         47.50	     7.550
  46.780         41.67	     7.071
  46.800         45.00	     7.348
  46.820         40.00	     6.928
  46.840         34.17	     6.403
  46.860         46.67	     7.483
  46.880         39.17	     6.856
  46.900         45.83	     7.416
  46.920         43.33	     7.211
  46.940         59.17	     8.426
  46.960         40.83	     7.000
  46.980         40.83	     7.000
  47.000         43.33	     7.211
  47.020         50.83	     7.810
  47.040         44.17	     7.280
  47.060         64.17	     8.775
  47.080         52.50	     7.937
  47.100         55.83	     8.185
  47.120         51.67	     7.874
  47.140         43.33	     7.211
  47.160         38.33	     6.782
  47.180         45.83	     7.416
  47.200         45.83	     7.416
  47.220         55.83	     8.185
  47.240         42.50	     7.141
  47.260         52.50	     7.937
  47.280         40.00	     6.928
  47.300         30.83	     6.083
  47.320         40.83	     7.000
  47.340         35.00	     6.481
  47.360         36.67	     6.633
  47.380         37.50	     6.708
  47.400         25.00	     5.477
  47.420         38.33	     6.782
  47.440         41.67	     7.071
  47.460         45.83	     7.416
  47.480         37.50	     6.708
  47.500         30.83	     6.083
  47.520         38.33	     6.782
  47.540         32.50	     6.245
  47.560         42.50	     7.141
  47.580         45.00	     7.348
  47.600         40.00	     6.928
  47.620         42.50	     7.141
  47.640         30.83	     6.083
  47.660         30.00	     6.000
  47.680         37.50	     6.708
  47.700         35.83	     6.557
  47.720         39.17	     6.856
  47.740         49.17	     7.681
  47.760         40.00	     6.928
  47.780         48.33	     7.616
  47.800         37.50	     6.708
  47.820         42.50	     7.141
  47.840         51.67	     7.874
  47.860         43.33	     7.211
  47.880         54.17	     8.062
  47.900         55.00	     8.124
  47.920         63.33	     8.718
  47.940         49.17	     7.681
  47.960         62.50	     8.660
  47.980         49.17	     7.681
  48.000         71.67	     9.274
  48.020         84.17	    10.050
  48.040        125.83	    12.288
  48.060        173.33	    14.422
  48.080        223.33	    16.371
  48.100        145.00	    13.191
  48.120         99.17	    10.909
  48.140         81.67	     9.899
  48.160         80.00	     9.798
  48.180        104.17	    11.180
  48.200        144.17	    13.153
  48.220        105.83	    11.269
  48.240         72.50	     9.327
  48.260         55.83	     8.185
  48.280         56.67	     8.246
  48.300         50.83	     7.810
  48.320         50.83	     7.810
  48.340         45.83	     7.416
  48.360         41.67	     7.071
  48.380         47.50	     7.550
  48.400         42.50	     7.141
  48.420         35.83	     6.557
  48.440         35.00	     6.481
  48.460         45.00	     7.348
  48.480         47.50	     7.550
  48.500         40.83	     7.000
  48.520         46.67	     7.483
  48.540         35.83	     6.557
  48.560         36.67	     6.633
  48.580         55.00	     8.124
  48.600         58.33	     8.367
  48.620         45.00	     7.348
  48.640         41.67	     7.071
  48.660         58.33	     8.367
  48.680         55.00	     8.124
  48.700         41.67	     7.071
  48.720         45.83	     7.416
  48.740         53.33	     8.000
  48.760         53.33	     8.000
  48.780         48.33	     7.616
  48.800         50.00	     7.746
  48.820         48.33	     7.616
  48.840         51.67	     7.874
  48.860         43.33	     7.211
  48.880         45.00	     7.348
  48.900         49.17	     7.681
  48.920         38.33	     6.782
  48.940         58.33	     8.367
  48.960         30.83	     6.083
  48.980         34.17	     6.403
  49.000         30.00	     6.000
  49.020         35.00	     6.481
  49.040         36.67	     6.633
  49.060         51.67	     7.874
  49.080         53.33	     8.000
  49.100         62.50	     8.660
  49.120         64.17	     8.775
  49.140         62.50	     8.660
  49.160         57.50	     8.307
  49.180         36.67	     6.633
  49.200         38.33	     6.782
  49.220         52.50	     7.937
  49.240         42.50	     7.141
  49.260         63.33	     8.718
  49.280         42.50	     7.141
  49.300         56.67	     8.246
  49.320         38.33	     6.782
  49.340         50.00	     7.746
  49.360         51.67	     7.874
  49.380         46.67	     7.483
  49.400         48.33	     7.616
  49.420         46.67	     7.483
  49.440         48.33	     7.616
  49.460         51.67	     7.874
  49.480         52.50	     7.937
  49.500         73.33	     9.381
  49.520         71.67	     9.274
  49.540         95.83	    10.724
  49.560         95.00	    10.677
  49.580        115.00	    11.747
  49.600        105.00	    11.225
  49.620        108.33	    11.402
  49.640        101.67	    11.045
  49.660         82.50	     9.950
  49.680        105.83	    11.269
  49.700         88.33	    10.296
  49.720        100.00	    10.954
  49.740         86.67	    10.198
  49.760         88.33	    10.296
  49.780         78.33	     9.695
  49.800         77.50	     9.644
  49.820         79.17	     9.747
  49.840         75.00	     9.487
  49.860         85.83	    10.149
  49.880         85.83	    10.149
  49.900         88.33	    10.296
  49.920         90.83	    10.440
  49.940         90.00	    10.392
  49.960        112.50	    11.619
  49.980        138.33	    12.884
  50.000        215.00	    16.062
  50.020        307.50	    19.209
  50.040        494.17	    24.352
  50.060        602.50	    26.889
  50.080        544.17	    25.554
  50.100        300.83	    19.000
  50.120        190.00	    15.100
  50.140        183.33	    14.832
  50.160        237.50	    16.882
  50.180        309.17	    19.261
  50.200        329.17	    19.875
  50.220        275.83	    18.193
  50.240        137.50	    12.845
  50.260        102.50	    11.091
  50.280         75.00	     9.487
  50.300         60.83	     8.544
  50.320         54.17	     8.062
  50.340         55.83	     8.185
  50.360         60.00	     8.485
  50.380         58.33	     8.367
  50.400         71.67	     9.274
  50.420         71.67	     9.274
  50.440         61.67	     8.602
  50.460         89.17	    10.344
  50.480         95.83	    10.724
  50.500        105.83	    11.269
  50.520         96.67	    10.770
  50.540         98.33	    10.863
  50.560         90.83	    10.440
  50.580         88.33	    10.296
  50.600         79.17	     9.747
  50.620        104.17	    11.180
  50.640         99.17	    10.909
  50.660        103.33	    11.136
  50.680         73.33	     9.381
  50.700         71.67	     9.274
  50.720         59.17	     8.426
  50.740         68.33	     9.055
  50.760         62.50	     8.660
  50.780         67.50	     9.000
  50.800         55.83	     8.185
  50.820         51.67	     7.874
  50.840         39.17	     6.856
  50.860         54.17	     8.062
  50.880         48.33	     7.616
  50.900         48.33	     7.616
  50.920         39.17	     6.856
  50.940         38.33	     6.782
  50.960         36.67	     6.633
  50.980         49.17	     7.681
  51.000         56.67	     8.246
  51.020         45.00	     7.348
  51.040         63.33	     8.718
  51.060         65.00	     8.832
  51.080         68.33	     9.055
  51.100         52.50	     7.937
  51.120         65.00	     8.832
  51.140         63.33	     8.718
  51.160         78.33	     9.695
  51.180         61.67	     8.602
  51.200         50.83	     7.810
  51.220         53.33	     8.000
  51.240         45.00	     7.348
  51.260         58.33	     8.367
  51.280         38.33	     6.782
  51.300         45.83	     7.416
  51.320         40.00	     6.928
  51.340         40.00	     6.928
  51.360         45.00	     7.348
  51.380         35.83	     6.557
  51.400         42.50	     7.141
  51.420         39.17	     6.856
  51.440         31.67	     6.164
  51.460         32.50	     6.245
  51.480         35.00	     6.481
  51.500         40.83	     7.000
  51.520         42.50	     7.141
  51.540         40.83	     7.000
  51.560         33.33	     6.325
  51.580         27.50	     5.745
  51.600         30.83	     6.083
  51.620         43.33	     7.211
  51.640         32.50	     6.245
  51.660         32.50	     6.245
  51.680         41.67	     7.071
  51.700         32.50	     6.245
  51.720         35.00	     6.481
  51.740         30.00	     6.000
  51.760         34.17	     6.403
  51.780         22.50	     5.196
  51.800         31.67	     6.164
  51.820         35.83	     6.557
  51.840         35.83	     6.557
  51.860         35.83	     6.557
  51.880         26.67	     5.657
  51.900         23.33	     5.292
  51.920         23.33	     5.292
  51.940         40.83	     7.000
  51.960         48.33	     7.616
  51.980         50.83	     7.810
  52.000         35.83	     6.557
  52.020         46.67	     7.483
  52.040         51.67	     7.874
  52.060         69.17	     9.110
  52.080         58.33	     8.367
  52.100         54.17	     8.062
  52.120         41.67	     7.071
  52.140         44.17	     7.280
  52.160         60.00	     8.485
  52.180         43.33	     7.211
  52.200         60.00	     8.485
  52.220         68.33	     9.055
  52.240         48.33	     7.616
  52.260         44.17	     7.280
  52.280         52.50	     7.937
  52.300         43.33	     7.211
  52.320         45.83	     7.416
  52.340         41.67	     7.071
  52.360         43.33	     7.211
  52.380         40.83	     7.000
  52.400         55.83	     8.185
  52.420         55.83	     8.185
  52.440         50.83	     7.810
  52.460         40.83	     7.000
  52.480         45.00	     7.348
  52.500         47.50	     7.550
  52.520         42.50	     7.141
  52.540         40.00	     6.928
  52.560         47.50	     7.550
  52.580         43.33	     7.211
  52.600         37.50	     6.708
  52.620         40.00	     6.928
  52.640         43.33	     7.211
  52.660         45.83	     7.416
  52.680         43.33	     7.211
  52.700         35.83	     6.557
  52.720         42.50	     7.141
  52.740         30.00	     6.000
  52.760         31.67	     6.164
  52.780         41.67	     7.071
  52.800         45.83	     7.416
  52.820         36.67	     6.633
  52.840         45.00	     7.348
  52.860         46.67	     7.483
  52.880         45.83	     7.416
  52.900         40.00	     6.928
  52.920         52.50	     7.937
  52.940         57.50	     8.307
  52.960         39.17	     6.856
  52.980         35.83	     6.557
  53.000         40.83	     7.000
  53.020         40.00	     6.928
  53.040         48.33	     7.616
  53.060         48.33	     7.616
  53.080         76.67	     9.592
  53.100         51.67	     7.874
  53.120         46.67	     7.483
  53.140         42.50	     7.141
  53.160         59.17	     8.426
  53.180         51.67	     7.874
  53.200         57.50	     8.307
  53.220         58.33	     8.367
  53.240         63.33	     8.718
  53.260         40.00	     6.928
  53.280         43.33	     7.211
  53.300         58.33	     8.367
  53.320         39.17	     6.856
  53.340         41.67	     7.071
  53.360         44.17	     7.280
  53.380         35.83	     6.557
  53.400         26.67	     5.657
  53.420         35.83	     6.557
  53.440         27.50	     5.745
  53.460         40.83	     7.000
  53.480         38.33	     6.782
  53.500         41.67	     7.071
  53.520         32.50	     6.245
  53.540         33.33	     6.325
  53.560         38.33	     6.782
  53.580         43.33	     7.211
  53.600         39.17	     6.856
  53.620         40.00	     6.928
  53.640         42.50	     7.141
  53.660         44.17	     7.280
  53.680         31.67	     6.164
  53.700         36.67	     6.633
  53.720         37.50	     6.708
  53.740         38.33	     6.782
  53.760         35.00	     6.481
  53.780         30.83	     6.083
  53.800         35.00	     6.481
  53.820         39.17	     6.856
  53.840         21.67	     5.099
  53.860         37.50	     6.708
  53.880         40.83	     7.000
  53.900         40.83	     7.000
  53.920         38.33	     6.782
  53.940         37.50	     6.708
  53.960         31.67	     6.164
  53.980         37.50	     6.708
  54.000         39.17	     6.856
  54.020         32.50	     6.245
  54.040         39.17	     6.856
  54.060         26.67	     5.657
  54.080         30.83	     6.083
  54.100         40.00	     6.928
  54.120         26.67	     5.657
  54.140         31.67	     6.164
  54.160         38.33	     6.782
  54.180         40.00	     6.928
  54.200         43.33	     7.211
  54.220         44.17	     7.280
  54.240         42.50	     7.141
  54.260         44.17	     7.280
  54.280         43.33	     7.211
  54.300         49.17	     7.681
  54.320         48.33	     7.616
  54.340         40.83	     7.000
  54.360         47.50	     7.550
  54.380         50.00	     7.746
  54.400         48.33	     7.616
  54.420         43.33	     7.211
  54.440         48.33	     7.616
  54.460         32.50	     6.245
  54.480         52.50	     7.937
  54.500         45.00	     7.348
  54.520         50.83	     7.810
  54.540         46.67	     7.483
  54.560         54.17	     8.062
  54.580         46.67	     7.483
  54.600         35.00	     6.481
  54.620         45.00	     7.348
  54.640         40.00	     6.928
  54.660         50.00	     7.746
  54.680         54.17	     8.062
  54.700         65.00	     8.832
  54.720         82.50	     9.950
  54.740         95.83	    10.724
  54.760        120.83	    12.042
  54.780        127.50	    12.369
  54.800        120.00	    12.000
  54.820        103.33	    11.136
  54.840         91.67	    10.488
  54.860         85.83	    10.149
  54.880         73.33	     9.381
  54.900         81.67	     9.899
  54.920        105.00	    11.225
  54.940         93.33	    10.583
  54.960         80.00	     9.798
  54.980         80.00	     9.798
  55.000         52.50	     7.937
  55.020         55.83	     8.185
  55.040         35.83	     6.557
  55.060         52.50	     7.937
  55.080         47.50	     7.550
  55.100         55.00	     8.124
  55.120         66.67	     8.944
  55.140         67.50	     9.000
  55.160         61.67	     8.602
  55.180         79.17	     9.747
  55.200         73.33	     9.381
  55.220         77.50	     9.644
  55.240         85.00	    10.100
  55.260         85.83	    10.149
  55.280         75.00	     9.487
  55.300         61.67	     8.602
  55.320         47.50	     7.550
  55.340         59.17	     8.426
  55.360         55.00	     8.124
  55.380         80.83	     9.849
  55.400         75.83	     9.539
  55.420         63.33	     8.718
  55.440         59.17	     8.426
  55.460         68.33	     9.055
  55.480         52.50	     7.937
  55.500         46.67	     7.483
  55.520         50.00	     7.746
  55.540         50.83	     7.810
  55.560         84.17	    10.050
  55.580         71.67	     9.274
  55.600         65.00	     8.832
  55.620         58.33	     8.367
  55.640         60.00	     8.485
  55.660         79.17	     9.747
  55.680         78.33	     9.695
  55.700         96.67	    10.770
  55.720         79.17	     9.747
  55.740         85.00	    10.100
  55.760         83.33	    10.000
  55.780         66.67	     8.944
  55.800         75.00	     9.487
  55.820         89.17	    10.344
  55.840        100.00	    10.954
  55.860         86.67	    10.198
  55.880         79.17	     9.747
  55.900         64.17	     8.775
  55.920         60.83	     8.544
  55.940         58.33	     8.367
  55.960         50.83	     7.810
  55.980         58.33	     8.367
  56.000         60.00	     8.485
  56.020         65.83	     8.888
  56.040         45.83	     7.416
  56.060         52.50	     7.937
  56.080         49.17	     7.681
  56.100         45.00	     7.348
  56.120         44.17	     7.280
  56.140         51.67	     7.874
  56.160         36.67	     6.633
  56.180         47.50	     7.550
  56.200         44.17	     7.280
  56.220         34.17	     6.403
  56.240         49.17	     7.681
  56.260         35.00	     6.481
  56.280         42.50	     7.141
  56.300         36.67	     6.633
  56.320         37.50	     6.708
  56.340         38.33	     6.782
  56.360         30.00	     6.000
  56.380         46.67	     7.483
  56.400         35.00	     6.481
  56.420         40.83	     7.000
  56.440         30.83	     6.083
  56.460         38.33	     6.782
  56.480         35.00	     6.481
  56.500         45.00	     7.348
  56.520         40.83	     7.000
  56.540         36.67	     6.633
  56.560         41.67	     7.071
  56.580         38.33	     6.782
  56.600         40.83	     7.000
  56.620         45.00	     7.348
  56.640         38.33	     6.782
  56.660         40.83	     7.000
  56.680         36.67	     6.633
  56.700         30.83	     6.083
  56.720         42.50	     7.141
  56.740         43.33	     7.211
  56.760         33.33	     6.325
  56.780         40.00	     6.928
  56.800         36.67	     6.633
  56.820         50.00	     7.746
  56.840         50.83	     7.810
  56.860         52.50	     7.937
  56.880         49.17	     7.681
  56.900         28.33	     5.831
  56.920         37.50	     6.708
  56.940         32.50	     6.245
  56.960         44.17	     7.280
  56.980         35.00	     6.481
  57.000         43.33	     7.211
  57.020         37.50	     6.708
  57.040         45.83	     7.416
  57.060         38.33	     6.782
  57.080         49.17	     7.681
  57.100         32.50	     6.245
  57.120         45.00	     7.348
  57.140         40.83	     7.000
  57.160         50.00	     7.746
  57.180         35.83	     6.557
  57.200         40.83	     7.000
  57.220         21.67	     5.099
  57.240         39.17	     6.856
  57.260         44.17	     7.280
  57.280         38.33	     6.782
  57.300         33.33	     6.325
  57.320         39.17	     6.856
  57.340         41.67	     7.071
  57.360         28.33	     5.831
  57.380         41.67	     7.071
  57.400         40.00	     6.928
  57.420         41.67	     7.071
  57.440         38.33	     6.782
  57.460         41.67	     7.071
  57.480         42.50	     7.141
  57.500         39.17	     6.856
  57.520         30.00	     6.000
  57.540         25.83	     5.568
  57.560         34.17	     6.403
  57.580         50.83	     7.810
  57.600         45.83	     7.416
  57.620         30.83	     6.083
  57.640         44.17	     7.280
  57.660         43.33	     7.211
  57.680         46.67	     7.483
  57.700         44.17	     7.280
  57.720         32.50	     6.245
  57.740         45.00	     7.348
  57.760         38.33	     6.782
  57.780         50.83	     7.810
  57.800         42.50	     7.141
  57.820         43.33	     7.211
  57.840         41.67	     7.071
  57.860         26.67	     5.657
  57.880         36.67	     6.633
  57.900         46.67	     7.483
  57.920         41.67	     7.071
  57.940         43.33	     7.211
  57.960         38.33	     6.782
  57.980         38.33	     6.782
  58.000         31.67	     6.164
  58.020         37.50	     6.708
  58.040         40.00	     6.928
  58.060         30.00	     6.000
  58.080         42.50	     7.141
  58.100         48.33	     7.616
  58.120         50.00	     7.746
  58.140         35.83	     6.557
  58.160         45.00	     7.348
  58.180         44.17	     7.280
  58.200         45.83	     7.416
  58.220         26.67	     5.657
  58.240         35.00	     6.481
  58.260         50.00	     7.746
  58.280         42.50	     7.141
  58.300         40.83	     7.000
  58.320         39.17	     6.856
  58.340         41.67	     7.071
  58.360         41.67	     7.071
  58.380         32.50	     6.245
  58.400         40.83	     7.000
  58.420         35.83	     6.557
  58.440         45.83	     7.416
  58.460         38.33	     6.782
  58.480         55.83	     8.185
  58.500         42.50	     7.141
  58.520         67.50	     9.000
  58.540         36.67	     6.633
  58.560         60.00	     8.485
  58.580         53.33	     8.000
  58.600         59.17	     8.426
  58.620         52.50	     7.937
  58.640         70.83	     9.220
  58.660         57.50	     8.307
  58.680         58.33	     8.367
  58.700         47.50	     7.550
  58.720         47.50	     7.550
  58.740         65.83	     8.888
  58.760         61.67	     8.602
  58.780         43.33	     7.211
  58.800         45.00	     7.348
  58.820         49.17	     7.681
  58.840         52.50	     7.937
  58.860         42.50	     7.141
  58.880         42.50	     7.141
  58.900         52.50	     7.937
  58.920         46.67	     7.483
  58.940         55.83	     8.185
  58.960         61.67	     8.602
  58.980         50.83	     7.810
  59.000         44.17	     7.280
  59.020         53.33	     8.000
  59.040         45.83	     7.416
  59.060         46.67	     7.483
  59.080         62.50	     8.660
  59.100         48.33	     7.616
  59.120         51.67	     7.874
  59.140         50.00	     7.746
  59.160         50.00	     7.746
  59.180         52.50	     7.937
  59.200         60.83	     8.544
  59.220         55.83	     8.185
  59.240         46.67	     7.483
  59.260         48.33	     7.616
  59.280         55.00	     8.124
  59.300         45.00	     7.348
  59.320         55.00	     8.124
  59.340         50.83	     7.810
  59.360         40.00	     6.928
  59.380         37.50	     6.708
  59.400         59.17	     8.426
  59.420         51.67	     7.874
  59.440         53.33	     8.000
  59.460         46.67	     7.483
  59.480         49.17	     7.681
  59.500         39.17	     6.856
  59.520         45.83	     7.416
  59.540         43.33	     7.211
  59.560         41.67	     7.071
  59.580         47.50	     7.550
  59.600         45.83	     7.416
  59.620         45.00	     7.348
  59.640         55.83	     8.185
  59.660         59.17	     8.426
  59.680         50.83	     7.810
  59.700         64.17	     8.775
  59.720         57.50	     8.307
  59.740         75.83	     9.539
  59.760         91.67	    10.488
  59.780        121.67	    12.083
  59.800        140.00	    12.961
  59.820        209.17	    15.843
  59.840        297.50	    18.894
  59.860        350.83	    20.518
  59.880        340.83	    20.224
  59.900        275.83	    18.193
  59.920        190.83	    15.133
  59.940        140.83	    13.000
  59.960        117.50	    11.874
  59.980        121.67	    12.083
  60.000        160.83	    13.892
  60.020        188.33	    15.033
  60.040        212.50	    15.969
  60.060        161.67	    13.928
  60.080        130.83	    12.530
  60.100        125.00	    12.247
  60.120         66.67	     8.944
  60.140         48.33	     7.616
  60.160         55.83	     8.185
  60.180         55.00	     8.124
  60.200         60.83	     8.544
  60.220         40.00	     6.928
  60.240         55.00	     8.124
  60.260         63.33	     8.718
  60.280         50.83	     7.810
  60.300         56.67	     8.246
  60.320         55.83	     8.185
  60.340         55.83	     8.185
  60.360         50.00	     7.746
  60.380         43.33	     7.211
  60.400         55.83	     8.185
  60.420         59.17	     8.426
  60.440         47.50	     7.550
  60.460         56.67	     8.246
  60.480         48.33	     7.616
  60.500         49.17	     7.681
  60.520         50.83	     7.810
  60.540         54.17	     8.062
  60.560         48.33	     7.616
  60.580         40.00	     6.928
  60.600         51.67	     7.874
  60.620         57.50	     8.307
  60.640         47.50	     7.550
  60.660         57.50	     8.307
  60.680         53.33	     8.000
  60.700         56.67	     8.246
  60.720         65.00	     8.832
  60.740         72.50	     9.327
  60.760         62.50	     8.660
  60.780         57.50	     8.307
  60.800         65.00	     8.832
  60.820         50.00	     7.746
  60.840         61.67	     8.602
  60.860         50.83	     7.810
  60.880         67.50	     9.000
  60.900         64.17	     8.775
  60.920         61.67	     8.602
  60.940         58.33	     8.367
  60.960         54.17	     8.062
  60.980         59.17	     8.426
  61.000         60.83	     8.544
  61.020         55.83	     8.185
  61.040         51.67	     7.874
  61.060         51.67	     7.874
  61.080         46.67	     7.483
  61.100         65.83	     8.888
  61.120         50.00	     7.746
  61.140         45.83	     7.416
  61.160         58.33	     8.367
  61.180         55.83	     8.185
  61.200         60.83	     8.544
  61.220         50.00	     7.746
  61.240         50.00	     7.746
  61.260         50.00	     7.746
  61.280         49.17	     7.681
  61.300         54.17	     8.062
  61.320         51.67	     7.874
  61.340         48.33	     7.616
  61.360         66.67	     8.944
  61.380         65.83	     8.888
  61.400         70.00	     9.165
  61.420         59.17	     8.426
  61.440         59.17	     8.426
  61.460         58.33	     8.367
  61.480         60.83	     8.544
  61.500         75.83	     9.539
  61.520         75.83	     9.539
  61.540         64.17	     8.775
  61.560         72.50	     9.327
  61.580         63.33	     8.718
  61.600         56.67	     8.246
  61.620         55.83	     8.185
  61.640         60.00	     8.485
  61.660         59.17	     8.426
  61.680         52.50	     7.937
  61.700         59.17	     8.426
  61.720         60.83	     8.544
  61.740         59.17	     8.426
  61.760         50.00	     7.746
  61.780         60.00	     8.485
  61.800         60.00	     8.485
  61.820         55.00	     8.124
  61.840         53.33	     8.000
  61.860         40.00	     6.928
  61.880         57.50	     8.307
  61.900         49.17	     7.681
  61.920         55.83	     8.185
  61.940         46.67	     7.483
  61.960         56.67	     8.246
  61.980         40.83	     7.000
  62.000         49.17	     7.681
  62.020         38.33	     6.782
  62.040         51.67	     7.874
  62.060         36.67	     6.633
  62.080         34.17	     6.403
  62.100         49.17	     7.681
  62.120         41.67	     7.071
  62.140         40.00	     6.928
  62.160         50.83	     7.810
  62.180         36.67	     6.633
  62.200         49.17	     7.681
  62.220         37.50	     6.708
  62.240         33.33	     6.325
  62.260         38.33	     6.782
  62.280         30.83	     6.083
  62.300         35.83	     6.557
  62.320         45.00	     7.348
  62.340         35.00	     6.481
  62.360         29.17	     5.916
  62.380         31.67	     6.164
  62.400         39.17	     6.856
  62.420         30.00	     6.000
  62.440         39.17	     6.856
  62.460         43.33	     7.211
  62.480         36.67	     6.633
  62.500         35.00	     6.481
  62.520         36.67	     6.633
  62.540         45.83	     7.416
  62.560         58.33	     8.367
  62.580         62.50	     8.660
  62.600         55.00	     8.124
  62.620         52.50	     7.937
  62.640         50.83	     7.810
  62.660         43.33	     7.211
  62.680         30.83	     6.083
  62.700         47.50	     7.550
  62.720         45.00	     7.348
  62.740         36.67	     6.633
  62.760         45.00	     7.348
  62.780         34.17	     6.403
  62.800         35.00	     6.481
  62.820         45.83	     7.416
  62.840         41.67	     7.071
  62.860         47.50	     7.550
  62.880         39.17	     6.856
  62.900         40.00	     6.928
  62.920         42.50	     7.141
  62.940         32.50	     6.245
  62.960         40.83	     7.000
  62.980         31.67	     6.164
  63.000         45.00	     7.348
  63.020         31.67	     6.164
  63.040         33.33	     6.325
  63.060         41.67	     7.071
  63.080         36.67	     6.633
  63.100         40.00	     6.928
  63.120         33.33	     6.325
  63.140         39.17	     6.856
  63.160         37.50	     6.708
  63.180         50.00	     7.746
  63.200         45.83	     7.416
  63.220         39.17	     6.856
  63.240         48.33	     7.616
  63.260         38.33	     6.782
  63.280         31.67	     6.164
  63.300         40.83	     7.000
  63.320         51.67	     7.874
  63.340         56.67	     8.246
  63.360         56.67	     8.246
  63.380         51.67	     7.874
  63.400         49.17	     7.681
  63.420         48.33	     7.616
  63.440         50.00	     7.746
  63.460         50.00	     7.746
  63.480         56.67	     8.246
  63.500         45.83	     7.416
  63.520         55.00	     8.124
  63.540         62.50	     8.660
  63.560         38.33	     6.782
  63.580         48.33	     7.616
  63.600         52.50	     7.937
  63.620         51.67	     7.874
  63.640         59.17	     8.426
  63.660         64.17	     8.775
  63.680         45.00	     7.348
  63.700         47.50	     7.550
  63.720         52.50	     7.937
  63.740         55.83	     8.185
  63.760         60.83	     8.544
  63.780         53.33	     8.000
  63.800         65.83	     8.888
  63.820         62.50	     8.660
  63.840         50.83	     7.810
  63.860         55.83	     8.185
  63.880         90.83	    10.440
  63.900         95.83	    10.724
  63.920        102.50	    11.091
  63.940        129.17	    12.450
  63.960        114.17	    11.705
  63.980         87.50	    10.247
  64.000         75.83	     9.539
  64.020         70.00	     9.165
  64.040         67.50	     9.000
  64.060         65.00	     8.832
  64.080         65.00	     8.832
  64.100         80.83	     9.849
  64.120        102.50	    11.091
  64.140        112.50	    11.619
  64.160         69.17	     9.110
  64.180         62.50	     8.660
  64.200         65.83	     8.888
  64.220         54.17	     8.062
  64.240         56.67	     8.246
  64.260         54.17	     8.062
  64.280         60.83	     8.544
  64.300         60.83	     8.544
  64.320         44.17	     7.280
  64.340         50.00	     7.746
  64.360         44.17	     7.280
  64.380         56.67	     8.246
  64.400         50.83	     7.810
  64.420         48.33	     7.616
  64.440         56.67	     8.246
  64.460         41.67	     7.071
  64.480         62.50	     8.660
  64.500         55.00	     8.124
  64.520         65.83	     8.888
  64.540         75.00	     9.487
  64.560         60.00	     8.485
  64.580         62.50	     8.660
  64.600         51.67	     7.874
  64.620         56.67	     8.246
  64.640         51.67	     7.874
  64.660         52.50	     7.937
  64.680         56.67	     8.246
  64.700         74.17	     9.434
  64.720         77.50	     9.644
  64.740         71.67	     9.274
  64.760         80.83	     9.849
  64.780         81.67	     9.899
  64.800         69.17	     9.110
  64.820         63.33	     8.718
  64.840         75.00	     9.487
  64.860         57.50	     8.307
  64.880         59.17	     8.426
  64.900         65.83	     8.888
  64.920         54.17	     8.062
  64.940         65.83	     8.888
  64.960         80.83	     9.849
  64.980         71.67	     9.274
  65.000         91.67	    10.488
