
Filename:
	C:\Program Files\Thermo Electron\WinXRD\Datafiles\F_HERMAN\GEO\G72_RT.raw

File Created:
	February 21, 2020 - 09:39 PM

Specimen Id:
	G72_RT

Specimen Name:
	

Specimen Description:
	

Comment:
Scan Type: 2Theta Scan
Start Angle: 3 deg.
Stop Angle: 65 deg.
Num Points: 3101
Step Size: 0.02 deg.
Scan Rate: 1.000000
Scan Mode: Continuous
Wavelength: 1.540562
\Kalpha1: 1.540562	\Kalpha2: 1.544390	\Kbeta: 1.392218

Optics:
		Detector:
			 Type: Fixed Slits
		Tube: 
			 Type: Fixed Slits


Datas:
 Pos [deg]       Rate [CPS]      ESD [-]

Range 1 ---> Iteration 1
   3.000        431.67	    22.760
   3.020        459.17	    23.473
   3.040        444.17	    23.087
   3.060        460.00	    23.495
   3.080        430.00	    22.716
   3.100        397.50	    21.840
   3.120        416.67	    22.361
   3.140        400.83	    21.932
   3.160        430.00	    22.716
   3.180        444.17	    23.087
   3.200        373.33	    21.166
   3.220        376.67	    21.260
   3.240        419.17	    22.428
   3.260        415.83	    22.338
   3.280        398.33	    21.863
   3.300        375.83	    21.237
   3.320        383.33	    21.448
   3.340        362.50	    20.857
   3.360        364.17	    20.905
   3.380        361.67	    20.833
   3.400        332.50	    19.975
   3.420        355.00	    20.640
   3.440        393.33	    21.726
   3.460        382.50	    21.424
   3.480        380.83	    21.378
   3.500        325.00	    19.748
   3.520        363.33	    20.881
   3.540        345.83	    20.372
   3.560        375.83	    21.237
   3.580        348.33	    20.445
   3.600        324.17	    19.723
   3.620        348.33	    20.445
   3.640        375.00	    21.213
   3.660        363.33	    20.881
   3.680        334.17	    20.025
   3.700        304.17	    19.105
   3.720        351.67	    20.543
   3.740        316.67	    19.494
   3.760        311.67	    19.339
   3.780        300.00	    18.974
   3.800        322.50	    19.672
   3.820        320.83	    19.621
   3.840        325.83	    19.774
   3.860        279.17	    18.303
   3.880        317.50	    19.519
   3.900        297.50	    18.894
   3.920        330.00	    19.900
   3.940        305.00	    19.131
   3.960        324.17	    19.723
   3.980        290.00	    18.655
   4.000        317.50	    19.519
   4.020        305.83	    19.157
   4.040        301.67	    19.026
   4.060        296.67	    18.868
   4.080        309.17	    19.261
   4.100        276.67	    18.221
   4.120        318.33	    19.545
   4.140        335.00	    20.050
   4.160        285.00	    18.493
   4.180        270.83	    18.028
   4.200        276.67	    18.221
   4.220        277.50	    18.248
   4.240        287.50	    18.574
   4.260        290.00	    18.655
   4.280        275.00	    18.166
   4.300        271.67	    18.055
   4.320        269.17	    17.972
   4.340        282.50	    18.412
   4.360        260.00	    17.664
   4.380        270.83	    18.028
   4.400        271.67	    18.055
   4.420        278.33	    18.276
   4.440        281.67	    18.385
   4.460        268.33	    17.944
   4.480        310.83	    19.313
   4.500        247.50	    17.234
   4.520        257.50	    17.578
   4.540        269.17	    17.972
   4.560        253.33	    17.436
   4.580        272.50	    18.083
   4.600        296.67	    18.868
   4.620        265.00	    17.833
   4.640        293.33	    18.762
   4.660        270.00	    18.000
   4.680        242.50	    17.059
   4.700        233.33	    16.733
   4.720        267.50	    17.916
   4.740        268.33	    17.944
   4.760        263.33	    17.776
   4.780        255.83	    17.521
   4.800        233.33	    16.733
   4.820        265.00	    17.833
   4.840        251.67	    17.378
   4.860        296.67	    18.868
   4.880        241.67	    17.029
   4.900        264.17	    17.804
   4.920        245.00	    17.146
   4.940        262.50	    17.748
   4.960        238.33	    16.912
   4.980        236.67	    16.852
   5.000        243.33	    17.088
   5.020        242.50	    17.059
   5.040        247.50	    17.234
   5.060        241.67	    17.029
   5.080        246.67	    17.205
   5.100        229.17	    16.583
   5.120        246.67	    17.205
   5.140        235.83	    16.823
   5.160        235.83	    16.823
   5.180        240.00	    16.971
   5.200        245.83	    17.176
   5.220        242.50	    17.059
   5.240        247.50	    17.234
   5.260        233.33	    16.733
   5.280        239.17	    16.941
   5.300        255.00	    17.493
   5.320        238.33	    16.912
   5.340        220.83	    16.279
   5.360        235.83	    16.823
   5.380        242.50	    17.059
   5.400        227.50	    16.523
   5.420        240.83	    17.000
   5.440        230.00	    16.613
   5.460        205.83	    15.716
   5.480        251.67	    17.378
   5.500        240.00	    16.971
   5.520        237.50	    16.882
   5.540        222.50	    16.340
   5.560        211.67	    15.937
   5.580        218.33	    16.186
   5.600        208.33	    15.811
   5.620        221.67	    16.310
   5.640        205.00	    15.684
   5.660        202.50	    15.588
   5.680        210.00	    15.875
   5.700        211.67	    15.937
   5.720        214.17	    16.031
   5.740        213.33	    16.000
   5.760        220.00	    16.248
   5.780        223.33	    16.371
   5.800        235.83	    16.823
   5.820        215.00	    16.062
   5.840        220.00	    16.248
   5.860        197.50	    15.395
   5.880        247.50	    17.234
   5.900        202.50	    15.588
   5.920        215.83	    16.093
   5.940        237.50	    16.882
   5.960        225.83	    16.462
   5.980        214.17	    16.031
   6.000        214.17	    16.031
   6.020        209.17	    15.843
   6.040        241.67	    17.029
   6.060        280.83	    18.358
   6.080        276.67	    18.221
   6.100        297.50	    18.894
   6.120        289.17	    18.628
   6.140        238.33	    16.912
   6.160        248.33	    17.263
   6.180        220.00	    16.248
   6.200        202.50	    15.588
   6.220        219.17	    16.217
   6.240        185.00	    14.900
   6.260        185.00	    14.900
   6.280        205.83	    15.716
   6.300        204.17	    15.652
   6.320        195.00	    15.297
   6.340        210.00	    15.875
   6.360        222.50	    16.340
   6.380        193.33	    15.232
   6.400        205.00	    15.684
   6.420        177.50	    14.595
   6.440        199.17	    15.460
   6.460        205.00	    15.684
   6.480        185.83	    14.933
   6.500        180.00	    14.697
   6.520        177.50	    14.595
   6.540        205.00	    15.684
   6.560        210.83	    15.906
   6.580        196.67	    15.362
   6.600        189.17	    15.067
   6.620        205.83	    15.716
   6.640        192.50	    15.199
   6.660        179.17	    14.663
   6.680        200.83	    15.524
   6.700        171.67	    14.353
   6.720        209.17	    15.843
   6.740        194.17	    15.264
   6.760        179.17	    14.663
   6.780        205.83	    15.716
   6.800        204.17	    15.652
   6.820        197.50	    15.395
   6.840        176.67	    14.560
   6.860        163.33	    14.000
   6.880        189.17	    15.067
   6.900        185.83	    14.933
   6.920        178.33	    14.629
   6.940        173.33	    14.422
   6.960        180.83	    14.731
   6.980        170.83	    14.318
   7.000        177.50	    14.595
   7.020        168.33	    14.213
   7.040        196.67	    15.362
   7.060        178.33	    14.629
   7.080        178.33	    14.629
   7.100        176.67	    14.560
   7.120        200.83	    15.524
   7.140        174.17	    14.457
   7.160        145.83	    13.229
   7.180        166.67	    14.142
   7.200        158.33	    13.784
   7.220        151.67	    13.491
   7.240        155.00	    13.638
   7.260        164.17	    14.036
   7.280        176.67	    14.560
   7.300        166.67	    14.142
   7.320        182.50	    14.799
   7.340        185.00	    14.900
   7.360        165.00	    14.071
   7.380        172.50	    14.387
   7.400        172.50	    14.387
   7.420        163.33	    14.000
   7.440        165.83	    14.107
   7.460        165.83	    14.107
   7.480        156.67	    13.711
   7.500        149.17	    13.379
   7.520        172.50	    14.387
   7.540        160.83	    13.892
   7.560        165.00	    14.071
   7.580        164.17	    14.036
   7.600        162.50	    13.964
   7.620        154.17	    13.601
   7.640        160.00	    13.856
   7.660        150.00	    13.416
   7.680        148.33	    13.342
   7.700        179.17	    14.663
   7.720        151.67	    13.491
   7.740        170.83	    14.318
   7.760        150.83	    13.454
   7.780        164.17	    14.036
   7.800        164.17	    14.036
   7.820        160.00	    13.856
   7.840        129.17	    12.450
   7.860        165.83	    14.107
   7.880        131.67	    12.570
   7.900        159.17	    13.820
   7.920        167.50	    14.177
   7.940        158.33	    13.784
   7.960        149.17	    13.379
   7.980        144.17	    13.153
   8.000        147.50	    13.304
   8.020        162.50	    13.964
   8.040        127.50	    12.369
   8.060        148.33	    13.342
   8.080        151.67	    13.491
   8.100        154.17	    13.601
   8.120        179.17	    14.663
   8.140        130.00	    12.490
   8.160        150.83	    13.454
   8.180        155.83	    13.675
   8.200        174.17	    14.457
   8.220        142.50	    13.077
   8.240        145.83	    13.229
   8.260        154.17	    13.601
   8.280        158.33	    13.784
   8.300        148.33	    13.342
   8.320        165.83	    14.107
   8.340        138.33	    12.884
   8.360        141.67	    13.038
   8.380        189.17	    15.067
   8.400        164.17	    14.036
   8.420        193.33	    15.232
   8.440        150.83	    13.454
   8.460        187.50	    15.000
   8.480        158.33	    13.784
   8.500        182.50	    14.799
   8.520        175.00	    14.491
   8.540        162.50	    13.964
   8.560        199.17	    15.460
   8.580        190.83	    15.133
   8.600        212.50	    15.969
   8.620        225.83	    16.462
   8.640        249.17	    17.292
   8.660        285.00	    18.493
   8.680        287.50	    18.574
   8.700        329.17	    19.875
   8.720        326.67	    19.799
   8.740        400.83	    21.932
   8.760        509.17	    24.718
   8.780        638.33	    27.677
   8.800        661.67	    28.178
   8.820        437.50	    22.913
   8.840        285.00	    18.493
   8.860        200.83	    15.524
   8.880        155.00	    13.638
   8.900        175.83	    14.526
   8.920        148.33	    13.342
   8.940        140.83	    13.000
   8.960        149.17	    13.379
   8.980        147.50	    13.304
   9.000        142.50	    13.077
   9.020        150.83	    13.454
   9.040        152.50	    13.528
   9.060        132.50	    12.610
   9.080        155.83	    13.675
   9.100        155.00	    13.638
   9.120        140.00	    12.961
   9.140        149.17	    13.379
   9.160        152.50	    13.528
   9.180        110.00	    11.489
   9.200        135.83	    12.767
   9.220        130.00	    12.490
   9.240        130.00	    12.490
   9.260        145.83	    13.229
   9.280        133.33	    12.649
   9.300        132.50	    12.610
   9.320        136.67	    12.806
   9.340        141.67	    13.038
   9.360        158.33	    13.784
   9.380        154.17	    13.601
   9.400        126.67	    12.329
   9.420        140.00	    12.961
   9.440        131.67	    12.570
   9.460        124.17	    12.207
   9.480        116.67	    11.832
   9.500        122.50	    12.124
   9.520        122.50	    12.124
   9.540        126.67	    12.329
   9.560        114.17	    11.705
   9.580        145.83	    13.229
   9.600        100.00	    10.954
   9.620        105.83	    11.269
   9.640        119.17	    11.958
   9.660        120.00	    12.000
   9.680        127.50	    12.369
   9.700        118.33	    11.916
   9.720        124.17	    12.207
   9.740         99.17	    10.909
   9.760        130.83	    12.530
   9.780        118.33	    11.916
   9.800        115.83	    11.790
   9.820        119.17	    11.958
   9.840        115.00	    11.747
   9.860        119.17	    11.958
   9.880        122.50	    12.124
   9.900        119.17	    11.958
   9.920        100.83	    11.000
   9.940        108.33	    11.402
   9.960        120.00	    12.000
   9.980        115.83	    11.790
  10.000        117.50	    11.874
  10.020        126.67	    12.329
  10.040        115.00	    11.747
  10.060        129.17	    12.450
  10.080         99.17	    10.909
  10.100        109.17	    11.446
  10.120        110.83	    11.533
  10.140        124.17	    12.207
  10.160        102.50	    11.091
  10.180        103.33	    11.136
  10.200        103.33	    11.136
  10.220        123.33	    12.166
  10.240        122.50	    12.124
  10.260        126.67	    12.329
  10.280        114.17	    11.705
  10.300        109.17	    11.446
  10.320        127.50	    12.369
  10.340        129.17	    12.450
  10.360        131.67	    12.570
  10.380        138.33	    12.884
  10.400        120.00	    12.000
  10.420        142.50	    13.077
  10.440        130.83	    12.530
  10.460        121.67	    12.083
  10.480        117.50	    11.874
  10.500        107.50	    11.358
  10.520        107.50	    11.358
  10.540        100.83	    11.000
  10.560        111.67	    11.576
  10.580        116.67	    11.832
  10.600        105.00	    11.225
  10.620         99.17	    10.909
  10.640         96.67	    10.770
  10.660         95.83	    10.724
  10.680        100.83	    11.000
  10.700         98.33	    10.863
  10.720         95.83	    10.724
  10.740        105.00	    11.225
  10.760        101.67	    11.045
  10.780        118.33	    11.916
  10.800        105.00	    11.225
  10.820        106.67	    11.314
  10.840        125.83	    12.288
  10.860        101.67	    11.045
  10.880        103.33	    11.136
  10.900         95.83	    10.724
  10.920        125.00	    12.247
  10.940         85.83	    10.149
  10.960        101.67	    11.045
  10.980        111.67	    11.576
  11.000        100.00	    10.954
  11.020         88.33	    10.296
  11.040        103.33	    11.136
  11.060         97.50	    10.817
  11.080         96.67	    10.770
  11.100        101.67	    11.045
  11.120        112.50	    11.619
  11.140        101.67	    11.045
  11.160         84.17	    10.050
  11.180        108.33	    11.402
  11.200         87.50	    10.247
  11.220        109.17	    11.446
  11.240         95.00	    10.677
  11.260         99.17	    10.909
  11.280        115.00	    11.747
  11.300         89.17	    10.344
  11.320        107.50	    11.358
  11.340         95.83	    10.724
  11.360         90.00	    10.392
  11.380        101.67	    11.045
  11.400         77.50	     9.644
  11.420         94.17	    10.630
  11.440         97.50	    10.817
  11.460        100.83	    11.000
  11.480        115.00	    11.747
  11.500        115.83	    11.790
  11.520        111.67	    11.576
  11.540         94.17	    10.630
  11.560         96.67	    10.770
  11.580         90.83	    10.440
  11.600        100.00	    10.954
  11.620        117.50	    11.874
  11.640        104.17	    11.180
  11.660         85.83	    10.149
  11.680         97.50	    10.817
  11.700        102.50	    11.091
  11.720        115.83	    11.790
  11.740         90.83	    10.440
  11.760         86.67	    10.198
  11.780         96.67	    10.770
  11.800        107.50	    11.358
  11.820        105.00	    11.225
  11.840        105.00	    11.225
  11.860        106.67	    11.314
  11.880        121.67	    12.083
  11.900        128.33	    12.410
  11.920        107.50	    11.358
  11.940        115.83	    11.790
  11.960         99.17	    10.909
  11.980        130.83	    12.530
  12.000        168.33	    14.213
  12.020        174.17	    14.457
  12.040        208.33	    15.811
  12.060        270.83	    18.028
  12.080        357.50	    20.712
  12.100        420.00	    22.450
  12.120        327.50	    19.824
  12.140        241.67	    17.029
  12.160        206.67	    15.748
  12.180        163.33	    14.000
  12.200        164.17	    14.036
  12.220        173.33	    14.422
  12.240        223.33	    16.371
  12.260        217.50	    16.155
  12.280        187.50	    15.000
  12.300        203.33	    15.620
  12.320        178.33	    14.629
  12.340        233.33	    16.733
  12.360        261.67	    17.720
  12.380        325.83	    19.774
  12.400        340.00	    20.199
  12.420        335.00	    20.050
  12.440        254.17	    17.464
  12.460        175.83	    14.526
  12.480        149.17	    13.379
  12.500        119.17	    11.958
  12.520        107.50	    11.358
  12.540         97.50	    10.817
  12.560         78.33	     9.695
  12.580         92.50	    10.536
  12.600        104.17	    11.180
  12.620         89.17	    10.344
  12.640         97.50	    10.817
  12.660         85.00	    10.100
  12.680         92.50	    10.536
  12.700         90.00	    10.392
  12.720         78.33	     9.695
  12.740        109.17	    11.446
  12.760         86.67	    10.198
  12.780         80.00	     9.798
  12.800         77.50	     9.644
  12.820         94.17	    10.630
  12.840        104.17	    11.180
  12.860        110.00	    11.489
  12.880         88.33	    10.296
  12.900         97.50	    10.817
  12.920         92.50	    10.536
  12.940         88.33	    10.296
  12.960        105.83	    11.269
  12.980         82.50	     9.950
  13.000         80.00	     9.798
  13.020         79.17	     9.747
  13.040         95.00	    10.677
  13.060         72.50	     9.327
  13.080        101.67	    11.045
  13.100         86.67	    10.198
  13.120         86.67	    10.198
  13.140         79.17	     9.747
  13.160         82.50	     9.950
  13.180         80.83	     9.849
  13.200        109.17	    11.446
  13.220         81.67	     9.899
  13.240         91.67	    10.488
  13.260         84.17	    10.050
  13.280         92.50	    10.536
  13.300         80.83	     9.849
  13.320         85.00	    10.100
  13.340         70.00	     9.165
  13.360        100.00	    10.954
  13.380         81.67	     9.899
  13.400         81.67	     9.899
  13.420         84.17	    10.050
  13.440         67.50	     9.000
  13.460         88.33	    10.296
  13.480         98.33	    10.863
  13.500         80.83	     9.849
  13.520         78.33	     9.695
  13.540         84.17	    10.050
  13.560         99.17	    10.909
  13.580         84.17	    10.050
  13.600         94.17	    10.630
  13.620         75.00	     9.487
  13.640         86.67	    10.198
  13.660         79.17	     9.747
  13.680         97.50	    10.817
  13.700         86.67	    10.198
  13.720         86.67	    10.198
  13.740         90.00	    10.392
  13.760        110.00	    11.489
  13.780         79.17	     9.747
  13.800         80.83	     9.849
  13.820         84.17	    10.050
  13.840         81.67	     9.899
  13.860         83.33	    10.000
  13.880         83.33	    10.000
  13.900         71.67	     9.274
  13.920         98.33	    10.863
  13.940         93.33	    10.583
  13.960         91.67	    10.488
  13.980         85.83	    10.149
  14.000         60.83	     8.544
  14.020         68.33	     9.055
  14.040         81.67	     9.899
  14.060         70.00	     9.165
  14.080         72.50	     9.327
  14.100         67.50	     9.000
  14.120         81.67	     9.899
  14.140         75.00	     9.487
  14.160         83.33	    10.000
  14.180         73.33	     9.381
  14.200         70.83	     9.220
  14.220         75.83	     9.539
  14.240         80.83	     9.849
  14.260         69.17	     9.110
  14.280         70.83	     9.220
  14.300         70.00	     9.165
  14.320         69.17	     9.110
  14.340         63.33	     8.718
  14.360         74.17	     9.434
  14.380         75.00	     9.487
  14.400         72.50	     9.327
  14.420         65.00	     8.832
  14.440         75.83	     9.539
  14.460         73.33	     9.381
  14.480         70.00	     9.165
  14.500         78.33	     9.695
  14.520         65.83	     8.888
  14.540         72.50	     9.327
  14.560         71.67	     9.274
  14.580         65.00	     8.832
  14.600         57.50	     8.307
  14.620         55.83	     8.185
  14.640         77.50	     9.644
  14.660         67.50	     9.000
  14.680         64.17	     8.775
  14.700         73.33	     9.381
  14.720         70.83	     9.220
  14.740         75.00	     9.487
  14.760         68.33	     9.055
  14.780         63.33	     8.718
  14.800         57.50	     8.307
  14.820         81.67	     9.899
  14.840         75.83	     9.539
  14.860         67.50	     9.000
  14.880         64.17	     8.775
  14.900         77.50	     9.644
  14.920         71.67	     9.274
  14.940         76.67	     9.592
  14.960         79.17	     9.747
  14.980         64.17	     8.775
  15.000         80.83	     9.849
  15.020         75.00	     9.487
  15.040         86.67	    10.198
  15.060         72.50	     9.327
  15.080         64.17	     8.775
  15.100         77.50	     9.644
  15.120         70.00	     9.165
  15.140         65.83	     8.888
  15.160         77.50	     9.644
  15.180         56.67	     8.246
  15.200         67.50	     9.000
  15.220         78.33	     9.695
  15.240         77.50	     9.644
  15.260         67.50	     9.000
  15.280         67.50	     9.000
  15.300         60.83	     8.544
  15.320         76.67	     9.592
  15.340         73.33	     9.381
  15.360         60.00	     8.485
  15.380         74.17	     9.434
  15.400         75.00	     9.487
  15.420         60.83	     8.544
  15.440         69.17	     9.110
  15.460         73.33	     9.381
  15.480         79.17	     9.747
  15.500         70.00	     9.165
  15.520         70.83	     9.220
  15.540         52.50	     7.937
  15.560         54.17	     8.062
  15.580         70.83	     9.220
  15.600         69.17	     9.110
  15.620         57.50	     8.307
  15.640         70.00	     9.165
  15.660         73.33	     9.381
  15.680         61.67	     8.602
  15.700         65.83	     8.888
  15.720         75.83	     9.539
  15.740         69.17	     9.110
  15.760         77.50	     9.644
  15.780         95.83	    10.724
  15.800         67.50	     9.000
  15.820         62.50	     8.660
  15.840         64.17	     8.775
  15.860         58.33	     8.367
  15.880         82.50	     9.950
  15.900         64.17	     8.775
  15.920         75.00	     9.487
  15.940         55.83	     8.185
  15.960         65.00	     8.832
  15.980         65.83	     8.888
  16.000         67.50	     9.000
  16.020         75.00	     9.487
  16.040         60.00	     8.485
  16.060         55.83	     8.185
  16.080         66.67	     8.944
  16.100         55.00	     8.124
  16.120         75.00	     9.487
  16.140         60.00	     8.485
  16.160         54.17	     8.062
  16.180         67.50	     9.000
  16.200         60.83	     8.544
  16.220         65.83	     8.888
  16.240         44.17	     7.280
  16.260         65.00	     8.832
  16.280         62.50	     8.660
  16.300         69.17	     9.110
  16.320         50.83	     7.810
  16.340         60.83	     8.544
  16.360         80.83	     9.849
  16.380         71.67	     9.274
  16.400         77.50	     9.644
  16.420         56.67	     8.246
  16.440         63.33	     8.718
  16.460         66.67	     8.944
  16.480         58.33	     8.367
  16.500         74.17	     9.434
  16.520         60.83	     8.544
  16.540         65.00	     8.832
  16.560         74.17	     9.434
  16.580         62.50	     8.660
  16.600         65.83	     8.888
  16.620         65.83	     8.888
  16.640         61.67	     8.602
  16.660         65.83	     8.888
  16.680         55.00	     8.124
  16.700         59.17	     8.426
  16.720         54.17	     8.062
  16.740         58.33	     8.367
  16.760         60.00	     8.485
  16.780         62.50	     8.660
  16.800         68.33	     9.055
  16.820         75.83	     9.539
  16.840         74.17	     9.434
  16.860         72.50	     9.327
  16.880         70.00	     9.165
  16.900         68.33	     9.055
  16.920         73.33	     9.381
  16.940         59.17	     8.426
  16.960         60.00	     8.485
  16.980         65.00	     8.832
  17.000         47.50	     7.550
  17.020         74.17	     9.434
  17.040         73.33	     9.381
  17.060         62.50	     8.660
  17.080         65.00	     8.832
  17.100         72.50	     9.327
  17.120         61.67	     8.602
  17.140         66.67	     8.944
  17.160         61.67	     8.602
  17.180         77.50	     9.644
  17.200         66.67	     8.944
  17.220         60.00	     8.485
  17.240         50.83	     7.810
  17.260         59.17	     8.426
  17.280         70.00	     9.165
  17.300         66.67	     8.944
  17.320         77.50	     9.644
  17.340         73.33	     9.381
  17.360         56.67	     8.246
  17.380         73.33	     9.381
  17.400         71.67	     9.274
  17.420         60.00	     8.485
  17.440         55.00	     8.124
  17.460         72.50	     9.327
  17.480         62.50	     8.660
  17.500         57.50	     8.307
  17.520         83.33	    10.000
  17.540         91.67	    10.488
  17.560         88.33	    10.296
  17.580         85.83	    10.149
  17.600         86.67	    10.198
  17.620        100.83	    11.000
  17.640        111.67	    11.576
  17.660        110.00	    11.489
  17.680        170.83	    14.318
  17.700        185.83	    14.933
  17.720        234.17	    16.763
  17.740        212.50	    15.969
  17.760        189.17	    15.067
  17.780        148.33	    13.342
  17.800        120.00	    12.000
  17.820         94.17	    10.630
  17.840         67.50	     9.000
  17.860         85.83	    10.149
  17.880         85.00	    10.100
  17.900         85.00	    10.100
  17.920         72.50	     9.327
  17.940         63.33	     8.718
  17.960         64.17	     8.775
  17.980         64.17	     8.775
  18.000         70.00	     9.165
  18.020         75.83	     9.539
  18.040         66.67	     8.944
  18.060         59.17	     8.426
  18.080         51.67	     7.874
  18.100         65.00	     8.832
  18.120         56.67	     8.246
  18.140         54.17	     8.062
  18.160         63.33	     8.718
  18.180         63.33	     8.718
  18.200         68.33	     9.055
  18.220         75.00	     9.487
  18.240         56.67	     8.246
  18.260         60.83	     8.544
  18.280         61.67	     8.602
  18.300         65.83	     8.888
  18.320         60.83	     8.544
  18.340         58.33	     8.367
  18.360         62.50	     8.660
  18.380         70.83	     9.220
  18.400         80.00	     9.798
  18.420         80.83	     9.849
  18.440        111.67	    11.576
  18.460        118.33	    11.916
  18.480         90.83	    10.440
  18.500        102.50	    11.091
  18.520         82.50	     9.950
  18.540         89.17	    10.344
  18.560         80.83	     9.849
  18.580         98.33	    10.863
  18.600        100.00	    10.954
  18.620         90.83	    10.440
  18.640         95.83	    10.724
  18.660        140.83	    13.000
  18.680        150.83	    13.454
  18.700        175.00	    14.491
  18.720        151.67	    13.491
  18.740        135.00	    12.728
  18.760        115.00	    11.747
  18.780         87.50	    10.247
  18.800         65.00	     8.832
  18.820         74.17	     9.434
  18.840         70.83	     9.220
  18.860         75.83	     9.539
  18.880         77.50	     9.644
  18.900         72.50	     9.327
  18.920         67.50	     9.000
  18.940         69.17	     9.110
  18.960         63.33	     8.718
  18.980         58.33	     8.367
  19.000         47.50	     7.550
  19.020         82.50	     9.950
  19.040         60.00	     8.485
  19.060         73.33	     9.381
  19.080         55.83	     8.185
  19.100         78.33	     9.695
  19.120         68.33	     9.055
  19.140         73.33	     9.381
  19.160         79.17	     9.747
  19.180         83.33	    10.000
  19.200         76.67	     9.592
  19.220         78.33	     9.695
  19.240         73.33	     9.381
  19.260         78.33	     9.695
  19.280         59.17	     8.426
  19.300         70.00	     9.165
  19.320         58.33	     8.367
  19.340         73.33	     9.381
  19.360         69.17	     9.110
  19.380         67.50	     9.000
  19.400         70.83	     9.220
  19.420         53.33	     8.000
  19.440         68.33	     9.055
  19.460         81.67	     9.899
  19.480         80.83	     9.849
  19.500         69.17	     9.110
  19.520         67.50	     9.000
  19.540         65.83	     8.888
  19.560         95.00	    10.677
  19.580         85.83	    10.149
  19.600         84.17	    10.050
  19.620         68.33	     9.055
  19.640         77.50	     9.644
  19.660         91.67	    10.488
  19.680         75.00	     9.487
  19.700         80.00	     9.798
  19.720         87.50	    10.247
  19.740         93.33	    10.583
  19.760         94.17	    10.630
  19.780         89.17	    10.344
  19.800         96.67	    10.770
  19.820         80.00	     9.798
  19.840         68.33	     9.055
  19.860         80.00	     9.798
  19.880         75.83	     9.539
  19.900         79.17	     9.747
  19.920         75.00	     9.487
  19.940         70.83	     9.220
  19.960         61.67	     8.602
  19.980         57.50	     8.307
  20.000         68.33	     9.055
  20.020         64.17	     8.775
  20.040         74.17	     9.434
  20.060         73.33	     9.381
  20.080         53.33	     8.000
  20.100         79.17	     9.747
  20.120         64.17	     8.775
  20.140         62.50	     8.660
  20.160         67.50	     9.000
  20.180         64.17	     8.775
  20.200         65.00	     8.832
  20.220         63.33	     8.718
  20.240         59.17	     8.426
  20.260         52.50	     7.937
  20.280         71.67	     9.274
  20.300         62.50	     8.660
  20.320         50.83	     7.810
  20.340         59.17	     8.426
  20.360         77.50	     9.644
  20.380         50.83	     7.810
  20.400         67.50	     9.000
  20.420         65.83	     8.888
  20.440         66.67	     8.944
  20.460         51.67	     7.874
  20.480         61.67	     8.602
  20.500         75.83	     9.539
  20.520         74.17	     9.434
  20.540         79.17	     9.747
  20.560         79.17	     9.747
  20.580         80.83	     9.849
  20.600         75.00	     9.487
  20.620         76.67	     9.592
  20.640         93.33	    10.583
  20.660         88.33	    10.296
  20.680        136.67	    12.806
  20.700        180.83	    14.731
  20.720        317.50	    19.519
  20.740        500.83	    24.515
  20.760        598.33	    26.796
  20.780        508.33	    24.698
  20.800        407.50	    22.113
  20.820        290.83	    18.682
  20.840        182.50	    14.799
  20.860        116.67	    11.832
  20.880        108.33	    11.402
  20.900        120.00	    12.000
  20.920        110.00	    11.489
  20.940        111.67	    11.576
  20.960        105.00	    11.225
  20.980         99.17	    10.909
  21.000         84.17	    10.050
  21.020         71.67	     9.274
  21.040         75.00	     9.487
  21.060         80.00	     9.798
  21.080         55.00	     8.124
  21.100         74.17	     9.434
  21.120         51.67	     7.874
  21.140         60.83	     8.544
  21.160         66.67	     8.944
  21.180         65.83	     8.888
  21.200         68.33	     9.055
  21.220         52.50	     7.937
  21.240         55.83	     8.185
  21.260         63.33	     8.718
  21.280         66.67	     8.944
  21.300         58.33	     8.367
  21.320         48.33	     7.616
  21.340         53.33	     8.000
  21.360         70.00	     9.165
  21.380         66.67	     8.944
  21.400         61.67	     8.602
  21.420         70.83	     9.220
  21.440         65.00	     8.832
  21.460         70.00	     9.165
  21.480         67.50	     9.000
  21.500         57.50	     8.307
  21.520         64.17	     8.775
  21.540         64.17	     8.775
  21.560         61.67	     8.602
  21.580         55.00	     8.124
  21.600         46.67	     7.483
  21.620         57.50	     8.307
  21.640         57.50	     8.307
  21.660         49.17	     7.681
  21.680         70.00	     9.165
  21.700         69.17	     9.110
  21.720         51.67	     7.874
  21.740         56.67	     8.246
  21.760         65.83	     8.888
  21.780         70.00	     9.165
  21.800         55.00	     8.124
  21.820         60.00	     8.485
  21.840         72.50	     9.327
  21.860        111.67	    11.576
  21.880         92.50	    10.536
  21.900        142.50	    13.077
  21.920        160.00	    13.856
  21.940        202.50	    15.588
  21.960        180.00	    14.697
  21.980        140.83	    13.000
  22.000        118.33	    11.916
  22.020        100.00	    10.954
  22.040         85.83	    10.149
  22.060         60.00	     8.485
  22.080         56.67	     8.246
  22.100         77.50	     9.644
  22.120         60.00	     8.485
  22.140         58.33	     8.367
  22.160         65.83	     8.888
  22.180         63.33	     8.718
  22.200         61.67	     8.602
  22.220         63.33	     8.718
  22.240         70.00	     9.165
  22.260         58.33	     8.367
  22.280         55.00	     8.124
  22.300         65.00	     8.832
  22.320         62.50	     8.660
  22.340         74.17	     9.434
  22.360         75.83	     9.539
  22.380         56.67	     8.246
  22.400         55.83	     8.185
  22.420         73.33	     9.381
  22.440         65.83	     8.888
  22.460         80.83	     9.849
  22.480         65.83	     8.888
  22.500         59.17	     8.426
  22.520         65.00	     8.832
  22.540         50.00	     7.746
  22.560         54.17	     8.062
  22.580         52.50	     7.937
  22.600         63.33	     8.718
  22.620         60.83	     8.544
  22.640         71.67	     9.274
  22.660         65.00	     8.832
  22.680         69.17	     9.110
  22.700         57.50	     8.307
  22.720         69.17	     9.110
  22.740         77.50	     9.644
  22.760         80.00	     9.798
  22.780         79.17	     9.747
  22.800         88.33	    10.296
  22.820         86.67	    10.198
  22.840         91.67	    10.488
  22.860         71.67	     9.274
  22.880         85.00	    10.100
  22.900         88.33	    10.296
  22.920         84.17	    10.050
  22.940         90.00	    10.392
  22.960         90.00	    10.392
  22.980         78.33	     9.695
  23.000         82.50	     9.950
  23.020         72.50	     9.327
  23.040         72.50	     9.327
  23.060         74.17	     9.434
  23.080         68.33	     9.055
  23.100         55.83	     8.185
  23.120         54.17	     8.062
  23.140         55.83	     8.185
  23.160         66.67	     8.944
  23.180         68.33	     9.055
  23.200         59.17	     8.426
  23.220         59.17	     8.426
  23.240         56.67	     8.246
  23.260         85.83	    10.149
  23.280         70.83	     9.220
  23.300         65.83	     8.888
  23.320         67.50	     9.000
  23.340         60.83	     8.544
  23.360         66.67	     8.944
  23.380        106.67	    11.314
  23.400        135.00	    12.728
  23.420        190.83	    15.133
  23.440        201.67	    15.556
  23.460        174.17	    14.457
  23.480        180.00	    14.697
  23.500        161.67	    13.928
  23.520        157.50	    13.748
  23.540        144.17	    13.153
  23.560        116.67	    11.832
  23.580        102.50	    11.091
  23.600         90.00	    10.392
  23.620         75.83	     9.539
  23.640         75.83	     9.539
  23.660         72.50	     9.327
  23.680         79.17	     9.747
  23.700         75.83	     9.539
  23.720         81.67	     9.899
  23.740         85.83	    10.149
  23.760         94.17	    10.630
  23.780         86.67	    10.198
  23.800         73.33	     9.381
  23.820         72.50	     9.327
  23.840         77.50	     9.644
  23.860         89.17	    10.344
  23.880         85.83	    10.149
  23.900         86.67	    10.198
  23.920         74.17	     9.434
  23.940         85.00	    10.100
  23.960         95.83	    10.724
  23.980        105.00	    11.225
  24.000        100.00	    10.954
  24.020        125.83	    12.288
  24.040        167.50	    14.177
  24.060        158.33	    13.784
  24.080        144.17	    13.153
  24.100        144.17	    13.153
  24.120        138.33	    12.884
  24.140        162.50	    13.964
  24.160        178.33	    14.629
  24.180        150.83	    13.454
  24.200        163.33	    14.000
  24.220        165.83	    14.107
  24.240        143.33	    13.115
  24.260         94.17	    10.630
  24.280        114.17	    11.705
  24.300        102.50	    11.091
  24.320         86.67	    10.198
  24.340         81.67	     9.899
  24.360         82.50	     9.950
  24.380         93.33	    10.583
  24.400        125.83	    12.288
  24.420        150.83	    13.454
  24.440        192.50	    15.199
  24.460        208.33	    15.811
  24.480        231.67	    16.673
  24.500        275.00	    18.166
  24.520        297.50	    18.894
  24.540        291.67	    18.708
  24.560        266.67	    17.889
  24.580        221.67	    16.310
  24.600        191.67	    15.166
  24.620        181.67	    14.765
  24.640        140.00	    12.961
  24.660        134.17	    12.689
  24.680        117.50	    11.874
  24.700        105.00	    11.225
  24.720        135.00	    12.728
  24.740        130.00	    12.490
  24.760        125.00	    12.247
  24.780        132.50	    12.610
  24.800        124.17	    12.207
  24.820        109.17	    11.446
  24.840        135.00	    12.728
  24.860        107.50	    11.358
  24.880        110.83	    11.533
  24.900        112.50	    11.619
  24.920        106.67	    11.314
  24.940        127.50	    12.369
  24.960        118.33	    11.916
  24.980        129.17	    12.450
  25.000        175.83	    14.526
  25.020        238.33	    16.912
  25.040        253.33	    17.436
  25.060        256.67	    17.550
  25.080        256.67	    17.550
  25.100        204.17	    15.652
  25.120        198.33	    15.427
  25.140        143.33	    13.115
  25.160        115.00	    11.747
  25.180         94.17	    10.630
  25.200         91.67	    10.488
  25.220         99.17	    10.909
  25.240         85.00	    10.100
  25.260        100.00	    10.954
  25.280        112.50	    11.619
  25.300        115.83	    11.790
  25.320        115.00	    11.747
  25.340        113.33	    11.662
  25.360        119.17	    11.958
  25.380        148.33	    13.342
  25.400        135.83	    12.767
  25.420        150.83	    13.454
  25.440        127.50	    12.369
  25.460        100.83	    11.000
  25.480        110.00	    11.489
  25.500        104.17	    11.180
  25.520        129.17	    12.450
  25.540        100.00	    10.954
  25.560        123.33	    12.166
  25.580         87.50	    10.247
  25.600         95.00	    10.677
  25.620         85.83	    10.149
  25.640         88.33	    10.296
  25.660         84.17	    10.050
  25.680         80.83	     9.849
  25.700         70.83	     9.220
  25.720         65.83	     8.888
  25.740         60.00	     8.485
  25.760         67.50	     9.000
  25.780         57.50	     8.307
  25.800         60.83	     8.544
  25.820         64.17	     8.775
  25.840         65.83	     8.888
  25.860         86.67	    10.198
  25.880         58.33	     8.367
  25.900         66.67	     8.944
  25.920         66.67	     8.944
  25.940         75.83	     9.539
  25.960         58.33	     8.367
  25.980         60.00	     8.485
  26.000         66.67	     8.944
  26.020         65.83	     8.888
  26.040         79.17	     9.747
  26.060         81.67	     9.899
  26.080         69.17	     9.110
  26.100         68.33	     9.055
  26.120         85.00	    10.100
  26.140         80.83	     9.849
  26.160         84.17	    10.050
  26.180        106.67	    11.314
  26.200        103.33	    11.136
  26.220        102.50	    11.091
  26.240        105.00	    11.225
  26.260        125.00	    12.247
  26.280        142.50	    13.077
  26.300        166.67	    14.142
  26.320        164.17	    14.036
  26.340        168.33	    14.213
  26.360        170.83	    14.318
  26.380        169.17	    14.248
  26.400        222.50	    16.340
  26.420        249.17	    17.292
  26.440        321.67	    19.647
  26.460        395.00	    21.772
  26.480        584.17	    26.476
  26.500       1086.67	    36.111
  26.520       1993.33	    48.908
  26.540       2343.33	    53.028
  26.560       1759.17	    45.946
  26.580       1325.83	    39.887
  26.600       1335.00	    40.025
  26.620        997.50	    34.598
  26.640        606.67	    26.981
  26.660        359.17	    20.761
  26.680        352.50	    20.567
  26.700        375.83	    21.237
  26.720        396.67	    21.817
  26.740        485.83	    24.145
  26.760        514.17	    24.839
  26.780        518.33	    24.940
  26.800        527.50	    25.159
  26.820        463.33	    23.580
  26.840        307.50	    19.209
  26.860        277.50	    18.248
  26.880        236.67	    16.852
  26.900        171.67	    14.353
  26.920        125.00	    12.247
  26.940        126.67	    12.329
  26.960        143.33	    13.115
  26.980        143.33	    13.115
  27.000        129.17	    12.450
  27.020        117.50	    11.874
  27.040         95.83	    10.724
  27.060        110.00	    11.489
  27.080         91.67	    10.488
  27.100        103.33	    11.136
  27.120         92.50	    10.536
  27.140         72.50	     9.327
  27.160        114.17	    11.705
  27.180         88.33	    10.296
  27.200         85.00	    10.100
  27.220        100.00	    10.954
  27.240         85.00	    10.100
  27.260        120.83	    12.042
  27.280        105.00	    11.225
  27.300         90.83	    10.440
  27.320         93.33	    10.583
  27.340        111.67	    11.576
  27.360        143.33	    13.115
  27.380        169.17	    14.248
  27.400        212.50	    15.969
  27.420        205.00	    15.684
  27.440        190.83	    15.133
  27.460        153.33	    13.565
  27.480        155.00	    13.638
  27.500        115.00	    11.747
  27.520        105.83	    11.269
  27.540         97.50	    10.817
  27.560        114.17	    11.705
  27.580        140.00	    12.961
  27.600        226.67	    16.492
  27.620        291.67	    18.708
  27.640        358.33	    20.736
  27.660        377.50	    21.284
  27.680        320.83	    19.621
  27.700        276.67	    18.221
  27.720        279.17	    18.303
  27.740        258.33	    17.607
  27.760        249.17	    17.292
  27.780        334.17	    20.025
  27.800        422.50	    22.517
  27.820        408.33	    22.136
  27.840        336.67	    20.100
  27.860        330.00	    19.900
  27.880        347.50	    20.421
  27.900        265.83	    17.861
  27.920        202.50	    15.588
  27.940        171.67	    14.353
  27.960        130.83	    12.530
  27.980        118.33	    11.916
  28.000        125.00	    12.247
  28.020        135.00	    12.728
  28.040        145.83	    13.229
  28.060        128.33	    12.410
  28.080        126.67	    12.329
  28.100        117.50	    11.874
  28.120        119.17	    11.958
  28.140        116.67	    11.832
  28.160        115.00	    11.747
  28.180        140.83	    13.000
  28.200        178.33	    14.629
  28.220        208.33	    15.811
  28.240        209.17	    15.843
  28.260        160.00	    13.856
  28.280        112.50	    11.619
  28.300        127.50	    12.369
  28.320        135.00	    12.728
  28.340         83.33	    10.000
  28.360         81.67	     9.899
  28.380         87.50	    10.247
  28.400         74.17	     9.434
  28.420         85.00	    10.100
  28.440        104.17	    11.180
  28.460         85.00	    10.100
  28.480        123.33	    12.166
  28.500        108.33	    11.402
  28.520        145.00	    13.191
  28.540        123.33	    12.166
  28.560        153.33	    13.565
  28.580        147.50	    13.304
  28.600        149.17	    13.379
  28.620        145.00	    13.191
  28.640        122.50	    12.124
  28.660        100.00	    10.954
  28.680        111.67	    11.576
  28.700         82.50	     9.950
  28.720         74.17	     9.434
  28.740         73.33	     9.381
  28.760         59.17	     8.426
  28.780         63.33	     8.718
  28.800         66.67	     8.944
  28.820         59.17	     8.426
  28.840         55.00	     8.124
  28.860         61.67	     8.602
  28.880         44.17	     7.280
  28.900         61.67	     8.602
  28.920         55.83	     8.185
  28.940         55.83	     8.185
  28.960         43.33	     7.211
  28.980         51.67	     7.874
  29.000         49.17	     7.681
  29.020         47.50	     7.550
  29.040         44.17	     7.280
  29.060         62.50	     8.660
  29.080         50.83	     7.810
  29.100         60.00	     8.485
  29.120         50.83	     7.810
  29.140         37.50	     6.708
  29.160         39.17	     6.856
  29.180         52.50	     7.937
  29.200         48.33	     7.616
  29.220         41.67	     7.071
  29.240         45.00	     7.348
  29.260         51.67	     7.874
  29.280         51.67	     7.874
  29.300         58.33	     8.367
  29.320         37.50	     6.708
  29.340         43.33	     7.211
  29.360         42.50	     7.141
  29.380         53.33	     8.000
  29.400         50.83	     7.810
  29.420         67.50	     9.000
  29.440         45.83	     7.416
  29.460         64.17	     8.775
  29.480         53.33	     8.000
  29.500         47.50	     7.550
  29.520         53.33	     8.000
  29.540         42.50	     7.141
  29.560         52.50	     7.937
  29.580         61.67	     8.602
  29.600         65.83	     8.888
  29.620         69.17	     9.110
  29.640         60.83	     8.544
  29.660         75.83	     9.539
  29.680         80.83	     9.849
  29.700         94.17	    10.630
  29.720        117.50	    11.874
  29.740        135.83	    12.767
  29.760        138.33	    12.884
  29.780        135.83	    12.767
  29.800        106.67	    11.314
  29.820        125.00	    12.247
  29.840        125.00	    12.247
  29.860        105.83	    11.269
  29.880         93.33	    10.583
  29.900         90.83	    10.440
  29.920         93.33	    10.583
  29.940         81.67	     9.899
  29.960         92.50	    10.536
  29.980         90.00	    10.392
  30.000         93.33	    10.583
  30.020        115.00	    11.747
  30.040         95.00	    10.677
  30.060         88.33	    10.296
  30.080        103.33	    11.136
  30.100         96.67	    10.770
  30.120        100.00	    10.954
  30.140        107.50	    11.358
  30.160         82.50	     9.950
  30.180         76.67	     9.592
  30.200         65.00	     8.832
  30.220         85.00	    10.100
  30.240         87.50	    10.247
  30.260         85.83	    10.149
  30.280         68.33	     9.055
  30.300         75.83	     9.539
  30.320         90.00	    10.392
  30.340         89.17	    10.344
  30.360        107.50	    11.358
  30.380        132.50	    12.610
  30.400        141.67	    13.038
  30.420        110.00	    11.489
  30.440        107.50	    11.358
  30.460        100.83	    11.000
  30.480         87.50	    10.247
  30.500        102.50	    11.091
  30.520         75.00	     9.487
  30.540         80.83	     9.849
  30.560         65.83	     8.888
  30.580         69.17	     9.110
  30.600         70.83	     9.220
  30.620         85.00	    10.100
  30.640         89.17	    10.344
  30.660         90.83	    10.440
  30.680        110.83	    11.533
  30.700        127.50	    12.369
  30.720        114.17	    11.705
  30.740        124.17	    12.207
  30.760        133.33	    12.649
  30.780        106.67	    11.314
  30.800         93.33	    10.583
  30.820         85.00	    10.100
  30.840         79.17	     9.747
  30.860         85.00	    10.100
  30.880         70.83	     9.220
  30.900         60.00	     8.485
  30.920         72.50	     9.327
  30.940         60.83	     8.544
  30.960         73.33	     9.381
  30.980         59.17	     8.426
  31.000         62.50	     8.660
  31.020         55.83	     8.185
  31.040         67.50	     9.000
  31.060         84.17	    10.050
  31.080         81.67	     9.899
  31.100         84.17	    10.050
  31.120         94.17	    10.630
  31.140         99.17	    10.909
  31.160         87.50	    10.247
  31.180         90.00	    10.392
  31.200        105.83	    11.269
  31.220         75.83	     9.539
  31.240         75.83	     9.539
  31.260         57.50	     8.307
  31.280         73.33	     9.381
  31.300         72.50	     9.327
  31.320         60.00	     8.485
  31.340         64.17	     8.775
  31.360         60.83	     8.544
  31.380         60.00	     8.485
  31.400         59.17	     8.426
  31.420         79.17	     9.747
  31.440         85.00	    10.100
  31.460         91.67	    10.488
  31.480         90.83	    10.440
  31.500         67.50	     9.000
  31.520         82.50	     9.950
  31.540         77.50	     9.644
  31.560         69.17	     9.110
  31.580         60.83	     8.544
  31.600         68.33	     9.055
  31.620         54.17	     8.062
  31.640         45.83	     7.416
  31.660         46.67	     7.483
  31.680         45.00	     7.348
  31.700         60.00	     8.485
  31.720         61.67	     8.602
  31.740         63.33	     8.718
  31.760         88.33	    10.296
  31.780        133.33	    12.649
  31.800        149.17	    13.379
  31.820        105.83	    11.269
  31.840         75.83	     9.539
  31.860        104.17	    11.180
  31.880        101.67	    11.045
  31.900         76.67	     9.592
  31.920         74.17	     9.434
  31.940         64.17	     8.775
  31.960         70.83	     9.220
  31.980         70.83	     9.220
  32.000         81.67	     9.899
  32.020         66.67	     8.944
  32.040         58.33	     8.367
  32.060         58.33	     8.367
  32.080         59.17	     8.426
  32.100         42.50	     7.141
  32.120         60.83	     8.544
  32.140         62.50	     8.660
  32.160         73.33	     9.381
  32.180         60.83	     8.544
  32.200         86.67	    10.198
  32.220        115.83	    11.790
  32.240         72.50	     9.327
  32.260         55.00	     8.124
  32.280         61.67	     8.602
  32.300         70.83	     9.220
  32.320         62.50	     8.660
  32.340         47.50	     7.550
  32.360         56.67	     8.246
  32.380         50.00	     7.746
  32.400         50.83	     7.810
  32.420         44.17	     7.280
  32.440         34.17	     6.403
  32.460         30.83	     6.083
  32.480         40.00	     6.928
  32.500         25.00	     5.477
  32.520         34.17	     6.403
  32.540         40.83	     7.000
  32.560         34.17	     6.403
  32.580         40.00	     6.928
  32.600         44.17	     7.280
  32.620         56.67	     8.246
  32.640         40.00	     6.928
  32.660         47.50	     7.550
  32.680         46.67	     7.483
  32.700         56.67	     8.246
  32.720         57.50	     8.307
  32.740         58.33	     8.367
  32.760         40.00	     6.928
  32.780         39.17	     6.856
  32.800         54.17	     8.062
  32.820         59.17	     8.426
  32.840         60.00	     8.485
  32.860         39.17	     6.856
  32.880         52.50	     7.937
  32.900         50.83	     7.810
  32.920         73.33	     9.381
  32.940        102.50	    11.091
  32.960         97.50	    10.817
  32.980         85.83	    10.149
  33.000         88.33	    10.296
  33.020         76.67	     9.592
  33.040         78.33	     9.695
  33.060         65.00	     8.832
  33.080         69.17	     9.110
  33.100         54.17	     8.062
  33.120         48.33	     7.616
  33.140         46.67	     7.483
  33.160         52.50	     7.937
  33.180         36.67	     6.633
  33.200         45.83	     7.416
  33.220         46.67	     7.483
  33.240         57.50	     8.307
  33.260         49.17	     7.681
  33.280         52.50	     7.937
  33.300         53.33	     8.000
  33.320         57.50	     8.307
  33.340         45.00	     7.348
  33.360         52.50	     7.937
  33.380         45.83	     7.416
  33.400         60.83	     8.544
  33.420         50.83	     7.810
  33.440         45.00	     7.348
  33.460         50.00	     7.746
  33.480         43.33	     7.211
  33.500         46.67	     7.483
  33.520         38.33	     6.782
  33.540         45.83	     7.416
  33.560         46.67	     7.483
  33.580         47.50	     7.550
  33.600         50.00	     7.746
  33.620         52.50	     7.937
  33.640         45.83	     7.416
  33.660         45.00	     7.348
  33.680         38.33	     6.782
  33.700         40.83	     7.000
  33.720         61.67	     8.602
  33.740         42.50	     7.141
  33.760         63.33	     8.718
  33.780         60.83	     8.544
  33.800         66.67	     8.944
  33.820        101.67	    11.045
  33.840        120.83	    12.042
  33.860        120.83	    12.042
  33.880        111.67	    11.576
  33.900         95.00	    10.677
  33.920         93.33	    10.583
  33.940        101.67	    11.045
  33.960         83.33	    10.000
  33.980         72.50	     9.327
  34.000         70.83	     9.220
  34.020         63.33	     8.718
  34.040         65.00	     8.832
  34.060         74.17	     9.434
  34.080         55.83	     8.185
  34.100         54.17	     8.062
  34.120         52.50	     7.937
  34.140         75.00	     9.487
  34.160         62.50	     8.660
  34.180         70.00	     9.165
  34.200         66.67	     8.944
  34.220         64.17	     8.775
  34.240         69.17	     9.110
  34.260         59.17	     8.426
  34.280         77.50	     9.644
  34.300         82.50	     9.950
  34.320         69.17	     9.110
  34.340         76.67	     9.592
  34.360         97.50	    10.817
  34.380         90.00	    10.392
  34.400        102.50	    11.091
  34.420        122.50	    12.124
  34.440        109.17	    11.446
  34.460        119.17	    11.958
  34.480        136.67	    12.806
  34.500        107.50	    11.358
  34.520         95.00	    10.677
  34.540        100.83	    11.000
  34.560         95.00	    10.677
  34.580        106.67	    11.314
  34.600         83.33	    10.000
  34.620         85.00	    10.100
  34.640         90.83	    10.440
  34.660         74.17	     9.434
  34.680         70.83	     9.220
  34.700         73.33	     9.381
  34.720         82.50	     9.950
  34.740         84.17	    10.050
  34.760         91.67	    10.488
  34.780         96.67	    10.770
  34.800        118.33	    11.916
  34.820        102.50	    11.091
  34.840        106.67	    11.314
  34.860        104.17	    11.180
  34.880        120.00	    12.000
  34.900         92.50	    10.536
  34.920        109.17	    11.446
  34.940        112.50	    11.619
  34.960        105.00	    11.225
  34.980        105.00	    11.225
  35.000        115.00	    11.747
  35.020        104.17	    11.180
  35.040         91.67	    10.488
  35.060         89.17	    10.344
  35.080         71.67	     9.274
  35.100         74.17	     9.434
  35.120         70.83	     9.220
  35.140         85.83	    10.149
  35.160         68.33	     9.055
  35.180         75.00	     9.487
  35.200         89.17	    10.344
  35.220         75.83	     9.539
  35.240         97.50	    10.817
  35.260         95.83	    10.724
  35.280         83.33	    10.000
  35.300         88.33	    10.296
  35.320         91.67	    10.488
  35.340        105.00	    11.225
  35.360        115.00	    11.747
  35.380        107.50	    11.358
  35.400        132.50	    12.610
  35.420        144.17	    13.153
  35.440        170.00	    14.283
  35.460        138.33	    12.884
  35.480        137.50	    12.845
  35.500        119.17	    11.958
  35.520        126.67	    12.329
  35.540        103.33	    11.136
  35.560         94.17	    10.630
  35.580        101.67	    11.045
  35.600         82.50	     9.950
  35.620         79.17	     9.747
  35.640         82.50	     9.950
  35.660         63.33	     8.718
  35.680         65.83	     8.888
  35.700         74.17	     9.434
  35.720         56.67	     8.246
  35.740         55.83	     8.185
  35.760         62.50	     8.660
  35.780         70.00	     9.165
  35.800         56.67	     8.246
  35.820         51.67	     7.874
  35.840         54.17	     8.062
  35.860         65.83	     8.888
  35.880         80.83	     9.849
  35.900         59.17	     8.426
  35.920         63.33	     8.718
  35.940         71.67	     9.274
  35.960         72.50	     9.327
  35.980         76.67	     9.592
  36.000         73.33	     9.381
  36.020         84.17	    10.050
  36.040         80.00	     9.798
  36.060         65.00	     8.832
  36.080         65.00	     8.832
  36.100         81.67	     9.899
  36.120         65.83	     8.888
  36.140         60.00	     8.485
  36.160         50.83	     7.810
  36.180         58.33	     8.367
  36.200         65.83	     8.888
  36.220         58.33	     8.367
  36.240         63.33	     8.718
  36.260         63.33	     8.718
  36.280         73.33	     9.381
  36.300         58.33	     8.367
  36.320         75.00	     9.487
  36.340         85.00	    10.100
  36.360        105.00	    11.225
  36.380         99.17	    10.909
  36.400        168.33	    14.213
  36.420        254.17	    17.464
  36.440        280.83	    18.358
  36.460        281.67	    18.385
  36.480        220.00	    16.248
  36.500        181.67	    14.765
  36.520        200.00	    15.492
  36.540        212.50	    15.969
  36.560        182.50	    14.799
  36.580        135.83	    12.767
  36.600        120.00	    12.000
  36.620        126.67	    12.329
  36.640        112.50	    11.619
  36.660         98.33	    10.863
  36.680        107.50	    11.358
  36.700         90.83	    10.440
  36.720         73.33	     9.381
  36.740         80.00	     9.798
  36.760         65.00	     8.832
  36.780         54.17	     8.062
  36.800         56.67	     8.246
  36.820         45.83	     7.416
  36.840         66.67	     8.944
  36.860         57.50	     8.307
  36.880         67.50	     9.000
  36.900         41.67	     7.071
  36.920         61.67	     8.602
  36.940         66.67	     8.944
  36.960         46.67	     7.483
  36.980         59.17	     8.426
  37.000         58.33	     8.367
  37.020         52.50	     7.937
  37.040         60.00	     8.485
  37.060         39.17	     6.856
  37.080         64.17	     8.775
  37.100         51.67	     7.874
  37.120         70.83	     9.220
  37.140         54.17	     8.062
  37.160         53.33	     8.000
  37.180         55.83	     8.185
  37.200         69.17	     9.110
  37.220         51.67	     7.874
  37.240         76.67	     9.592
  37.260         66.67	     8.944
  37.280         61.67	     8.602
  37.300         74.17	     9.434
  37.320         54.17	     8.062
  37.340         65.83	     8.888
  37.360         60.83	     8.544
  37.380         78.33	     9.695
  37.400         53.33	     8.000
  37.420         71.67	     9.274
  37.440         61.67	     8.602
  37.460         73.33	     9.381
  37.480         80.83	     9.849
  37.500         71.67	     9.274
  37.520         70.00	     9.165
  37.540         92.50	    10.536
  37.560         91.67	    10.488
  37.580         99.17	    10.909
  37.600         95.00	    10.677
  37.620         85.00	    10.100
  37.640         83.33	    10.000
  37.660         77.50	     9.644
  37.680         70.83	     9.220
  37.700         62.50	     8.660
  37.720         67.50	     9.000
  37.740         67.50	     9.000
  37.760         52.50	     7.937
  37.780         64.17	     8.775
  37.800         50.83	     7.810
  37.820         52.50	     7.937
  37.840         50.00	     7.746
  37.860         58.33	     8.367
  37.880         42.50	     7.141
  37.900         44.17	     7.280
  37.920         54.17	     8.062
  37.940         35.83	     6.557
  37.960         44.17	     7.280
  37.980         47.50	     7.550
  38.000         40.83	     7.000
  38.020         39.17	     6.856
  38.040         50.00	     7.746
  38.060         47.50	     7.550
  38.080         41.67	     7.071
  38.100         45.00	     7.348
  38.120         35.00	     6.481
  38.140         40.83	     7.000
  38.160         27.50	     5.745
  38.180         32.50	     6.245
  38.200         38.33	     6.782
  38.220         35.00	     6.481
  38.240         50.83	     7.810
  38.260         41.67	     7.071
  38.280         37.50	     6.708
  38.300         43.33	     7.211
  38.320         46.67	     7.483
  38.340         41.67	     7.071
  38.360         45.83	     7.416
  38.380         58.33	     8.367
  38.400         45.83	     7.416
  38.420         53.33	     8.000
  38.440         36.67	     6.633
  38.460         48.33	     7.616
  38.480         58.33	     8.367
  38.500         55.00	     8.124
  38.520         56.67	     8.246
  38.540         40.00	     6.928
  38.560         51.67	     7.874
  38.580         51.67	     7.874
  38.600         38.33	     6.782
  38.620         46.67	     7.483
  38.640         45.83	     7.416
  38.660         48.33	     7.616
  38.680         47.50	     7.550
  38.700         57.50	     8.307
  38.720         70.00	     9.165
  38.740         50.83	     7.810
  38.760         58.33	     8.367
  38.780         55.83	     8.185
  38.800         54.17	     8.062
  38.820         50.00	     7.746
  38.840         48.33	     7.616
  38.860         56.67	     8.246
  38.880         47.50	     7.550
  38.900         59.17	     8.426
  38.920         55.83	     8.185
  38.940         55.83	     8.185
  38.960         61.67	     8.602
  38.980         53.33	     8.000
  39.000         42.50	     7.141
  39.020         60.83	     8.544
  39.040         54.17	     8.062
  39.060         50.83	     7.810
  39.080         60.83	     8.544
  39.100         55.00	     8.124
  39.120         45.00	     7.348
  39.140         56.67	     8.246
  39.160         60.00	     8.485
  39.180         56.67	     8.246
  39.200         40.00	     6.928
  39.220         35.83	     6.557
  39.240         50.83	     7.810
  39.260         48.33	     7.616
  39.280         60.00	     8.485
  39.300         90.00	    10.392
  39.320        125.83	    12.288
  39.340        200.83	    15.524
  39.360        244.17	    17.117
  39.380        210.83	    15.906
  39.400        147.50	    13.304
  39.420         96.67	    10.770
  39.440        135.83	    12.767
  39.460        158.33	    13.784
  39.480        147.50	    13.304
  39.500        104.17	    11.180
  39.520         81.67	     9.899
  39.540         64.17	     8.775
  39.560         64.17	     8.775
  39.580         57.50	     8.307
  39.600         51.67	     7.874
  39.620         50.00	     7.746
  39.640         60.83	     8.544
  39.660         68.33	     9.055
  39.680         60.83	     8.544
  39.700         58.33	     8.367
  39.720         62.50	     8.660
  39.740         48.33	     7.616
  39.760         43.33	     7.211
  39.780         48.33	     7.616
  39.800         54.17	     8.062
  39.820         55.00	     8.124
  39.840         57.50	     8.307
  39.860         57.50	     8.307
  39.880         50.00	     7.746
  39.900         52.50	     7.937
  39.920         56.67	     8.246
  39.940         51.67	     7.874
  39.960         51.67	     7.874
  39.980         53.33	     8.000
  40.000         56.67	     8.246
  40.020         59.17	     8.426
  40.040         54.17	     8.062
  40.060         53.33	     8.000
  40.080         44.17	     7.280
  40.100         53.33	     8.000
  40.120         55.83	     8.185
  40.140         70.00	     9.165
  40.160         99.17	    10.909
  40.180        157.50	    13.748
  40.200        180.00	    14.697
  40.220        124.17	    12.207
  40.240         85.83	    10.149
  40.260         70.00	     9.165
  40.280         94.17	    10.630
  40.300        102.50	    11.091
  40.320         93.33	    10.583
  40.340         70.00	     9.165
  40.360         50.83	     7.810
  40.380         70.83	     9.220
  40.400         48.33	     7.616
  40.420         44.17	     7.280
  40.440         52.50	     7.937
  40.460         50.83	     7.810
  40.480         49.17	     7.681
  40.500         40.00	     6.928
  40.520         53.33	     8.000
  40.540         43.33	     7.211
  40.560         44.17	     7.280
  40.580         48.33	     7.616
  40.600         54.17	     8.062
  40.620         46.67	     7.483
  40.640         51.67	     7.874
  40.660         61.67	     8.602
  40.680         40.83	     7.000
  40.700         54.17	     8.062
  40.720         50.00	     7.746
  40.740         51.67	     7.874
  40.760         55.83	     8.185
  40.780         46.67	     7.483
  40.800         53.33	     8.000
  40.820         50.00	     7.746
  40.840         47.50	     7.550
  40.860         61.67	     8.602
  40.880         63.33	     8.718
  40.900         45.00	     7.348
  40.920         48.33	     7.616
  40.940         44.17	     7.280
  40.960         43.33	     7.211
  40.980         45.83	     7.416
  41.000         53.33	     8.000
  41.020         48.33	     7.616
  41.040         53.33	     8.000
  41.060         50.83	     7.810
  41.080         58.33	     8.367
  41.100         65.83	     8.888
  41.120         62.50	     8.660
  41.140         46.67	     7.483
  41.160         59.17	     8.426
  41.180         59.17	     8.426
  41.200         77.50	     9.644
  41.220         60.00	     8.485
  41.240         54.17	     8.062
  41.260         67.50	     9.000
  41.280         52.50	     7.937
  41.300         69.17	     9.110
  41.320         56.67	     8.246
  41.340         65.83	     8.888
  41.360         65.83	     8.888
  41.380         59.17	     8.426
  41.400         66.67	     8.944
  41.420         47.50	     7.550
  41.440         66.67	     8.944
  41.460         54.17	     8.062
  41.480         74.17	     9.434
  41.500         67.50	     9.000
  41.520         72.50	     9.327
  41.540         74.17	     9.434
  41.560         99.17	    10.909
  41.580        100.00	    10.954
  41.600        105.00	    11.225
  41.620         95.83	    10.724
  41.640         76.67	     9.592
  41.660         90.00	    10.392
  41.680         91.67	    10.488
  41.700         98.33	    10.863
  41.720         86.67	    10.198
  41.740         72.50	     9.327
  41.760         76.67	     9.592
  41.780         83.33	    10.000
  41.800         78.33	     9.695
  41.820         92.50	    10.536
  41.840         75.83	     9.539
  41.860         76.67	     9.592
  41.880         80.00	     9.798
  41.900         69.17	     9.110
  41.920         63.33	     8.718
  41.940         65.83	     8.888
  41.960         69.17	     9.110
  41.980         52.50	     7.937
  42.000         47.50	     7.550
  42.020         69.17	     9.110
  42.040         43.33	     7.211
  42.060         50.00	     7.746
  42.080         60.00	     8.485
  42.100         53.33	     8.000
  42.120         55.83	     8.185
  42.140         60.00	     8.485
  42.160         65.00	     8.832
  42.180         62.50	     8.660
  42.200         68.33	     9.055
  42.220         71.67	     9.274
  42.240         88.33	    10.296
  42.260         99.17	    10.909
  42.280        110.00	    11.489
  42.300        107.50	    11.358
  42.320        135.00	    12.728
  42.340        209.17	    15.843
  42.360        206.67	    15.748
  42.380        176.67	    14.560
  42.400        156.67	    13.711
  42.420        125.00	    12.247
  42.440        117.50	    11.874
  42.460        125.00	    12.247
  42.480        127.50	    12.369
  42.500        110.00	    11.489
  42.520        103.33	    11.136
  42.540         72.50	     9.327
  42.560         73.33	     9.381
  42.580         57.50	     8.307
  42.600         80.83	     9.849
  42.620         83.33	    10.000
  42.640         65.00	     8.832
  42.660         71.67	     9.274
  42.680         65.83	     8.888
  42.700         73.33	     9.381
  42.720         61.67	     8.602
  42.740         70.00	     9.165
  42.760         60.83	     8.544
  42.780         47.50	     7.550
  42.800         53.33	     8.000
  42.820         52.50	     7.937
  42.840         57.50	     8.307
  42.860         53.33	     8.000
  42.880         61.67	     8.602
  42.900         55.00	     8.124
  42.920         53.33	     8.000
  42.940         60.00	     8.485
  42.960         60.83	     8.544
  42.980         55.83	     8.185
  43.000         53.33	     8.000
  43.020         47.50	     7.550
  43.040         65.00	     8.832
  43.060         43.33	     7.211
  43.080         60.83	     8.544
  43.100         64.17	     8.775
  43.120         82.50	     9.950
  43.140         74.17	     9.434
  43.160         48.33	     7.616
  43.180         58.33	     8.367
  43.200         70.00	     9.165
  43.220         60.83	     8.544
  43.240         72.50	     9.327
  43.260         78.33	     9.695
  43.280         69.17	     9.110
  43.300         55.00	     8.124
  43.320         65.83	     8.888
  43.340         75.83	     9.539
  43.360         59.17	     8.426
  43.380         72.50	     9.327
  43.400         70.00	     9.165
  43.420         70.00	     9.165
  43.440         85.83	    10.149
  43.460         75.00	     9.487
  43.480         77.50	     9.644
  43.500         92.50	    10.536
  43.520        107.50	    11.358
  43.540         93.33	    10.583
  43.560         88.33	    10.296
  43.580         95.83	    10.724
  43.600         93.33	    10.583
  43.620         97.50	    10.817
  43.640        101.67	    11.045
  43.660         89.17	    10.344
  43.680         94.17	    10.630
  43.700         94.17	    10.630
  43.720         99.17	    10.909
  43.740         85.00	    10.100
  43.760         81.67	     9.899
  43.780         80.00	     9.798
  43.800         81.67	     9.899
  43.820         86.67	    10.198
  43.840         89.17	    10.344
  43.860         75.83	     9.539
  43.880         90.83	    10.440
  43.900         84.17	    10.050
  43.920        100.00	    10.954
  43.940         92.50	    10.536
  43.960         85.83	    10.149
  43.980        105.00	    11.225
  44.000        112.50	    11.619
  44.020        127.50	    12.369
  44.040        120.83	    12.042
  44.060        137.50	    12.845
  44.080        125.83	    12.288
  44.100        137.50	    12.845
  44.120        160.83	    13.892
  44.140        180.83	    14.731
  44.160        175.00	    14.491
  44.180        195.83	    15.330
  44.200        185.00	    14.900
  44.220        212.50	    15.969
  44.240        220.00	    16.248
  44.260        225.83	    16.462
  44.280        249.17	    17.292
  44.300        270.83	    18.028
  44.320        279.17	    18.303
  44.340        282.50	    18.412
  44.360        291.67	    18.708
  44.380        324.17	    19.723
  44.400        320.00	    19.596
  44.420        310.00	    19.287
  44.440        317.50	    19.519
  44.460        288.33	    18.601
  44.480        316.67	    19.494
  44.500        274.17	    18.138
  44.520        260.83	    17.692
  44.540        285.83	    18.520
  44.560        258.33	    17.607
  44.580        254.17	    17.464
  44.600        230.83	    16.643
  44.620        235.83	    16.823
  44.640        220.00	    16.248
  44.660        189.17	    15.067
  44.680        190.83	    15.133
  44.700        186.67	    14.967
  44.720        162.50	    13.964
  44.740        137.50	    12.845
  44.760        150.00	    13.416
  44.780        128.33	    12.410
  44.800        129.17	    12.450
  44.820        121.67	    12.083
  44.840        140.83	    13.000
  44.860        116.67	    11.832
  44.880        139.17	    12.923
  44.900        125.00	    12.247
  44.920        122.50	    12.124
  44.940        123.33	    12.166
  44.960        109.17	    11.446
  44.980        103.33	    11.136
  45.000         95.00	    10.677
  45.020         92.50	    10.536
  45.040         82.50	     9.950
  45.060         88.33	    10.296
  45.080         80.00	     9.798
  45.100         76.67	     9.592
  45.120         82.50	     9.950
  45.140         90.00	    10.392
  45.160         87.50	    10.247
  45.180         97.50	    10.817
  45.200         90.83	    10.440
  45.220        101.67	    11.045
  45.240         75.83	     9.539
  45.260         80.83	     9.849
  45.280        100.83	    11.000
  45.300         92.50	    10.536
  45.320        111.67	    11.576
  45.340        121.67	    12.083
  45.360        131.67	    12.570
  45.380        154.17	    13.601
  45.400        148.33	    13.342
  45.420        178.33	    14.629
  45.440        165.00	    14.071
  45.460        187.50	    15.000
  45.480        180.83	    14.731
  45.500        191.67	    15.166
  45.520        179.17	    14.663
  45.540        168.33	    14.213
  45.560        145.00	    13.191
  45.580        126.67	    12.329
  45.600        110.00	    11.489
  45.620        124.17	    12.207
  45.640        122.50	    12.124
  45.660        141.67	    13.038
  45.680        152.50	    13.528
  45.700        145.83	    13.229
  45.720        130.83	    12.530
  45.740         87.50	    10.247
  45.760         91.67	    10.488
  45.780         95.83	    10.724
  45.800        107.50	    11.358
  45.820         95.00	    10.677
  45.840         94.17	    10.630
  45.860         76.67	     9.592
  45.880         68.33	     9.055
  45.900         58.33	     8.367
  45.920         60.00	     8.485
  45.940         50.83	     7.810
  45.960         50.83	     7.810
  45.980         60.00	     8.485
  46.000         40.83	     7.000
  46.020         56.67	     8.246
  46.040         54.17	     8.062
  46.060         47.50	     7.550
  46.080         54.17	     8.062
  46.100         40.83	     7.000
  46.120         50.83	     7.810
  46.140         55.00	     8.124
  46.160         41.67	     7.071
  46.180         48.33	     7.616
  46.200         40.00	     6.928
  46.220         44.17	     7.280
  46.240         45.83	     7.416
  46.260         45.83	     7.416
  46.280         43.33	     7.211
  46.300         29.17	     5.916
  46.320         41.67	     7.071
  46.340         38.33	     6.782
  46.360         40.00	     6.928
  46.380         43.33	     7.211
  46.400         46.67	     7.483
  46.420         39.17	     6.856
  46.440         42.50	     7.141
  46.460         38.33	     6.782
  46.480         42.50	     7.141
  46.500         45.83	     7.416
  46.520         36.67	     6.633
  46.540         39.17	     6.856
  46.560         32.50	     6.245
  46.580         35.00	     6.481
  46.600         46.67	     7.483
  46.620         45.83	     7.416
  46.640         38.33	     6.782
  46.660         34.17	     6.403
  46.680         44.17	     7.280
  46.700         36.67	     6.633
  46.720         46.67	     7.483
  46.740         45.83	     7.416
  46.760         44.17	     7.280
  46.780         40.00	     6.928
  46.800         42.50	     7.141
  46.820         35.83	     6.557
  46.840         45.83	     7.416
  46.860         44.17	     7.280
  46.880         40.83	     7.000
  46.900         40.83	     7.000
  46.920         31.67	     6.164
  46.940         44.17	     7.280
  46.960         54.17	     8.062
  46.980         52.50	     7.937
  47.000         40.83	     7.000
  47.020         55.83	     8.185
  47.040         56.67	     8.246
  47.060         52.50	     7.937
  47.080         44.17	     7.280
  47.100         53.33	     8.000
  47.120         47.50	     7.550
  47.140         59.17	     8.426
  47.160         63.33	     8.718
  47.180         66.67	     8.944
  47.200         63.33	     8.718
  47.220         60.83	     8.544
  47.240         54.17	     8.062
  47.260         53.33	     8.000
  47.280         48.33	     7.616
  47.300         41.67	     7.071
  47.320         44.17	     7.280
  47.340         49.17	     7.681
  47.360         42.50	     7.141
  47.380         35.83	     6.557
  47.400         48.33	     7.616
  47.420         39.17	     6.856
  47.440         25.83	     5.568
  47.460         42.50	     7.141
  47.480         44.17	     7.280
  47.500         36.67	     6.633
  47.520         44.17	     7.280
  47.540         35.83	     6.557
  47.560         31.67	     6.164
  47.580         40.00	     6.928
  47.600         34.17	     6.403
  47.620         27.50	     5.745
  47.640         36.67	     6.633
  47.660         27.50	     5.745
  47.680         35.83	     6.557
  47.700         32.50	     6.245
  47.720         39.17	     6.856
  47.740         42.50	     7.141
  47.760         32.50	     6.245
  47.780         36.67	     6.633
  47.800         55.00	     8.124
  47.820         40.83	     7.000
  47.840         54.17	     8.062
  47.860         60.00	     8.485
  47.880         47.50	     7.550
  47.900         59.17	     8.426
  47.920         37.50	     6.708
  47.940         37.50	     6.708
  47.960         56.67	     8.246
  47.980         44.17	     7.280
  48.000         51.67	     7.874
  48.020         60.00	     8.485
  48.040         55.83	     8.185
  48.060         62.50	     8.660
  48.080         64.17	     8.775
  48.100         50.00	     7.746
  48.120         60.00	     8.485
  48.140         65.83	     8.888
  48.160         63.33	     8.718
  48.180         62.50	     8.660
  48.200         58.33	     8.367
  48.220         53.33	     8.000
  48.240         45.00	     7.348
  48.260         55.00	     8.124
  48.280         50.83	     7.810
  48.300         47.50	     7.550
  48.320         45.00	     7.348
  48.340         44.17	     7.280
  48.360         50.83	     7.810
  48.380         44.17	     7.280
  48.400         50.00	     7.746
  48.420         29.17	     5.916
  48.440         43.33	     7.211
  48.460         45.00	     7.348
  48.480         45.83	     7.416
  48.500         41.67	     7.071
  48.520         43.33	     7.211
  48.540         32.50	     6.245
  48.560         45.00	     7.348
  48.580         37.50	     6.708
  48.600         47.50	     7.550
  48.620         37.50	     6.708
  48.640         35.00	     6.481
  48.660         39.17	     6.856
  48.680         32.50	     6.245
  48.700         41.67	     7.071
  48.720         49.17	     7.681
  48.740         43.33	     7.211
  48.760         47.50	     7.550
  48.780         40.00	     6.928
  48.800         31.67	     6.164
  48.820         51.67	     7.874
  48.840         39.17	     6.856
  48.860         45.00	     7.348
  48.880         45.00	     7.348
  48.900         45.00	     7.348
  48.920         53.33	     8.000
  48.940         51.67	     7.874
  48.960         48.33	     7.616
  48.980         39.17	     6.856
  49.000         42.50	     7.141
  49.020         47.50	     7.550
  49.040         41.67	     7.071
  49.060         53.33	     8.000
  49.080         49.17	     7.681
  49.100         53.33	     8.000
  49.120         60.83	     8.544
  49.140         57.50	     8.307
  49.160         44.17	     7.280
  49.180         42.50	     7.141
  49.200         54.17	     8.062
  49.220         40.00	     6.928
  49.240         38.33	     6.782
  49.260         35.00	     6.481
  49.280         43.33	     7.211
  49.300         54.17	     8.062
  49.320         40.00	     6.928
  49.340         47.50	     7.550
  49.360         31.67	     6.164
  49.380         41.67	     7.071
  49.400         52.50	     7.937
  49.420         57.50	     8.307
  49.440         49.17	     7.681
  49.460         50.00	     7.746
  49.480         60.83	     8.544
  49.500         44.17	     7.280
  49.520         60.00	     8.485
  49.540         41.67	     7.071
  49.560         57.50	     8.307
  49.580         42.50	     7.141
  49.600         59.17	     8.426
  49.620         56.67	     8.246
  49.640         40.83	     7.000
  49.660         78.33	     9.695
  49.680         77.50	     9.644
  49.700         94.17	    10.630
  49.720         89.17	    10.344
  49.740         79.17	     9.747
  49.760         64.17	     8.775
  49.780         86.67	    10.198
  49.800         94.17	    10.630
  49.820         91.67	    10.488
  49.840         97.50	    10.817
  49.860         95.83	    10.724
  49.880         82.50	     9.950
  49.900        103.33	    11.136
  49.920        106.67	    11.314
  49.940        107.50	    11.358
  49.960        147.50	    13.304
  49.980        183.33	    14.832
  50.000        330.83	    19.925
  50.020        372.50	    21.142
  50.040        438.33	    22.935
  50.060        344.17	    20.322
  50.080        232.50	    16.703
  50.100        166.67	    14.142
  50.120        160.83	    13.892
  50.140        210.00	    15.875
  50.160        245.00	    17.146
  50.180        280.00	    18.330
  50.200        178.33	    14.629
  50.220        124.17	    12.207
  50.240         80.00	     9.798
  50.260         95.83	    10.724
  50.280         70.83	     9.220
  50.300         56.67	     8.246
  50.320         57.50	     8.307
  50.340         65.00	     8.832
  50.360         66.67	     8.944
  50.380         45.83	     7.416
  50.400         64.17	     8.775
  50.420         73.33	     9.381
  50.440         65.00	     8.832
  50.460         77.50	     9.644
  50.480         76.67	     9.592
  50.500         85.83	    10.149
  50.520         76.67	     9.592
  50.540         72.50	     9.327
  50.560         77.50	     9.644
  50.580         91.67	    10.488
  50.600         85.83	    10.149
  50.620         80.00	     9.798
  50.640         75.83	     9.539
  50.660         80.00	     9.798
  50.680         70.83	     9.220
  50.700         59.17	     8.426
  50.720         60.00	     8.485
  50.740         65.83	     8.888
  50.760         47.50	     7.550
  50.780         56.67	     8.246
  50.800         62.50	     8.660
  50.820         48.33	     7.616
  50.840         45.00	     7.348
  50.860         46.67	     7.483
  50.880         40.83	     7.000
  50.900         46.67	     7.483
  50.920         53.33	     8.000
  50.940         47.50	     7.550
  50.960         59.17	     8.426
  50.980         66.67	     8.944
  51.000         75.00	     9.487
  51.020         84.17	    10.050
  51.040         79.17	     9.747
  51.060         66.67	     8.944
  51.080         69.17	     9.110
  51.100         55.83	     8.185
  51.120         68.33	     9.055
  51.140         53.33	     8.000
  51.160         64.17	     8.775
  51.180         61.67	     8.602
  51.200         69.17	     9.110
  51.220         59.17	     8.426
  51.240         49.17	     7.681
  51.260         46.67	     7.483
  51.280         40.83	     7.000
  51.300         28.33	     5.831
  51.320         44.17	     7.280
  51.340         37.50	     6.708
  51.360         48.33	     7.616
  51.380         37.50	     6.708
  51.400         39.17	     6.856
  51.420         49.17	     7.681
  51.440         48.33	     7.616
  51.460         37.50	     6.708
  51.480         47.50	     7.550
  51.500         42.50	     7.141
  51.520         50.83	     7.810
  51.540         60.83	     8.544
  51.560         61.67	     8.602
  51.580         53.33	     8.000
  51.600         44.17	     7.280
  51.620         47.50	     7.550
  51.640         39.17	     6.856
  51.660         48.33	     7.616
  51.680         42.50	     7.141
  51.700         43.33	     7.211
  51.720         40.00	     6.928
  51.740         34.17	     6.403
  51.760         34.17	     6.403
  51.780         35.00	     6.481
  51.800         31.67	     6.164
  51.820         37.50	     6.708
  51.840         32.50	     6.245
  51.860         40.83	     7.000
  51.880         35.00	     6.481
  51.900         35.83	     6.557
  51.920         41.67	     7.071
  51.940         32.50	     6.245
  51.960         38.33	     6.782
  51.980         49.17	     7.681
  52.000         46.67	     7.483
  52.020         55.00	     8.124
  52.040         56.67	     8.246
  52.060         70.00	     9.165
  52.080         47.50	     7.550
  52.100         48.33	     7.616
  52.120         48.33	     7.616
  52.140         48.33	     7.616
  52.160         45.00	     7.348
  52.180         56.67	     8.246
  52.200         56.67	     8.246
  52.220         55.83	     8.185
  52.240         81.67	     9.899
  52.260        130.83	    12.530
  52.280         87.50	    10.247
  52.300         66.67	     8.944
  52.320         45.00	     7.348
  52.340         56.67	     8.246
  52.360         60.00	     8.485
  52.380         58.33	     8.367
  52.400         83.33	    10.000
  52.420         62.50	     8.660
  52.440         63.33	     8.718
  52.460         59.17	     8.426
  52.480         43.33	     7.211
  52.500         51.67	     7.874
  52.520         52.50	     7.937
  52.540         43.33	     7.211
  52.560         35.83	     6.557
  52.580         46.67	     7.483
  52.600         52.50	     7.937
  52.620         45.83	     7.416
  52.640         37.50	     6.708
  52.660         44.17	     7.280
  52.680         42.50	     7.141
  52.700         51.67	     7.874
  52.720         37.50	     6.708
  52.740         38.33	     6.782
  52.760         49.17	     7.681
  52.780         45.83	     7.416
  52.800         39.17	     6.856
  52.820         41.67	     7.071
  52.840         31.67	     6.164
  52.860         39.17	     6.856
  52.880         46.67	     7.483
  52.900         45.83	     7.416
  52.920         35.83	     6.557
  52.940         41.67	     7.071
  52.960         36.67	     6.633
  52.980         45.83	     7.416
  53.000         42.50	     7.141
  53.020         51.67	     7.874
  53.040         45.00	     7.348
  53.060         42.50	     7.141
  53.080         51.67	     7.874
  53.100         55.00	     8.124
  53.120         50.83	     7.810
  53.140         48.33	     7.616
  53.160         50.00	     7.746
  53.180         36.67	     6.633
  53.200         51.67	     7.874
  53.220         67.50	     9.000
  53.240         59.17	     8.426
  53.260         64.17	     8.775
  53.280         65.00	     8.832
  53.300         67.50	     9.000
  53.320         70.00	     9.165
  53.340         70.00	     9.165
  53.360         66.67	     8.944
  53.380         59.17	     8.426
  53.400         63.33	     8.718
  53.420         54.17	     8.062
  53.440         49.17	     7.681
  53.460         45.00	     7.348
  53.480         44.17	     7.280
  53.500         41.67	     7.071
  53.520         47.50	     7.550
  53.540         42.50	     7.141
  53.560         50.00	     7.746
  53.580         32.50	     6.245
  53.600         43.33	     7.211
  53.620         30.83	     6.083
  53.640         35.00	     6.481
  53.660         43.33	     7.211
  53.680         38.33	     6.782
  53.700         35.00	     6.481
  53.720         39.17	     6.856
  53.740         34.17	     6.403
  53.760         44.17	     7.280
  53.780         37.50	     6.708
  53.800         47.50	     7.550
  53.820         35.00	     6.481
  53.840         45.83	     7.416
  53.860         52.50	     7.937
  53.880         34.17	     6.403
  53.900         38.33	     6.782
  53.920         30.83	     6.083
  53.940         29.17	     5.916
  53.960         44.17	     7.280
  53.980         48.33	     7.616
  54.000         56.67	     8.246
  54.020         42.50	     7.141
  54.040         43.33	     7.211
  54.060         29.17	     5.916
  54.080         45.83	     7.416
  54.100         40.83	     7.000
  54.120         39.17	     6.856
  54.140         44.17	     7.280
  54.160         50.00	     7.746
  54.180         46.67	     7.483
  54.200         49.17	     7.681
  54.220         44.17	     7.280
  54.240         45.00	     7.348
  54.260         42.50	     7.141
  54.280         41.67	     7.071
  54.300         50.83	     7.810
  54.320         46.67	     7.483
  54.340         42.50	     7.141
  54.360         43.33	     7.211
  54.380         43.33	     7.211
  54.400         40.83	     7.000
  54.420         44.17	     7.280
  54.440         51.67	     7.874
  54.460         46.67	     7.483
  54.480         58.33	     8.367
  54.500         45.83	     7.416
  54.520         49.17	     7.681
  54.540         40.00	     6.928
  54.560         44.17	     7.280
  54.580         50.83	     7.810
  54.600         57.50	     8.307
  54.620         59.17	     8.426
  54.640         52.50	     7.937
  54.660         61.67	     8.602
  54.680         62.50	     8.660
  54.700         79.17	     9.747
  54.720         86.67	    10.198
  54.740         94.17	    10.630
  54.760        110.00	    11.489
  54.780        116.67	    11.832
  54.800        119.17	    11.958
  54.820         83.33	    10.000
  54.840         57.50	     8.307
  54.860         61.67	     8.602
  54.880         59.17	     8.426
  54.900         83.33	    10.000
  54.920         95.00	    10.677
  54.940         78.33	     9.695
  54.960         65.83	     8.888
  54.980         54.17	     8.062
  55.000         45.83	     7.416
  55.020         53.33	     8.000
  55.040         50.83	     7.810
  55.060         55.83	     8.185
  55.080         51.67	     7.874
  55.100         49.17	     7.681
  55.120         54.17	     8.062
  55.140         57.50	     8.307
  55.160         60.00	     8.485
  55.180         84.17	    10.050
  55.200         87.50	    10.247
  55.220        120.00	    12.000
  55.240        160.00	    13.856
  55.260        100.00	    10.954
  55.280         90.00	    10.392
  55.300         69.17	     9.110
  55.320         64.17	     8.775
  55.340         75.83	     9.539
  55.360         75.83	     9.539
  55.380         97.50	    10.817
  55.400        102.50	    11.091
  55.420         64.17	     8.775
  55.440         62.50	     8.660
  55.460         66.67	     8.944
  55.480         44.17	     7.280
  55.500         55.83	     8.185
  55.520         60.00	     8.485
  55.540         60.83	     8.544
  55.560         70.83	     9.220
  55.580         65.00	     8.832
  55.600         62.50	     8.660
  55.620         55.00	     8.124
  55.640         73.33	     9.381
  55.660         67.50	     9.000
  55.680         49.17	     7.681
  55.700         60.00	     8.485
  55.720         69.17	     9.110
  55.740         76.67	     9.592
  55.760         61.67	     8.602
  55.780         73.33	     9.381
  55.800         66.67	     8.944
  55.820         67.50	     9.000
  55.840         60.83	     8.544
  55.860         61.67	     8.602
  55.880         50.83	     7.810
  55.900         52.50	     7.937
  55.920         48.33	     7.616
  55.940         38.33	     6.782
  55.960         55.83	     8.185
  55.980         61.67	     8.602
  56.000         54.17	     8.062
  56.020         44.17	     7.280
  56.040         50.83	     7.810
  56.060         50.00	     7.746
  56.080         54.17	     8.062
  56.100         54.17	     8.062
  56.120         41.67	     7.071
  56.140         50.00	     7.746
  56.160         49.17	     7.681
  56.180         43.33	     7.211
  56.200         55.00	     8.124
  56.220         33.33	     6.325
  56.240         46.67	     7.483
  56.260         60.83	     8.544
  56.280         42.50	     7.141
  56.300         35.83	     6.557
  56.320         43.33	     7.211
  56.340         50.83	     7.810
  56.360         47.50	     7.550
  56.380         37.50	     6.708
  56.400         54.17	     8.062
  56.420         48.33	     7.616
  56.440         49.17	     7.681
  56.460         49.17	     7.681
  56.480         59.17	     8.426
  56.500         55.83	     8.185
  56.520         58.33	     8.367
  56.540         50.00	     7.746
  56.560         45.00	     7.348
  56.580         40.00	     6.928
  56.600         54.17	     8.062
  56.620         51.67	     7.874
  56.640         40.83	     7.000
  56.660         51.67	     7.874
  56.680         36.67	     6.633
  56.700         34.17	     6.403
  56.720         39.17	     6.856
  56.740         32.50	     6.245
  56.760         40.83	     7.000
  56.780         35.00	     6.481
  56.800         44.17	     7.280
  56.820         26.67	     5.657
  56.840         48.33	     7.616
  56.860         35.83	     6.557
  56.880         42.50	     7.141
  56.900         35.83	     6.557
  56.920         34.17	     6.403
  56.940         45.00	     7.348
  56.960         38.33	     6.782
  56.980         47.50	     7.550
  57.000         46.67	     7.483
  57.020         44.17	     7.280
  57.040         35.00	     6.481
  57.060         47.50	     7.550
  57.080         40.83	     7.000
  57.100         48.33	     7.616
  57.120         54.17	     8.062
  57.140         43.33	     7.211
  57.160         32.50	     6.245
  57.180         43.33	     7.211
  57.200         39.17	     6.856
  57.220         30.00	     6.000
  57.240         42.50	     7.141
  57.260         51.67	     7.874
  57.280         50.83	     7.810
  57.300         35.00	     6.481
  57.320         39.17	     6.856
  57.340         33.33	     6.325
  57.360         31.67	     6.164
  57.380         37.50	     6.708
  57.400         30.83	     6.083
  57.420         51.67	     7.874
  57.440         35.83	     6.557
  57.460         39.17	     6.856
  57.480         39.17	     6.856
  57.500         33.33	     6.325
  57.520         36.67	     6.633
  57.540         36.67	     6.633
  57.560         36.67	     6.633
  57.580         35.83	     6.557
  57.600         35.83	     6.557
  57.620         41.67	     7.071
  57.640         40.83	     7.000
  57.660         50.83	     7.810
  57.680         46.67	     7.483
  57.700         34.17	     6.403
  57.720         43.33	     7.211
  57.740         44.17	     7.280
  57.760         39.17	     6.856
  57.780         35.83	     6.557
  57.800         39.17	     6.856
  57.820         30.00	     6.000
  57.840         34.17	     6.403
  57.860         36.67	     6.633
  57.880         25.83	     5.568
  57.900         33.33	     6.325
  57.920         46.67	     7.483
  57.940         32.50	     6.245
  57.960         41.67	     7.071
  57.980         35.00	     6.481
  58.000         44.17	     7.280
  58.020         45.00	     7.348
  58.040         38.33	     6.782
  58.060         44.17	     7.280
  58.080         49.17	     7.681
  58.100         39.17	     6.856
  58.120         37.50	     6.708
  58.140         40.83	     7.000
  58.160         44.17	     7.280
  58.180         36.67	     6.633
  58.200         34.17	     6.403
  58.220         30.00	     6.000
  58.240         42.50	     7.141
  58.260         43.33	     7.211
  58.280         37.50	     6.708
  58.300         45.00	     7.348
  58.320         46.67	     7.483
  58.340         55.00	     8.124
  58.360         47.50	     7.550
  58.380         47.50	     7.550
  58.400         40.00	     6.928
  58.420         43.33	     7.211
  58.440         40.83	     7.000
  58.460         48.33	     7.616
  58.480         50.00	     7.746
  58.500         40.00	     6.928
  58.520         49.17	     7.681
  58.540         49.17	     7.681
  58.560         67.50	     9.000
  58.580         57.50	     8.307
  58.600         46.67	     7.483
  58.620         46.67	     7.483
  58.640         54.17	     8.062
  58.660         66.67	     8.944
  58.680         57.50	     8.307
  58.700         55.00	     8.124
  58.720         64.17	     8.775
  58.740         50.83	     7.810
  58.760         53.33	     8.000
  58.780         32.50	     6.245
  58.800         56.67	     8.246
  58.820         58.33	     8.367
  58.840         47.50	     7.550
  58.860         50.83	     7.810
  58.880         51.67	     7.874
  58.900         42.50	     7.141
  58.920         40.00	     6.928
  58.940         49.17	     7.681
  58.960         45.00	     7.348
  58.980         60.83	     8.544
  59.000         64.17	     8.775
  59.020         60.00	     8.485
  59.040         53.33	     8.000
  59.060         43.33	     7.211
  59.080         53.33	     8.000
  59.100         60.83	     8.544
  59.120         78.33	     9.695
  59.140         67.50	     9.000
  59.160         56.67	     8.246
  59.180         49.17	     7.681
  59.200         66.67	     8.944
  59.220         64.17	     8.775
  59.240         46.67	     7.483
  59.260         45.00	     7.348
  59.280         59.17	     8.426
  59.300         59.17	     8.426
  59.320         41.67	     7.071
  59.340         53.33	     8.000
  59.360         41.67	     7.071
  59.380         53.33	     8.000
  59.400         45.00	     7.348
  59.420         40.00	     6.928
  59.440         43.33	     7.211
  59.460         51.67	     7.874
  59.480         41.67	     7.071
  59.500         42.50	     7.141
  59.520         44.17	     7.280
  59.540         49.17	     7.681
  59.560         46.67	     7.483
  59.580         55.00	     8.124
  59.600         72.50	     9.327
  59.620         80.00	     9.798
  59.640         94.17	    10.630
  59.660         78.33	     9.695
  59.680         82.50	     9.950
  59.700         63.33	     8.718
  59.720         80.83	     9.849
  59.740         97.50	    10.817
  59.760        110.83	    11.533
  59.780        121.67	    12.083
  59.800        177.50	    14.595
  59.820        220.00	    16.248
  59.840        285.00	    18.493
  59.860        322.50	    19.672
  59.880        270.00	    18.000
  59.900        187.50	    15.000
  59.920        158.33	    13.784
  59.940        104.17	    11.180
  59.960        124.17	    12.207
  59.980        130.83	    12.530
  60.000        155.00	    13.638
  60.020        170.83	    14.318
  60.040        170.83	    14.318
  60.060        130.00	    12.490
  60.080         90.83	    10.440
  60.100         75.83	     9.539
  60.120         80.00	     9.798
  60.140         73.33	     9.381
  60.160         75.00	     9.487
  60.180         61.67	     8.602
  60.200         81.67	     9.899
  60.220         55.00	     8.124
  60.240         63.33	     8.718
  60.260         69.17	     9.110
  60.280         51.67	     7.874
  60.300         62.50	     8.660
  60.320         70.83	     9.220
  60.340         60.83	     8.544
  60.360         65.00	     8.832
  60.380         55.83	     8.185
  60.400         52.50	     7.937
  60.420         50.83	     7.810
  60.440         54.17	     8.062
  60.460         61.67	     8.602
  60.480         70.83	     9.220
  60.500         58.33	     8.367
  60.520         59.17	     8.426
  60.540         64.17	     8.775
  60.560         65.00	     8.832
  60.580         75.83	     9.539
  60.600         84.17	    10.050
  60.620         91.67	    10.488
  60.640         71.67	     9.274
  60.660         68.33	     9.055
  60.680         61.67	     8.602
  60.700         60.83	     8.544
  60.720         60.83	     8.544
  60.740         67.50	     9.000
  60.760         75.00	     9.487
  60.780         64.17	     8.775
  60.800         66.67	     8.944
  60.820         71.67	     9.274
  60.840         64.17	     8.775
  60.860         63.33	     8.718
  60.880         70.83	     9.220
  60.900         58.33	     8.367
  60.920         57.50	     8.307
  60.940         55.83	     8.185
  60.960         65.83	     8.888
  60.980         65.00	     8.832
  61.000         68.33	     9.055
  61.020         50.00	     7.746
  61.040         46.67	     7.483
  61.060         56.67	     8.246
  61.080         57.50	     8.307
  61.100         63.33	     8.718
  61.120         54.17	     8.062
  61.140         48.33	     7.616
  61.160         59.17	     8.426
  61.180         48.33	     7.616
  61.200         50.83	     7.810
  61.220         60.00	     8.485
  61.240         52.50	     7.937
  61.260         78.33	     9.695
  61.280         62.50	     8.660
  61.300         84.17	    10.050
  61.320         95.83	    10.724
  61.340         88.33	    10.296
  61.360         90.00	    10.392
  61.380         77.50	     9.644
  61.400         67.50	     9.000
  61.420         70.00	     9.165
  61.440         68.33	     9.055
  61.460         76.67	     9.592
  61.480         80.00	     9.798
  61.500         86.67	    10.198
  61.520         77.50	     9.644
  61.540         60.00	     8.485
  61.560         65.83	     8.888
  61.580         76.67	     9.592
  61.600         74.17	     9.434
  61.620         76.67	     9.592
  61.640         61.67	     8.602
  61.660         72.50	     9.327
  61.680         61.67	     8.602
  61.700         50.00	     7.746
  61.720         69.17	     9.110
  61.740         55.83	     8.185
  61.760         53.33	     8.000
  61.780         66.67	     8.944
  61.800         65.83	     8.888
  61.820         51.67	     7.874
  61.840         62.50	     8.660
  61.860         62.50	     8.660
  61.880         67.50	     9.000
  61.900         61.67	     8.602
  61.920         69.17	     9.110
  61.940         57.50	     8.307
  61.960         52.50	     7.937
  61.980         52.50	     7.937
  62.000         47.50	     7.550
  62.020         45.83	     7.416
  62.040         46.67	     7.483
  62.060         62.50	     8.660
  62.080         41.67	     7.071
  62.100         45.83	     7.416
  62.120         35.83	     6.557
  62.140         39.17	     6.856
  62.160         38.33	     6.782
  62.180         39.17	     6.856
  62.200         40.83	     7.000
  62.220         40.00	     6.928
  62.240         42.50	     7.141
  62.260         41.67	     7.071
  62.280         41.67	     7.071
  62.300         33.33	     6.325
  62.320         41.67	     7.071
  62.340         31.67	     6.164
  62.360         37.50	     6.708
  62.380         30.83	     6.083
  62.400         45.83	     7.416
  62.420         44.17	     7.280
  62.440         27.50	     5.745
  62.460         45.00	     7.348
  62.480         42.50	     7.141
  62.500         44.17	     7.280
  62.520         44.17	     7.280
  62.540         46.67	     7.483
  62.560         43.33	     7.211
  62.580         37.50	     6.708
  62.600         54.17	     8.062
  62.620         43.33	     7.211
  62.640         48.33	     7.616
  62.660         41.67	     7.071
  62.680         60.00	     8.485
  62.700         40.83	     7.000
  62.720         44.17	     7.280
  62.740         45.00	     7.348
  62.760         38.33	     6.782
  62.780         32.50	     6.245
  62.800         37.50	     6.708
  62.820         38.33	     6.782
  62.840         45.83	     7.416
  62.860         36.67	     6.633
  62.880         40.83	     7.000
  62.900         35.83	     6.557
  62.920         40.00	     6.928
  62.940         30.83	     6.083
  62.960         38.33	     6.782
  62.980         37.50	     6.708
  63.000         48.33	     7.616
  63.020         31.67	     6.164
  63.040         45.00	     7.348
  63.060         33.33	     6.325
  63.080         45.83	     7.416
  63.100         42.50	     7.141
  63.120         45.00	     7.348
  63.140         28.33	     5.831
  63.160         40.00	     6.928
  63.180         54.17	     8.062
  63.200         45.00	     7.348
  63.220         19.17	     4.796
  63.240         30.83	     6.083
  63.260         38.33	     6.782
  63.280         35.83	     6.557
  63.300         47.50	     7.550
  63.320         49.17	     7.681
  63.340         40.00	     6.928
  63.360         41.67	     7.071
  63.380         45.83	     7.416
  63.400         54.17	     8.062
  63.420         40.83	     7.000
  63.440         38.33	     6.782
  63.460         48.33	     7.616
  63.480         37.50	     6.708
  63.500         55.00	     8.124
  63.520         47.50	     7.550
  63.540         63.33	     8.718
  63.560         53.33	     8.000
  63.580         51.67	     7.874
  63.600         60.00	     8.485
  63.620         50.83	     7.810
  63.640         61.67	     8.602
  63.660         52.50	     7.937
  63.680         54.17	     8.062
  63.700         56.67	     8.246
  63.720         58.33	     8.367
  63.740         73.33	     9.381
  63.760         67.50	     9.000
  63.780         76.67	     9.592
  63.800         80.00	     9.798
  63.820         69.17	     9.110
  63.840         65.83	     8.888
  63.860         65.83	     8.888
  63.880         57.50	     8.307
  63.900         80.00	     9.798
  63.920         89.17	    10.344
  63.940        102.50	    11.091
  63.960        113.33	    11.662
  63.980         70.83	     9.220
  64.000         74.17	     9.434
  64.020         55.83	     8.185
  64.040         66.67	     8.944
  64.060         77.50	     9.644
  64.080         83.33	    10.000
  64.100         78.33	     9.695
  64.120        100.00	    10.954
  64.140         74.17	     9.434
  64.160         47.50	     7.550
  64.180         64.17	     8.775
  64.200         50.00	     7.746
  64.220         49.17	     7.681
  64.240         58.33	     8.367
  64.260         48.33	     7.616
  64.280         38.33	     6.782
  64.300         40.83	     7.000
  64.320         49.17	     7.681
  64.340         38.33	     6.782
  64.360         45.00	     7.348
  64.380         45.83	     7.416
  64.400         37.50	     6.708
  64.420         39.17	     6.856
  64.440         39.17	     6.856
  64.460         50.00	     7.746
  64.480         56.67	     8.246
  64.500         42.50	     7.141
  64.520         43.33	     7.211
  64.540         48.33	     7.616
  64.560         53.33	     8.000
  64.580         49.17	     7.681
  64.600         53.33	     8.000
  64.620         48.33	     7.616
  64.640         62.50	     8.660
  64.660         46.67	     7.483
  64.680         43.33	     7.211
  64.700         51.67	     7.874
  64.720         43.33	     7.211
  64.740         42.50	     7.141
  64.760         45.00	     7.348
  64.780         58.33	     8.367
  64.800         58.33	     8.367
  64.820         56.67	     8.246
  64.840         45.00	     7.348
  64.860         55.00	     8.124
  64.880         56.67	     8.246
  64.900         47.50	     7.550
  64.920         60.83	     8.544
  64.940         64.17	     8.775
  64.960         55.83	     8.185
  64.980         60.83	     8.544
  65.000         50.00	     7.746
