
Filename:
	C:\Program Files\Thermo Electron\WinXRD\Datafiles\F_HERMAN\GEO\G74_RT.raw

File Created:
	February 19, 2020 - 03:33 AM

Specimen Id:
	G74_RT

Specimen Name:
	

Specimen Description:
	

Comment:
Scan Type: 2Theta Scan
Start Angle: 3 deg.
Stop Angle: 65 deg.
Num Points: 3101
Step Size: 0.02 deg.
Scan Rate: 1.000000
Scan Mode: Continuous
Wavelength: 1.540562
\Kalpha1: 1.540562	\Kalpha2: 1.544390	\Kbeta: 1.392218

Optics:
		Detector:
			 Type: Fixed Slits
		Tube: 
			 Type: Fixed Slits


Datas:
 Pos [deg]       Rate [CPS]      ESD [-]

Range 1 ---> Iteration 1
   3.000        436.67	    22.891
   3.020        477.50	    23.937
   3.040        439.17	    22.956
   3.060        432.50	    22.782
   3.080        451.67	    23.281
   3.100        476.67	    23.917
   3.120        420.00	    22.450
   3.140        425.83	    22.605
   3.160        472.50	    23.812
   3.180        428.33	    22.672
   3.200        465.83	    23.643
   3.220        446.67	    23.152
   3.240        375.00	    21.213
   3.260        444.17	    23.087
   3.280        400.83	    21.932
   3.300        390.00	    21.633
   3.320        417.50	    22.383
   3.340        408.33	    22.136
   3.360        385.83	    21.517
   3.380        360.83	    20.809
   3.400        395.83	    21.794
   3.420        388.33	    21.587
   3.440        383.33	    21.448
   3.460        387.50	    21.564
   3.480        396.67	    21.817
   3.500        378.33	    21.307
   3.520        351.67	    20.543
   3.540        370.00	    21.071
   3.560        341.67	    20.248
   3.580        388.33	    21.587
   3.600        344.17	    20.322
   3.620        366.67	    20.976
   3.640        347.50	    20.421
   3.660        349.17	    20.469
   3.680        372.50	    21.142
   3.700        363.33	    20.881
   3.720        382.50	    21.424
   3.740        346.67	    20.396
   3.760        343.33	    20.298
   3.780        371.67	    21.119
   3.800        345.00	    20.347
   3.820        320.83	    19.621
   3.840        379.17	    21.331
   3.860        356.67	    20.688
   3.880        313.33	    19.391
   3.900        351.67	    20.543
   3.920        323.33	    19.698
   3.940        312.50	    19.365
   3.960        318.33	    19.545
   3.980        317.50	    19.519
   4.000        327.50	    19.824
   4.020        344.17	    20.322
   4.040        330.83	    19.925
   4.060        329.17	    19.875
   4.080        336.67	    20.100
   4.100        326.67	    19.799
   4.120        331.67	    19.950
   4.140        319.17	    19.570
   4.160        300.83	    19.000
   4.180        326.67	    19.799
   4.200        313.33	    19.391
   4.220        296.67	    18.868
   4.240        295.83	    18.841
   4.260        327.50	    19.824
   4.280        285.00	    18.493
   4.300        317.50	    19.519
   4.320        295.83	    18.841
   4.340        289.17	    18.628
   4.360        307.50	    19.209
   4.380        301.67	    19.026
   4.400        293.33	    18.762
   4.420        269.17	    17.972
   4.440        297.50	    18.894
   4.460        294.17	    18.788
   4.480        305.83	    19.157
   4.500        288.33	    18.601
   4.520        296.67	    18.868
   4.540        289.17	    18.628
   4.560        307.50	    19.209
   4.580        278.33	    18.276
   4.600        263.33	    17.776
   4.620        275.00	    18.166
   4.640        254.17	    17.464
   4.660        283.33	    18.439
   4.680        289.17	    18.628
   4.700        259.17	    17.635
   4.720        276.67	    18.221
   4.740        250.00	    17.321
   4.760        287.50	    18.574
   4.780        261.67	    17.720
   4.800        271.67	    18.055
   4.820        264.17	    17.804
   4.840        243.33	    17.088
   4.860        280.83	    18.358
   4.880        235.83	    16.823
   4.900        249.17	    17.292
   4.920        255.00	    17.493
   4.940        234.17	    16.763
   4.960        236.67	    16.852
   4.980        235.00	    16.793
   5.000        238.33	    16.912
   5.020        245.83	    17.176
   5.040        260.83	    17.692
   5.060        235.00	    16.793
   5.080        220.00	    16.248
   5.100        285.00	    18.493
   5.120        242.50	    17.059
   5.140        212.50	    15.969
   5.160        255.83	    17.521
   5.180        248.33	    17.263
   5.200        252.50	    17.407
   5.220        225.83	    16.462
   5.240        236.67	    16.852
   5.260        245.83	    17.176
   5.280        208.33	    15.811
   5.300        230.00	    16.613
   5.320        248.33	    17.263
   5.340        230.83	    16.643
   5.360        219.17	    16.217
   5.380        222.50	    16.340
   5.400        225.00	    16.432
   5.420        253.33	    17.436
   5.440        220.83	    16.279
   5.460        240.83	    17.000
   5.480        210.83	    15.906
   5.500        238.33	    16.912
   5.520        239.17	    16.941
   5.540        220.83	    16.279
   5.560        215.00	    16.062
   5.580        217.50	    16.155
   5.600        205.83	    15.716
   5.620        220.83	    16.279
   5.640        228.33	    16.553
   5.660        219.17	    16.217
   5.680        223.33	    16.371
   5.700        212.50	    15.969
   5.720        214.17	    16.031
   5.740        237.50	    16.882
   5.760        219.17	    16.217
   5.780        230.83	    16.643
   5.800        270.00	    18.000
   5.820        218.33	    16.186
   5.840        202.50	    15.588
   5.860        208.33	    15.811
   5.880        245.00	    17.146
   5.900        229.17	    16.583
   5.920        241.67	    17.029
   5.940        211.67	    15.937
   5.960        240.83	    17.000
   5.980        231.67	    16.673
   6.000        236.67	    16.852
   6.020        231.67	    16.673
   6.040        258.33	    17.607
   6.060        232.50	    16.703
   6.080        264.17	    17.804
   6.100        298.33	    18.921
   6.120        290.00	    18.655
   6.140        275.83	    18.193
   6.160        287.50	    18.574
   6.180        247.50	    17.234
   6.200        203.33	    15.620
   6.220        216.67	    16.125
   6.240        219.17	    16.217
   6.260        235.00	    16.793
   6.280        189.17	    15.067
   6.300        197.50	    15.395
   6.320        186.67	    14.967
   6.340        211.67	    15.937
   6.360        191.67	    15.166
   6.380        190.00	    15.100
   6.400        201.67	    15.556
   6.420        185.83	    14.933
   6.440        183.33	    14.832
   6.460        178.33	    14.629
   6.480        181.67	    14.765
   6.500        190.83	    15.133
   6.520        197.50	    15.395
   6.540        199.17	    15.460
   6.560        188.33	    15.033
   6.580        191.67	    15.166
   6.600        185.83	    14.933
   6.620        194.17	    15.264
   6.640        190.00	    15.100
   6.660        182.50	    14.799
   6.680        205.83	    15.716
   6.700        172.50	    14.387
   6.720        189.17	    15.067
   6.740        167.50	    14.177
   6.760        185.83	    14.933
   6.780        160.83	    13.892
   6.800        179.17	    14.663
   6.820        183.33	    14.832
   6.840        178.33	    14.629
   6.860        156.67	    13.711
   6.880        180.00	    14.697
   6.900        166.67	    14.142
   6.920        177.50	    14.595
   6.940        170.00	    14.283
   6.960        180.83	    14.731
   6.980        170.00	    14.283
   7.000        175.00	    14.491
   7.020        167.50	    14.177
   7.040        170.83	    14.318
   7.060        154.17	    13.601
   7.080        179.17	    14.663
   7.100        149.17	    13.379
   7.120        163.33	    14.000
   7.140        166.67	    14.142
   7.160        178.33	    14.629
   7.180        160.83	    13.892
   7.200        148.33	    13.342
   7.220        160.83	    13.892
   7.240        183.33	    14.832
   7.260        165.00	    14.071
   7.280        167.50	    14.177
   7.300        170.83	    14.318
   7.320        166.67	    14.142
   7.340        152.50	    13.528
   7.360        165.00	    14.071
   7.380        137.50	    12.845
   7.400        160.00	    13.856
   7.420        165.83	    14.107
   7.440        160.83	    13.892
   7.460        153.33	    13.565
   7.480        154.17	    13.601
   7.500        175.83	    14.526
   7.520        149.17	    13.379
   7.540        163.33	    14.000
   7.560        148.33	    13.342
   7.580        166.67	    14.142
   7.600        169.17	    14.248
   7.620        176.67	    14.560
   7.640        150.00	    13.416
   7.660        160.00	    13.856
   7.680        163.33	    14.000
   7.700        138.33	    12.884
   7.720        171.67	    14.353
   7.740        167.50	    14.177
   7.760        146.67	    13.266
   7.780        154.17	    13.601
   7.800        164.17	    14.036
   7.820        159.17	    13.820
   7.840        168.33	    14.213
   7.860        160.83	    13.892
   7.880        172.50	    14.387
   7.900        149.17	    13.379
   7.920        179.17	    14.663
   7.940        132.50	    12.610
   7.960        144.17	    13.153
   7.980        149.17	    13.379
   8.000        165.83	    14.107
   8.020        143.33	    13.115
   8.040        147.50	    13.304
   8.060        155.83	    13.675
   8.080        163.33	    14.000
   8.100        168.33	    14.213
   8.120        132.50	    12.610
   8.140        157.50	    13.748
   8.160        145.83	    13.229
   8.180        145.83	    13.229
   8.200        153.33	    13.565
   8.220        155.83	    13.675
   8.240        155.00	    13.638
   8.260        149.17	    13.379
   8.280        162.50	    13.964
   8.300        150.00	    13.416
   8.320        161.67	    13.928
   8.340        155.00	    13.638
   8.360        149.17	    13.379
   8.380        150.00	    13.416
   8.400        155.83	    13.675
   8.420        174.17	    14.457
   8.440        165.83	    14.107
   8.460        162.50	    13.964
   8.480        174.17	    14.457
   8.500        191.67	    15.166
   8.520        164.17	    14.036
   8.540        189.17	    15.067
   8.560        214.17	    16.031
   8.580        185.00	    14.900
   8.600        240.00	    16.971
   8.620        295.00	    18.815
   8.640        307.50	    19.209
   8.660        320.83	    19.621
   8.680        350.83	    20.518
   8.700        356.67	    20.688
   8.720        385.00	    21.494
   8.740        550.83	    25.710
   8.760        648.33	    27.893
   8.780        707.50	    29.138
   8.800        595.00	    26.721
   8.820        420.00	    22.450
   8.840        275.00	    18.166
   8.860        173.33	    14.422
   8.880        177.50	    14.595
   8.900        134.17	    12.689
   8.920        155.00	    13.638
   8.940        158.33	    13.784
   8.960        154.17	    13.601
   8.980        162.50	    13.964
   9.000        150.83	    13.454
   9.020        163.33	    14.000
   9.040        140.83	    13.000
   9.060        158.33	    13.784
   9.080        150.83	    13.454
   9.100        145.83	    13.229
   9.120        129.17	    12.450
   9.140        117.50	    11.874
   9.160        130.83	    12.530
   9.180        141.67	    13.038
   9.200        124.17	    12.207
   9.220        130.83	    12.530
   9.240        137.50	    12.845
   9.260        135.00	    12.728
   9.280        128.33	    12.410
   9.300        127.50	    12.369
   9.320        152.50	    13.528
   9.340        127.50	    12.369
   9.360        165.83	    14.107
   9.380        139.17	    12.923
   9.400        144.17	    13.153
   9.420        111.67	    11.576
   9.440        136.67	    12.806
   9.460        126.67	    12.329
   9.480        128.33	    12.410
   9.500        129.17	    12.450
   9.520        121.67	    12.083
   9.540        115.83	    11.790
   9.560        130.83	    12.530
   9.580        122.50	    12.124
   9.600        122.50	    12.124
   9.620        120.00	    12.000
   9.640        100.83	    11.000
   9.660        118.33	    11.916
   9.680        105.83	    11.269
   9.700        109.17	    11.446
   9.720        110.00	    11.489
   9.740        111.67	    11.576
   9.760        100.00	    10.954
   9.780        121.67	    12.083
   9.800        119.17	    11.958
   9.820        105.83	    11.269
   9.840        122.50	    12.124
   9.860        127.50	    12.369
   9.880        110.00	    11.489
   9.900        122.50	    12.124
   9.920        119.17	    11.958
   9.940        120.00	    12.000
   9.960        108.33	    11.402
   9.980        107.50	    11.358
  10.000        101.67	    11.045
  10.020        119.17	    11.958
  10.040        107.50	    11.358
  10.060        121.67	    12.083
  10.080        118.33	    11.916
  10.100        102.50	    11.091
  10.120        100.00	    10.954
  10.140         93.33	    10.583
  10.160        110.00	    11.489
  10.180        108.33	    11.402
  10.200        103.33	    11.136
  10.220        109.17	    11.446
  10.240        119.17	    11.958
  10.260        107.50	    11.358
  10.280         97.50	    10.817
  10.300        120.00	    12.000
  10.320        106.67	    11.314
  10.340        115.00	    11.747
  10.360        156.67	    13.711
  10.380        164.17	    14.036
  10.400        198.33	    15.427
  10.420        202.50	    15.588
  10.440        173.33	    14.422
  10.460        140.00	    12.961
  10.480        134.17	    12.689
  10.500        114.17	    11.705
  10.520        116.67	    11.832
  10.540        104.17	    11.180
  10.560        107.50	    11.358
  10.580        105.83	    11.269
  10.600        113.33	    11.662
  10.620        109.17	    11.446
  10.640        104.17	    11.180
  10.660         90.00	    10.392
  10.680         90.00	    10.392
  10.700        105.00	    11.225
  10.720        105.83	    11.269
  10.740        103.33	    11.136
  10.760        105.00	    11.225
  10.780        100.83	    11.000
  10.800         98.33	    10.863
  10.820         85.83	    10.149
  10.840        100.00	    10.954
  10.860        120.83	    12.042
  10.880        112.50	    11.619
  10.900        106.67	    11.314
  10.920         93.33	    10.583
  10.940        106.67	    11.314
  10.960         97.50	    10.817
  10.980         98.33	    10.863
  11.000        100.83	    11.000
  11.020         97.50	    10.817
  11.040         98.33	    10.863
  11.060        101.67	    11.045
  11.080         88.33	    10.296
  11.100        100.00	    10.954
  11.120         82.50	     9.950
  11.140        106.67	    11.314
  11.160        120.83	    12.042
  11.180        110.00	    11.489
  11.200         95.00	    10.677
  11.220        106.67	    11.314
  11.240         82.50	     9.950
  11.260        108.33	    11.402
  11.280        100.83	    11.000
  11.300         92.50	    10.536
  11.320         88.33	    10.296
  11.340        100.00	    10.954
  11.360        105.00	    11.225
  11.380        110.83	    11.533
  11.400        107.50	    11.358
  11.420        110.00	    11.489
  11.440         90.00	    10.392
  11.460         85.83	    10.149
  11.480         95.00	    10.677
  11.500        104.17	    11.180
  11.520         89.17	    10.344
  11.540        114.17	    11.705
  11.560        100.00	    10.954
  11.580         99.17	    10.909
  11.600        102.50	    11.091
  11.620        100.00	    10.954
  11.640         91.67	    10.488
  11.660         95.83	    10.724
  11.680         96.67	    10.770
  11.700         92.50	    10.536
  11.720         97.50	    10.817
  11.740         84.17	    10.050
  11.760         89.17	    10.344
  11.780         93.33	    10.583
  11.800        111.67	    11.576
  11.820        102.50	    11.091
  11.840        103.33	    11.136
  11.860        110.00	    11.489
  11.880        109.17	    11.446
  11.900        106.67	    11.314
  11.920        100.00	    10.954
  11.940        109.17	    11.446
  11.960        111.67	    11.576
  11.980        137.50	    12.845
  12.000        145.00	    13.191
  12.020        168.33	    14.213
  12.040        187.50	    15.000
  12.060        245.83	    17.176
  12.080        345.00	    20.347
  12.100        356.67	    20.688
  12.120        294.17	    18.788
  12.140        243.33	    17.088
  12.160        188.33	    15.033
  12.180        167.50	    14.177
  12.200        158.33	    13.784
  12.220        158.33	    13.784
  12.240        174.17	    14.457
  12.260        172.50	    14.387
  12.280        180.83	    14.731
  12.300        182.50	    14.799
  12.320        195.00	    15.297
  12.340        233.33	    16.733
  12.360        273.33	    18.111
  12.380        336.67	    20.100
  12.400        365.00	    20.928
  12.420        342.50	    20.273
  12.440        235.83	    16.823
  12.460        150.00	    13.416
  12.480        113.33	    11.662
  12.500        105.83	    11.269
  12.520        110.00	    11.489
  12.540        100.00	    10.954
  12.560        110.83	    11.533
  12.580         89.17	    10.344
  12.600         80.00	     9.798
  12.620         93.33	    10.583
  12.640         90.00	    10.392
  12.660         95.00	    10.677
  12.680         85.83	    10.149
  12.700         78.33	     9.695
  12.720         85.83	    10.149
  12.740         80.00	     9.798
  12.760         80.83	     9.849
  12.780        105.00	    11.225
  12.800         73.33	     9.381
  12.820         90.83	    10.440
  12.840         80.00	     9.798
  12.860         87.50	    10.247
  12.880         95.83	    10.724
  12.900         70.83	     9.220
  12.920         91.67	    10.488
  12.940         85.83	    10.149
  12.960         94.17	    10.630
  12.980         95.00	    10.677
  13.000         75.83	     9.539
  13.020         92.50	    10.536
  13.040         75.00	     9.487
  13.060         81.67	     9.899
  13.080         89.17	    10.344
  13.100         71.67	     9.274
  13.120         85.00	    10.100
  13.140         83.33	    10.000
  13.160         75.00	     9.487
  13.180         70.00	     9.165
  13.200         90.00	    10.392
  13.220         76.67	     9.592
  13.240         77.50	     9.644
  13.260        105.83	    11.269
  13.280         60.00	     8.485
  13.300         75.83	     9.539
  13.320         78.33	     9.695
  13.340         85.83	    10.149
  13.360         77.50	     9.644
  13.380         85.00	    10.100
  13.400         84.17	    10.050
  13.420         90.00	    10.392
  13.440         82.50	     9.950
  13.460         79.17	     9.747
  13.480         91.67	    10.488
  13.500         82.50	     9.950
  13.520         95.00	    10.677
  13.540        109.17	    11.446
  13.560        114.17	    11.705
  13.580        111.67	    11.576
  13.600         78.33	     9.695
  13.620         69.17	     9.110
  13.640         91.67	    10.488
  13.660         68.33	     9.055
  13.680         88.33	    10.296
  13.700         90.00	    10.392
  13.720        105.83	    11.269
  13.740        115.00	    11.747
  13.760        116.67	    11.832
  13.780         97.50	    10.817
  13.800        104.17	    11.180
  13.820         84.17	    10.050
  13.840         79.17	     9.747
  13.860         93.33	    10.583
  13.880         94.17	    10.630
  13.900         85.00	    10.100
  13.920        104.17	    11.180
  13.940         91.67	    10.488
  13.960         82.50	     9.950
  13.980         88.33	    10.296
  14.000         76.67	     9.592
  14.020         61.67	     8.602
  14.040         82.50	     9.950
  14.060         75.00	     9.487
  14.080         89.17	    10.344
  14.100         66.67	     8.944
  14.120         75.83	     9.539
  14.140         80.00	     9.798
  14.160         81.67	     9.899
  14.180         70.83	     9.220
  14.200         87.50	    10.247
  14.220         72.50	     9.327
  14.240         81.67	     9.899
  14.260         85.00	    10.100
  14.280         83.33	    10.000
  14.300         63.33	     8.718
  14.320         80.00	     9.798
  14.340         69.17	     9.110
  14.360         66.67	     8.944
  14.380         59.17	     8.426
  14.400         82.50	     9.950
  14.420         75.00	     9.487
  14.440         89.17	    10.344
  14.460         71.67	     9.274
  14.480         67.50	     9.000
  14.500         74.17	     9.434
  14.520         61.67	     8.602
  14.540         81.67	     9.899
  14.560         82.50	     9.950
  14.580         72.50	     9.327
  14.600         59.17	     8.426
  14.620         66.67	     8.944
  14.640         69.17	     9.110
  14.660         73.33	     9.381
  14.680         65.83	     8.888
  14.700         80.00	     9.798
  14.720         58.33	     8.367
  14.740         72.50	     9.327
  14.760         65.00	     8.832
  14.780         80.83	     9.849
  14.800         71.67	     9.274
  14.820         69.17	     9.110
  14.840         89.17	    10.344
  14.860         71.67	     9.274
  14.880         74.17	     9.434
  14.900         71.67	     9.274
  14.920         88.33	    10.296
  14.940         70.00	     9.165
  14.960         69.17	     9.110
  14.980         58.33	     8.367
  15.000         71.67	     9.274
  15.020         69.17	     9.110
  15.040         77.50	     9.644
  15.060         70.00	     9.165
  15.080         57.50	     8.307
  15.100         77.50	     9.644
  15.120         83.33	    10.000
  15.140         74.17	     9.434
  15.160         66.67	     8.944
  15.180         65.83	     8.888
  15.200         60.83	     8.544
  15.220         73.33	     9.381
  15.240         73.33	     9.381
  15.260         63.33	     8.718
  15.280         67.50	     9.000
  15.300         72.50	     9.327
  15.320         72.50	     9.327
  15.340         65.00	     8.832
  15.360         53.33	     8.000
  15.380         72.50	     9.327
  15.400         80.83	     9.849
  15.420         72.50	     9.327
  15.440         74.17	     9.434
  15.460         52.50	     7.937
  15.480         67.50	     9.000
  15.500         58.33	     8.367
  15.520         62.50	     8.660
  15.540         73.33	     9.381
  15.560         62.50	     8.660
  15.580         78.33	     9.695
  15.600         65.83	     8.888
  15.620         54.17	     8.062
  15.640         72.50	     9.327
  15.660         64.17	     8.775
  15.680         70.83	     9.220
  15.700         65.83	     8.888
  15.720         67.50	     9.000
  15.740         67.50	     9.000
  15.760         60.83	     8.544
  15.780         71.67	     9.274
  15.800         65.00	     8.832
  15.820         70.83	     9.220
  15.840         74.17	     9.434
  15.860         63.33	     8.718
  15.880         66.67	     8.944
  15.900         69.17	     9.110
  15.920         75.83	     9.539
  15.940         69.17	     9.110
  15.960         67.50	     9.000
  15.980         63.33	     8.718
  16.000         65.83	     8.888
  16.020         65.83	     8.888
  16.040         75.83	     9.539
  16.060         68.33	     9.055
  16.080         65.83	     8.888
  16.100         65.00	     8.832
  16.120         71.67	     9.274
  16.140         61.67	     8.602
  16.160         61.67	     8.602
  16.180         66.67	     8.944
  16.200         60.83	     8.544
  16.220         66.67	     8.944
  16.240         59.17	     8.426
  16.260         59.17	     8.426
  16.280         56.67	     8.246
  16.300         62.50	     8.660
  16.320         57.50	     8.307
  16.340         63.33	     8.718
  16.360         70.83	     9.220
  16.380         70.00	     9.165
  16.400         60.00	     8.485
  16.420         53.33	     8.000
  16.440         75.83	     9.539
  16.460         67.50	     9.000
  16.480         60.83	     8.544
  16.500         62.50	     8.660
  16.520         62.50	     8.660
  16.540         60.00	     8.485
  16.560         65.00	     8.832
  16.580         64.17	     8.775
  16.600         60.00	     8.485
  16.620         63.33	     8.718
  16.640         60.00	     8.485
  16.660         70.00	     9.165
  16.680         55.00	     8.124
  16.700         55.83	     8.185
  16.720         66.67	     8.944
  16.740         53.33	     8.000
  16.760         60.00	     8.485
  16.780         73.33	     9.381
  16.800         65.00	     8.832
  16.820         53.33	     8.000
  16.840         60.83	     8.544
  16.860         76.67	     9.592
  16.880         76.67	     9.592
  16.900         61.67	     8.602
  16.920         69.17	     9.110
  16.940         65.00	     8.832
  16.960         66.67	     8.944
  16.980         72.50	     9.327
  17.000         51.67	     7.874
  17.020         62.50	     8.660
  17.040         64.17	     8.775
  17.060         64.17	     8.775
  17.080         60.00	     8.485
  17.100         60.83	     8.544
  17.120         74.17	     9.434
  17.140         67.50	     9.000
  17.160         62.50	     8.660
  17.180         55.83	     8.185
  17.200         68.33	     9.055
  17.220         74.17	     9.434
  17.240         74.17	     9.434
  17.260         65.83	     8.888
  17.280         72.50	     9.327
  17.300         87.50	    10.247
  17.320         65.83	     8.888
  17.340         64.17	     8.775
  17.360         68.33	     9.055
  17.380         69.17	     9.110
  17.400         70.83	     9.220
  17.420         67.50	     9.000
  17.440         64.17	     8.775
  17.460         65.00	     8.832
  17.480         64.17	     8.775
  17.500         72.50	     9.327
  17.520         61.67	     8.602
  17.540         81.67	     9.899
  17.560        100.83	    11.000
  17.580         77.50	     9.644
  17.600         81.67	     9.899
  17.620        119.17	    11.958
  17.640        159.17	    13.820
  17.660        165.83	    14.107
  17.680        205.83	    15.716
  17.700        252.50	    17.407
  17.720        263.33	    17.776
  17.740        247.50	    17.234
  17.760        208.33	    15.811
  17.780        165.83	    14.107
  17.800        110.00	    11.489
  17.820         79.17	     9.747
  17.840         68.33	     9.055
  17.860         80.00	     9.798
  17.880         73.33	     9.381
  17.900         77.50	     9.644
  17.920         73.33	     9.381
  17.940         69.17	     9.110
  17.960         63.33	     8.718
  17.980         61.67	     8.602
  18.000         59.17	     8.426
  18.020         82.50	     9.950
  18.040         52.50	     7.937
  18.060         72.50	     9.327
  18.080         43.33	     7.211
  18.100         55.00	     8.124
  18.120         55.83	     8.185
  18.140         57.50	     8.307
  18.160         60.83	     8.544
  18.180         56.67	     8.246
  18.200         66.67	     8.944
  18.220         85.83	    10.149
  18.240         70.83	     9.220
  18.260         84.17	    10.050
  18.280         91.67	    10.488
  18.300         85.00	    10.100
  18.320         75.83	     9.539
  18.340         64.17	     8.775
  18.360         68.33	     9.055
  18.380         74.17	     9.434
  18.400         63.33	     8.718
  18.420         70.83	     9.220
  18.440         74.17	     9.434
  18.460        112.50	    11.619
  18.480         66.67	     8.944
  18.500         85.00	    10.100
  18.520         88.33	    10.296
  18.540        101.67	    11.045
  18.560         80.83	     9.849
  18.580         95.00	    10.677
  18.600         85.83	    10.149
  18.620        114.17	    11.705
  18.640        130.00	    12.490
  18.660        139.17	    12.923
  18.680        168.33	    14.213
  18.700        181.67	    14.765
  18.720        154.17	    13.601
  18.740        119.17	    11.958
  18.760        104.17	    11.180
  18.780         80.83	     9.849
  18.800         68.33	     9.055
  18.820         76.67	     9.592
  18.840         65.00	     8.832
  18.860         69.17	     9.110
  18.880         60.00	     8.485
  18.900         64.17	     8.775
  18.920         79.17	     9.747
  18.940         60.83	     8.544
  18.960         63.33	     8.718
  18.980         56.67	     8.246
  19.000         62.50	     8.660
  19.020         70.00	     9.165
  19.040         58.33	     8.367
  19.060         69.17	     9.110
  19.080         62.50	     8.660
  19.100         65.00	     8.832
  19.120         60.00	     8.485
  19.140         65.83	     8.888
  19.160         83.33	    10.000
  19.180         70.83	     9.220
  19.200         70.00	     9.165
  19.220         55.00	     8.124
  19.240         65.83	     8.888
  19.260         65.00	     8.832
  19.280         70.83	     9.220
  19.300         64.17	     8.775
  19.320         60.00	     8.485
  19.340         68.33	     9.055
  19.360         55.83	     8.185
  19.380         60.83	     8.544
  19.400         58.33	     8.367
  19.420         66.67	     8.944
  19.440         49.17	     7.681
  19.460         67.50	     9.000
  19.480         58.33	     8.367
  19.500         80.83	     9.849
  19.520         60.00	     8.485
  19.540         71.67	     9.274
  19.560         80.83	     9.849
  19.580         74.17	     9.434
  19.600         70.83	     9.220
  19.620         69.17	     9.110
  19.640         72.50	     9.327
  19.660         75.83	     9.539
  19.680         68.33	     9.055
  19.700         94.17	    10.630
  19.720         91.67	    10.488
  19.740         87.50	    10.247
  19.760         90.00	    10.392
  19.780         83.33	    10.000
  19.800         88.33	    10.296
  19.820         74.17	     9.434
  19.840         66.67	     8.944
  19.860         74.17	     9.434
  19.880         76.67	     9.592
  19.900         64.17	     8.775
  19.920         66.67	     8.944
  19.940         57.50	     8.307
  19.960         67.50	     9.000
  19.980         68.33	     9.055
  20.000         65.00	     8.832
  20.020         70.83	     9.220
  20.040         75.83	     9.539
  20.060         66.67	     8.944
  20.080         63.33	     8.718
  20.100         65.83	     8.888
  20.120         66.67	     8.944
  20.140         69.17	     9.110
  20.160         54.17	     8.062
  20.180         45.00	     7.348
  20.200         46.67	     7.483
  20.220         60.83	     8.544
  20.240         61.67	     8.602
  20.260         42.50	     7.141
  20.280         59.17	     8.426
  20.300         55.83	     8.185
  20.320         51.67	     7.874
  20.340         55.00	     8.124
  20.360         61.67	     8.602
  20.380         49.17	     7.681
  20.400         52.50	     7.937
  20.420         68.33	     9.055
  20.440         63.33	     8.718
  20.460         58.33	     8.367
  20.480         57.50	     8.307
  20.500         58.33	     8.367
  20.520         85.00	    10.100
  20.540         71.67	     9.274
  20.560         59.17	     8.426
  20.580         82.50	     9.950
  20.600         75.83	     9.539
  20.620         82.50	     9.950
  20.640        102.50	    11.091
  20.660        125.00	    12.247
  20.680        170.00	    14.283
  20.700        315.00	    19.442
  20.720        428.33	    22.672
  20.740        669.17	    28.337
  20.760        705.83	    29.103
  20.780        578.33	    26.344
  20.800        479.17	    23.979
  20.820        358.33	    20.736
  20.840        182.50	    14.799
  20.860        117.50	    11.874
  20.880        114.17	    11.705
  20.900         97.50	    10.817
  20.920         95.00	    10.677
  20.940         85.83	    10.149
  20.960         76.67	     9.592
  20.980         81.67	     9.899
  21.000         70.83	     9.220
  21.020         75.00	     9.487
  21.040         62.50	     8.660
  21.060         65.00	     8.832
  21.080         63.33	     8.718
  21.100         65.00	     8.832
  21.120         62.50	     8.660
  21.140         60.00	     8.485
  21.160         50.00	     7.746
  21.180         58.33	     8.367
  21.200         52.50	     7.937
  21.220         59.17	     8.426
  21.240         53.33	     8.000
  21.260         56.67	     8.246
  21.280         54.17	     8.062
  21.300         56.67	     8.246
  21.320         58.33	     8.367
  21.340         61.67	     8.602
  21.360         58.33	     8.367
  21.380         50.00	     7.746
  21.400         56.67	     8.246
  21.420         55.83	     8.185
  21.440         61.67	     8.602
  21.460         56.67	     8.246
  21.480         55.00	     8.124
  21.500         71.67	     9.274
  21.520         48.33	     7.616
  21.540         50.00	     7.746
  21.560         69.17	     9.110
  21.580         60.00	     8.485
  21.600         55.83	     8.185
  21.620         58.33	     8.367
  21.640         64.17	     8.775
  21.660         48.33	     7.616
  21.680         65.83	     8.888
  21.700         50.83	     7.810
  21.720         60.00	     8.485
  21.740         66.67	     8.944
  21.760         70.83	     9.220
  21.780         60.00	     8.485
  21.800         62.50	     8.660
  21.820         85.00	    10.100
  21.840         82.50	     9.950
  21.860        100.00	    10.954
  21.880        114.17	    11.705
  21.900        123.33	    12.166
  21.920        159.17	    13.820
  21.940        190.00	    15.100
  21.960        163.33	    14.000
  21.980        137.50	    12.845
  22.000        107.50	    11.358
  22.020         97.50	    10.817
  22.040         79.17	     9.747
  22.060         74.17	     9.434
  22.080         75.83	     9.539
  22.100         57.50	     8.307
  22.120         78.33	     9.695
  22.140         71.67	     9.274
  22.160         71.67	     9.274
  22.180         86.67	    10.198
  22.200         89.17	    10.344
  22.220         79.17	     9.747
  22.240         65.00	     8.832
  22.260         58.33	     8.367
  22.280         67.50	     9.000
  22.300         69.17	     9.110
  22.320         80.00	     9.798
  22.340         74.17	     9.434
  22.360         75.00	     9.487
  22.380         66.67	     8.944
  22.400         62.50	     8.660
  22.420         63.33	     8.718
  22.440         64.17	     8.775
  22.460         60.83	     8.544
  22.480         54.17	     8.062
  22.500         57.50	     8.307
  22.520         64.17	     8.775
  22.540         56.67	     8.246
  22.560         51.67	     7.874
  22.580         52.50	     7.937
  22.600         58.33	     8.367
  22.620         52.50	     7.937
  22.640         56.67	     8.246
  22.660         57.50	     8.307
  22.680         56.67	     8.246
  22.700         67.50	     9.000
  22.720         70.83	     9.220
  22.740         55.83	     8.185
  22.760         83.33	    10.000
  22.780         75.83	     9.539
  22.800         80.83	     9.849
  22.820         84.17	    10.050
  22.840         91.67	    10.488
  22.860         82.50	     9.950
  22.880         83.33	    10.000
  22.900         85.83	    10.149
  22.920        101.67	    11.045
  22.940        109.17	    11.446
  22.960        125.00	    12.247
  22.980         95.83	    10.724
  23.000         88.33	    10.296
  23.020         91.67	    10.488
  23.040         60.00	     8.485
  23.060         80.83	     9.849
  23.080         58.33	     8.367
  23.100         50.00	     7.746
  23.120         61.67	     8.602
  23.140         51.67	     7.874
  23.160         64.17	     8.775
  23.180         60.00	     8.485
  23.200         57.50	     8.307
  23.220         62.50	     8.660
  23.240         55.00	     8.124
  23.260         63.33	     8.718
  23.280         55.83	     8.185
  23.300         64.17	     8.775
  23.320         64.17	     8.775
  23.340         73.33	     9.381
  23.360         76.67	     9.592
  23.380         95.83	    10.724
  23.400        128.33	    12.410
  23.420        181.67	    14.765
  23.440        171.67	    14.353
  23.460        157.50	    13.748
  23.480        154.17	    13.601
  23.500        135.00	    12.728
  23.520        105.00	    11.225
  23.540         84.17	    10.050
  23.560         74.17	     9.434
  23.580         80.83	     9.849
  23.600         66.67	     8.944
  23.620         69.17	     9.110
  23.640         88.33	    10.296
  23.660         94.17	    10.630
  23.680         95.83	    10.724
  23.700         65.83	     8.888
  23.720         84.17	    10.050
  23.740         74.17	     9.434
  23.760         73.33	     9.381
  23.780         80.00	     9.798
  23.800         56.67	     8.246
  23.820         66.67	     8.944
  23.840         72.50	     9.327
  23.860         78.33	     9.695
  23.880         80.83	     9.849
  23.900         79.17	     9.747
  23.920        101.67	    11.045
  23.940        108.33	    11.402
  23.960         94.17	    10.630
  23.980         94.17	    10.630
  24.000        107.50	    11.358
  24.020        101.67	    11.045
  24.040         95.83	    10.724
  24.060        105.83	    11.269
  24.080        108.33	    11.402
  24.100        107.50	    11.358
  24.120        115.83	    11.790
  24.140        133.33	    12.649
  24.160        155.83	    13.675
  24.180        153.33	    13.565
  24.200        144.17	    13.153
  24.220        127.50	    12.369
  24.240        119.17	    11.958
  24.260         84.17	    10.050
  24.280        102.50	    11.091
  24.300         84.17	    10.050
  24.320         85.00	    10.100
  24.340         76.67	     9.592
  24.360         70.00	     9.165
  24.380         82.50	     9.950
  24.400         90.00	    10.392
  24.420        140.00	    12.961
  24.440        155.83	    13.675
  24.460        177.50	    14.595
  24.480        165.00	    14.071
  24.500        162.50	    13.964
  24.520        173.33	    14.422
  24.540        153.33	    13.565
  24.560        120.00	    12.000
  24.580        119.17	    11.958
  24.600        126.67	    12.329
  24.620        105.83	    11.269
  24.640         97.50	    10.817
  24.660        101.67	    11.045
  24.680         99.17	    10.909
  24.700        101.67	    11.045
  24.720         96.67	    10.770
  24.740         94.17	    10.630
  24.760        114.17	    11.705
  24.780         84.17	    10.050
  24.800        101.67	    11.045
  24.820        102.50	    11.091
  24.840        110.00	    11.489
  24.860        108.33	    11.402
  24.880         92.50	    10.536
  24.900        106.67	    11.314
  24.920        103.33	    11.136
  24.940        111.67	    11.576
  24.960        144.17	    13.153
  24.980        161.67	    13.928
  25.000        192.50	    15.199
  25.020        233.33	    16.733
  25.040        251.67	    17.378
  25.060        277.50	    18.248
  25.080        259.17	    17.635
  25.100        215.00	    16.062
  25.120        162.50	    13.964
  25.140        145.00	    13.191
  25.160        111.67	    11.576
  25.180         86.67	    10.198
  25.200         90.83	    10.440
  25.220         86.67	    10.198
  25.240        119.17	    11.958
  25.260        125.00	    12.247
  25.280        125.83	    12.288
  25.300        127.50	    12.369
  25.320        124.17	    12.207
  25.340        140.83	    13.000
  25.360        156.67	    13.711
  25.380        153.33	    13.565
  25.400        144.17	    13.153
  25.420        151.67	    13.491
  25.440        120.83	    12.042
  25.460        134.17	    12.689
  25.480         98.33	    10.863
  25.500         94.17	    10.630
  25.520        140.00	    12.961
  25.540        117.50	    11.874
  25.560        125.00	    12.247
  25.580        123.33	    12.166
  25.600        116.67	    11.832
  25.620         85.83	    10.149
  25.640         94.17	    10.630
  25.660         75.83	     9.539
  25.680         93.33	    10.583
  25.700         76.67	     9.592
  25.720         84.17	    10.050
  25.740         85.00	    10.100
  25.760         95.83	    10.724
  25.780         65.00	     8.832
  25.800         70.83	     9.220
  25.820         83.33	    10.000
  25.840         70.83	     9.220
  25.860         64.17	     8.775
  25.880         73.33	     9.381
  25.900         68.33	     9.055
  25.920         66.67	     8.944
  25.940         70.00	     9.165
  25.960         75.00	     9.487
  25.980         73.33	     9.381
  26.000         71.67	     9.274
  26.020         67.50	     9.000
  26.040         74.17	     9.434
  26.060         72.50	     9.327
  26.080         85.83	    10.149
  26.100         83.33	    10.000
  26.120         71.67	     9.274
  26.140         90.00	    10.392
  26.160         95.83	    10.724
  26.180        112.50	    11.619
  26.200         97.50	    10.817
  26.220        116.67	    11.832
  26.240        140.83	    13.000
  26.260        150.00	    13.416
  26.280        185.83	    14.933
  26.300        186.67	    14.967
  26.320        210.00	    15.875
  26.340        232.50	    16.703
  26.360        254.17	    17.464
  26.380        246.67	    17.205
  26.400        316.67	    19.494
  26.420        315.83	    19.468
  26.440        437.50	    22.913
  26.460        766.67	    30.332
  26.480       1376.67	    40.645
  26.500       2350.00	    53.104
  26.520       3436.67	    64.218
  26.540       3414.17	    64.008
  26.560       2510.83	    54.891
  26.580       2059.17	    49.709
  26.600       1810.83	    46.615
  26.620       1277.50	    39.154
  26.640        675.00	    28.460
  26.660        485.83	    24.145
  26.680        469.17	    23.728
  26.700        505.00	    24.617
  26.720        558.33	    25.884
  26.740        758.33	    30.166
  26.760        810.83	    31.193
  26.780        798.33	    30.952
  26.800        754.17	    30.083
  26.820        611.67	    27.092
  26.840        472.50	    23.812
  26.860        389.17	    21.610
  26.880        297.50	    18.894
  26.900        216.67	    16.125
  26.920        172.50	    14.387
  26.940        165.00	    14.071
  26.960        146.67	    13.266
  26.980        150.00	    13.416
  27.000        135.83	    12.767
  27.020        120.83	    12.042
  27.040        132.50	    12.610
  27.060        102.50	    11.091
  27.080         95.00	    10.677
  27.100         93.33	    10.583
  27.120         99.17	    10.909
  27.140         93.33	    10.583
  27.160        100.00	    10.954
  27.180        110.83	    11.533
  27.200         83.33	    10.000
  27.220         86.67	    10.198
  27.240        104.17	    11.180
  27.260        111.67	    11.576
  27.280        105.00	    11.225
  27.300        125.83	    12.288
  27.320        127.50	    12.369
  27.340        186.67	    14.967
  27.360        259.17	    17.635
  27.380        268.33	    17.944
  27.400        322.50	    19.672
  27.420        365.00	    20.928
  27.440        282.50	    18.412
  27.460        210.00	    15.875
  27.480        213.33	    16.000
  27.500        190.83	    15.133
  27.520        145.00	    13.191
  27.540        150.83	    13.454
  27.560        164.17	    14.036
  27.580        234.17	    16.763
  27.600        259.17	    17.635
  27.620        271.67	    18.055
  27.640        244.17	    17.117
  27.660        253.33	    17.436
  27.680        236.67	    16.852
  27.700        247.50	    17.234
  27.720        255.83	    17.521
  27.740        294.17	    18.788
  27.760        430.00	    22.716
  27.780        569.17	    26.134
  27.800        635.00	    27.604
  27.820        468.33	    23.707
  27.840        479.17	    23.979
  27.860        450.83	    23.259
  27.880        363.33	    20.881
  27.900        244.17	    17.117
  27.920        193.33	    15.232
  27.940        160.83	    13.892
  27.960        140.83	    13.000
  27.980        208.33	    15.811
  28.000        301.67	    19.026
  28.020        241.67	    17.029
  28.040        178.33	    14.629
  28.060        188.33	    15.033
  28.080        206.67	    15.748
  28.100        157.50	    13.748
  28.120        123.33	    12.166
  28.140        121.67	    12.083
  28.160        133.33	    12.649
  28.180        136.67	    12.806
  28.200        146.67	    13.266
  28.220        109.17	    11.446
  28.240        108.33	    11.402
  28.260        104.17	    11.180
  28.280        105.83	    11.269
  28.300         85.00	    10.100
  28.320         45.00	     7.348
  28.340         77.50	     9.644
  28.360         78.33	     9.695
  28.380         73.33	     9.381
  28.400         85.00	    10.100
  28.420         76.67	     9.592
  28.440         98.33	    10.863
  28.460        109.17	    11.446
  28.480        102.50	    11.091
  28.500        122.50	    12.124
  28.520        116.67	    11.832
  28.540        137.50	    12.845
  28.560        125.83	    12.288
  28.580        139.17	    12.923
  28.600        196.67	    15.362
  28.620        223.33	    16.371
  28.640        321.67	    19.647
  28.660        354.17	    20.616
  28.680        278.33	    18.276
  28.700        270.00	    18.000
  28.720        223.33	    16.371
  28.740        190.83	    15.133
  28.760        155.00	    13.638
  28.780         90.00	    10.392
  28.800         59.17	     8.426
  28.820         56.67	     8.246
  28.840         71.67	     9.274
  28.860         42.50	     7.141
  28.880         45.00	     7.348
  28.900         65.00	     8.832
  28.920         52.50	     7.937
  28.940         59.17	     8.426
  28.960         70.00	     9.165
  28.980         50.00	     7.746
  29.000         45.83	     7.416
  29.020         70.83	     9.220
  29.040         55.83	     8.185
  29.060         55.00	     8.124
  29.080         55.00	     8.124
  29.100         43.33	     7.211
  29.120         51.67	     7.874
  29.140         55.83	     8.185
  29.160         45.83	     7.416
  29.180         45.00	     7.348
  29.200         55.00	     8.124
  29.220         40.00	     6.928
  29.240         56.67	     8.246
  29.260         45.00	     7.348
  29.280         41.67	     7.071
  29.300         56.67	     8.246
  29.320         42.50	     7.141
  29.340         71.67	     9.274
  29.360         50.83	     7.810
  29.380         55.83	     8.185
  29.400         51.67	     7.874
  29.420         53.33	     8.000
  29.440         43.33	     7.211
  29.460         55.83	     8.185
  29.480         66.67	     8.944
  29.500         53.33	     8.000
  29.520         63.33	     8.718
  29.540         59.17	     8.426
  29.560         74.17	     9.434
  29.580         62.50	     8.660
  29.600         53.33	     8.000
  29.620         73.33	     9.381
  29.640         80.00	     9.798
  29.660         83.33	    10.000
  29.680         81.67	     9.899
  29.700        110.83	    11.533
  29.720        102.50	    11.091
  29.740        124.17	    12.207
  29.760        127.50	    12.369
  29.780        145.00	    13.191
  29.800        129.17	    12.450
  29.820        125.00	    12.247
  29.840        105.83	    11.269
  29.860         93.33	    10.583
  29.880         94.17	    10.630
  29.900         87.50	    10.247
  29.920         95.83	    10.724
  29.940        106.67	    11.314
  29.960        110.00	    11.489
  29.980         92.50	    10.536
  30.000         91.67	    10.488
  30.020        106.67	    11.314
  30.040         98.33	    10.863
  30.060        110.83	    11.533
  30.080        111.67	    11.576
  30.100        139.17	    12.923
  30.120        109.17	    11.446
  30.140         95.00	    10.677
  30.160        107.50	    11.358
  30.180         91.67	    10.488
  30.200         92.50	    10.536
  30.220         97.50	    10.817
  30.240         80.00	     9.798
  30.260         90.83	    10.440
  30.280         70.83	     9.220
  30.300         85.00	    10.100
  30.320        101.67	    11.045
  30.340        109.17	    11.446
  30.360        115.00	    11.747
  30.380        119.17	    11.958
  30.400         94.17	    10.630
  30.420         94.17	    10.630
  30.440         93.33	    10.583
  30.460         69.17	     9.110
  30.480         78.33	     9.695
  30.500         64.17	     8.775
  30.520         55.00	     8.124
  30.540         58.33	     8.367
  30.560         50.83	     7.810
  30.580         63.33	     8.718
  30.600         68.33	     9.055
  30.620         73.33	     9.381
  30.640         94.17	    10.630
  30.660        103.33	    11.136
  30.680         85.00	    10.100
  30.700         94.17	    10.630
  30.720         80.83	     9.849
  30.740         92.50	    10.536
  30.760         87.50	    10.247
  30.780         78.33	     9.695
  30.800         72.50	     9.327
  30.820         67.50	     9.000
  30.840         59.17	     8.426
  30.860         60.00	     8.485
  30.880         44.17	     7.280
  30.900         60.00	     8.485
  30.920         54.17	     8.062
  30.940         55.83	     8.185
  30.960         70.00	     9.165
  30.980         66.67	     8.944
  31.000         70.83	     9.220
  31.020         70.83	     9.220
  31.040         78.33	     9.695
  31.060         86.67	    10.198
  31.080         96.67	    10.770
  31.100        119.17	    11.958
  31.120        106.67	    11.314
  31.140        109.17	    11.446
  31.160         93.33	    10.583
  31.180         89.17	    10.344
  31.200         95.83	    10.724
  31.220         94.17	    10.630
  31.240         75.83	     9.539
  31.260         90.83	    10.440
  31.280         52.50	     7.937
  31.300         75.00	     9.487
  31.320         62.50	     8.660
  31.340         68.33	     9.055
  31.360         75.83	     9.539
  31.380         66.67	     8.944
  31.400         86.67	    10.198
  31.420         78.33	     9.695
  31.440         77.50	     9.644
  31.460         90.00	    10.392
  31.480         72.50	     9.327
  31.500         86.67	    10.198
  31.520         67.50	     9.000
  31.540         62.50	     8.660
  31.560         68.33	     9.055
  31.580         64.17	     8.775
  31.600         69.17	     9.110
  31.620         52.50	     7.937
  31.640         60.83	     8.544
  31.660         43.33	     7.211
  31.680         40.83	     7.000
  31.700         47.50	     7.550
  31.720         56.67	     8.246
  31.740         47.50	     7.550
  31.760         64.17	     8.775
  31.780         59.17	     8.426
  31.800         53.33	     8.000
  31.820         65.00	     8.832
  31.840         50.83	     7.810
  31.860         60.00	     8.485
  31.880         60.83	     8.544
  31.900         54.17	     8.062
  31.920         47.50	     7.550
  31.940         59.17	     8.426
  31.960         72.50	     9.327
  31.980         90.83	    10.440
  32.000         77.50	     9.644
  32.020         80.00	     9.798
  32.040         85.83	    10.149
  32.060         60.00	     8.485
  32.080         68.33	     9.055
  32.100         70.00	     9.165
  32.120         70.00	     9.165
  32.140         52.50	     7.937
  32.160         66.67	     8.944
  32.180         66.67	     8.944
  32.200         65.00	     8.832
  32.220         67.50	     9.000
  32.240         69.17	     9.110
  32.260         61.67	     8.602
  32.280         55.00	     8.124
  32.300         61.67	     8.602
  32.320         42.50	     7.141
  32.340         46.67	     7.483
  32.360         56.67	     8.246
  32.380         57.50	     8.307
  32.400         46.67	     7.483
  32.420         43.33	     7.211
  32.440         54.17	     8.062
  32.460         35.83	     6.557
  32.480         37.50	     6.708
  32.500         40.83	     7.000
  32.520         32.50	     6.245
  32.540         35.00	     6.481
  32.560         35.00	     6.481
  32.580         45.00	     7.348
  32.600         52.50	     7.937
  32.620         44.17	     7.280
  32.640         34.17	     6.403
  32.660         54.17	     8.062
  32.680         57.50	     8.307
  32.700         38.33	     6.782
  32.720         31.67	     6.164
  32.740         45.83	     7.416
  32.760         44.17	     7.280
  32.780         44.17	     7.280
  32.800         55.00	     8.124
  32.820         55.00	     8.124
  32.840         38.33	     6.782
  32.860         47.50	     7.550
  32.880         59.17	     8.426
  32.900         61.67	     8.602
  32.920         66.67	     8.944
  32.940         71.67	     9.274
  32.960         62.50	     8.660
  32.980         55.00	     8.124
  33.000         65.00	     8.832
  33.020         53.33	     8.000
  33.040         72.50	     9.327
  33.060         57.50	     8.307
  33.080         38.33	     6.782
  33.100         52.50	     7.937
  33.120         39.17	     6.856
  33.140         45.83	     7.416
  33.160         40.00	     6.928
  33.180         42.50	     7.141
  33.200         47.50	     7.550
  33.220         50.83	     7.810
  33.240         40.00	     6.928
  33.260         46.67	     7.483
  33.280         57.50	     8.307
  33.300         39.17	     6.856
  33.320         45.00	     7.348
  33.340         38.33	     6.782
  33.360         55.83	     8.185
  33.380         58.33	     8.367
  33.400         60.83	     8.544
  33.420         47.50	     7.550
  33.440         40.00	     6.928
  33.460         45.00	     7.348
  33.480         48.33	     7.616
  33.500         42.50	     7.141
  33.520         58.33	     8.367
  33.540         46.67	     7.483
  33.560         40.83	     7.000
  33.580         48.33	     7.616
  33.600         40.00	     6.928
  33.620         40.83	     7.000
  33.640         45.83	     7.416
  33.660         38.33	     6.782
  33.680         47.50	     7.550
  33.700         52.50	     7.937
  33.720         44.17	     7.280
  33.740         39.17	     6.856
  33.760         54.17	     8.062
  33.780         63.33	     8.718
  33.800         64.17	     8.775
  33.820        102.50	    11.091
  33.840         79.17	     9.747
  33.860         66.67	     8.944
  33.880         65.83	     8.888
  33.900         70.00	     9.165
  33.920         88.33	    10.296
  33.940         83.33	    10.000
  33.960         55.00	     8.124
  33.980         58.33	     8.367
  34.000         72.50	     9.327
  34.020         59.17	     8.426
  34.040         66.67	     8.944
  34.060         60.00	     8.485
  34.080         62.50	     8.660
  34.100         61.67	     8.602
  34.120         54.17	     8.062
  34.140         47.50	     7.550
  34.160         47.50	     7.550
  34.180         36.67	     6.633
  34.200         45.00	     7.348
  34.220         58.33	     8.367
  34.240         55.83	     8.185
  34.260         57.50	     8.307
  34.280         55.83	     8.185
  34.300         58.33	     8.367
  34.320         66.67	     8.944
  34.340         65.00	     8.832
  34.360         80.00	     9.798
  34.380         87.50	    10.247
  34.400         78.33	     9.695
  34.420         79.17	     9.747
  34.440         73.33	     9.381
  34.460         90.83	    10.440
  34.480         80.00	     9.798
  34.500        102.50	    11.091
  34.520         66.67	     8.944
  34.540         76.67	     9.592
  34.560         69.17	     9.110
  34.580         75.83	     9.539
  34.600         81.67	     9.899
  34.620         78.33	     9.695
  34.640         57.50	     8.307
  34.660         57.50	     8.307
  34.680         61.67	     8.602
  34.700         60.00	     8.485
  34.720         90.00	    10.392
  34.740         84.17	    10.050
  34.760         86.67	    10.198
  34.780         95.83	    10.724
  34.800         96.67	    10.770
  34.820         84.17	    10.050
  34.840        109.17	    11.446
  34.860        102.50	    11.091
  34.880        126.67	    12.329
  34.900        115.83	    11.790
  34.920        114.17	    11.705
  34.940        103.33	    11.136
  34.960        119.17	    11.958
  34.980        120.00	    12.000
  35.000        103.33	    11.136
  35.020        105.00	    11.225
  35.040         77.50	     9.644
  35.060        106.67	    11.314
  35.080         95.83	    10.724
  35.100         81.67	     9.899
  35.120         88.33	    10.296
  35.140         66.67	     8.944
  35.160         68.33	     9.055
  35.180         73.33	     9.381
  35.200         82.50	     9.950
  35.220         63.33	     8.718
  35.240         83.33	    10.000
  35.260         88.33	    10.296
  35.280         85.00	    10.100
  35.300         74.17	     9.434
  35.320         78.33	     9.695
  35.340         93.33	    10.583
  35.360         94.17	    10.630
  35.380        102.50	    11.091
  35.400        113.33	    11.662
  35.420        110.83	    11.533
  35.440        112.50	    11.619
  35.460        116.67	    11.832
  35.480        119.17	    11.958
  35.500        108.33	    11.402
  35.520        119.17	    11.958
  35.540        106.67	    11.314
  35.560         97.50	    10.817
  35.580         73.33	     9.381
  35.600         72.50	     9.327
  35.620         80.00	     9.798
  35.640         56.67	     8.246
  35.660         55.83	     8.185
  35.680         65.83	     8.888
  35.700         57.50	     8.307
  35.720         50.83	     7.810
  35.740         65.00	     8.832
  35.760         40.83	     7.000
  35.780         50.00	     7.746
  35.800         62.50	     8.660
  35.820         66.67	     8.944
  35.840         66.67	     8.944
  35.860         69.17	     9.110
  35.880         72.50	     9.327
  35.900         80.00	     9.798
  35.920         85.83	    10.149
  35.940         80.00	     9.798
  35.960        100.83	    11.000
  35.980         82.50	     9.950
  36.000         90.83	    10.440
  36.020         92.50	    10.536
  36.040         87.50	    10.247
  36.060         79.17	     9.747
  36.080         80.00	     9.798
  36.100         63.33	     8.718
  36.120         69.17	     9.110
  36.140         66.67	     8.944
  36.160         55.83	     8.185
  36.180         61.67	     8.602
  36.200         52.50	     7.937
  36.220         72.50	     9.327
  36.240         55.83	     8.185
  36.260         68.33	     9.055
  36.280         72.50	     9.327
  36.300         81.67	     9.899
  36.320         95.83	    10.724
  36.340        100.83	    11.000
  36.360        112.50	    11.619
  36.380        165.00	    14.071
  36.400        241.67	    17.029
  36.420        305.83	    19.157
  36.440        320.00	    19.596
  36.460        250.00	    17.321
  36.480        188.33	    15.033
  36.500        171.67	    14.353
  36.520        220.83	    16.279
  36.540        184.17	    14.866
  36.560        145.00	    13.191
  36.580        115.00	    11.747
  36.600         88.33	    10.296
  36.620         91.67	    10.488
  36.640         90.00	    10.392
  36.660         76.67	     9.592
  36.680         64.17	     8.775
  36.700         73.33	     9.381
  36.720         69.17	     9.110
  36.740         55.83	     8.185
  36.760         51.67	     7.874
  36.780         45.83	     7.416
  36.800         73.33	     9.381
  36.820         65.83	     8.888
  36.840         75.00	     9.487
  36.860         78.33	     9.695
  36.880         58.33	     8.367
  36.900         68.33	     9.055
  36.920         65.83	     8.888
  36.940         63.33	     8.718
  36.960         55.00	     8.124
  36.980         49.17	     7.681
  37.000         55.83	     8.185
  37.020         61.67	     8.602
  37.040         68.33	     9.055
  37.060         50.83	     7.810
  37.080         57.50	     8.307
  37.100         53.33	     8.000
  37.120         62.50	     8.660
  37.140         47.50	     7.550
  37.160         58.33	     8.367
  37.180         41.67	     7.071
  37.200         53.33	     8.000
  37.220         65.83	     8.888
  37.240         65.83	     8.888
  37.260         69.17	     9.110
  37.280         83.33	    10.000
  37.300         72.50	     9.327
  37.320         62.50	     8.660
  37.340         76.67	     9.592
  37.360         59.17	     8.426
  37.380         65.83	     8.888
  37.400         66.67	     8.944
  37.420         60.83	     8.544
  37.440         77.50	     9.644
  37.460         84.17	    10.050
  37.480         88.33	    10.296
  37.500        105.00	    11.225
  37.520        112.50	    11.619
  37.540        124.17	    12.207
  37.560         74.17	     9.434
  37.580         80.83	     9.849
  37.600        105.83	    11.269
  37.620        110.83	    11.533
  37.640        106.67	    11.314
  37.660        125.83	    12.288
  37.680         93.33	    10.583
  37.700         73.33	     9.381
  37.720         75.00	     9.487
  37.740         62.50	     8.660
  37.760         64.17	     8.775
  37.780         57.50	     8.307
  37.800         60.83	     8.544
  37.820         53.33	     8.000
  37.840         44.17	     7.280
  37.860         50.83	     7.810
  37.880         53.33	     8.000
  37.900         50.00	     7.746
  37.920         37.50	     6.708
  37.940         46.67	     7.483
  37.960         40.00	     6.928
  37.980         37.50	     6.708
  38.000         43.33	     7.211
  38.020         45.00	     7.348
  38.040         44.17	     7.280
  38.060         43.33	     7.211
  38.080         40.83	     7.000
  38.100         47.50	     7.550
  38.120         44.17	     7.280
  38.140         38.33	     6.782
  38.160         40.00	     6.928
  38.180         35.00	     6.481
  38.200         45.00	     7.348
  38.220         37.50	     6.708
  38.240         40.00	     6.928
  38.260         34.17	     6.403
  38.280         45.83	     7.416
  38.300         48.33	     7.616
  38.320         40.83	     7.000
  38.340         42.50	     7.141
  38.360         37.50	     6.708
  38.380         50.83	     7.810
  38.400         46.67	     7.483
  38.420         60.83	     8.544
  38.440         55.83	     8.185
  38.460         58.33	     8.367
  38.480         55.83	     8.185
  38.500         56.67	     8.246
  38.520         56.67	     8.246
  38.540         54.17	     8.062
  38.560         55.83	     8.185
  38.580         47.50	     7.550
  38.600         45.00	     7.348
  38.620         62.50	     8.660
  38.640         53.33	     8.000
  38.660         68.33	     9.055
  38.680         66.67	     8.944
  38.700         64.17	     8.775
  38.720         65.00	     8.832
  38.740         53.33	     8.000
  38.760         58.33	     8.367
  38.780         47.50	     7.550
  38.800         44.17	     7.280
  38.820         50.83	     7.810
  38.840         40.83	     7.000
  38.860         35.00	     6.481
  38.880         29.17	     5.916
  38.900         45.83	     7.416
  38.920         56.67	     8.246
  38.940         44.17	     7.280
  38.960         46.67	     7.483
  38.980         33.33	     6.325
  39.000         42.50	     7.141
  39.020         41.67	     7.071
  39.040         46.67	     7.483
  39.060         49.17	     7.681
  39.080         38.33	     6.782
  39.100         46.67	     7.483
  39.120         42.50	     7.141
  39.140         38.33	     6.782
  39.160         41.67	     7.071
  39.180         37.50	     6.708
  39.200         61.67	     8.602
  39.220         50.00	     7.746
  39.240         59.17	     8.426
  39.260         62.50	     8.660
  39.280         84.17	    10.050
  39.300        105.83	    11.269
  39.320        200.83	    15.524
  39.340        330.00	    19.900
  39.360        336.67	    20.100
  39.380        264.17	    17.804
  39.400        179.17	    14.663
  39.420        151.67	    13.491
  39.440        199.17	    15.460
  39.460        203.33	    15.620
  39.480        186.67	    14.967
  39.500        108.33	    11.402
  39.520         79.17	     9.747
  39.540         67.50	     9.000
  39.560         50.00	     7.746
  39.580         52.50	     7.937
  39.600         56.67	     8.246
  39.620         58.33	     8.367
  39.640         46.67	     7.483
  39.660         38.33	     6.782
  39.680         51.67	     7.874
  39.700         51.67	     7.874
  39.720         41.67	     7.071
  39.740         50.83	     7.810
  39.760         53.33	     8.000
  39.780         57.50	     8.307
  39.800         36.67	     6.633
  39.820         50.83	     7.810
  39.840         64.17	     8.775
  39.860         52.50	     7.937
  39.880         45.83	     7.416
  39.900         54.17	     8.062
  39.920         57.50	     8.307
  39.940         51.67	     7.874
  39.960         55.83	     8.185
  39.980         46.67	     7.483
  40.000         45.00	     7.348
  40.020         44.17	     7.280
  40.040         49.17	     7.681
  40.060         52.50	     7.937
  40.080         62.50	     8.660
  40.100         58.33	     8.367
  40.120         65.00	     8.832
  40.140         76.67	     9.592
  40.160        110.83	    11.533
  40.180        127.50	    12.369
  40.200        105.00	    11.225
  40.220         92.50	    10.536
  40.240         68.33	     9.055
  40.260         80.83	     9.849
  40.280        100.83	    11.000
  40.300         90.83	    10.440
  40.320         80.00	     9.798
  40.340         64.17	     8.775
  40.360         51.67	     7.874
  40.380         36.67	     6.633
  40.400         38.33	     6.782
  40.420         45.83	     7.416
  40.440         55.00	     8.124
  40.460         42.50	     7.141
  40.480         46.67	     7.483
  40.500         42.50	     7.141
  40.520         47.50	     7.550
  40.540         57.50	     8.307
  40.560         48.33	     7.616
  40.580         55.83	     8.185
  40.600         40.83	     7.000
  40.620         39.17	     6.856
  40.640         40.00	     6.928
  40.660         34.17	     6.403
  40.680         45.00	     7.348
  40.700         42.50	     7.141
  40.720         49.17	     7.681
  40.740         51.67	     7.874
  40.760         44.17	     7.280
  40.780         42.50	     7.141
  40.800         51.67	     7.874
  40.820         48.33	     7.616
  40.840         40.00	     6.928
  40.860         60.00	     8.485
  40.880         48.33	     7.616
  40.900         47.50	     7.550
  40.920         38.33	     6.782
  40.940         49.17	     7.681
  40.960         54.17	     8.062
  40.980         40.00	     6.928
  41.000         38.33	     6.782
  41.020         43.33	     7.211
  41.040         65.83	     8.888
  41.060         57.50	     8.307
  41.080         71.67	     9.274
  41.100         69.17	     9.110
  41.120         84.17	    10.050
  41.140         70.83	     9.220
  41.160         53.33	     8.000
  41.180         55.00	     8.124
  41.200         58.33	     8.367
  41.220         73.33	     9.381
  41.240         55.83	     8.185
  41.260         56.67	     8.246
  41.280         60.83	     8.544
  41.300         60.00	     8.485
  41.320         53.33	     8.000
  41.340         55.83	     8.185
  41.360         45.83	     7.416
  41.380         45.00	     7.348
  41.400         51.67	     7.874
  41.420         46.67	     7.483
  41.440         50.00	     7.746
  41.460         44.17	     7.280
  41.480         55.00	     8.124
  41.500         61.67	     8.602
  41.520         64.17	     8.775
  41.540         60.00	     8.485
  41.560         62.50	     8.660
  41.580         87.50	    10.247
  41.600         98.33	    10.863
  41.620         71.67	     9.274
  41.640         80.83	     9.849
  41.660         76.67	     9.592
  41.680         60.83	     8.544
  41.700         85.00	    10.100
  41.720         80.83	     9.849
  41.740         74.17	     9.434
  41.760         70.83	     9.220
  41.780         62.50	     8.660
  41.800         71.67	     9.274
  41.820         70.00	     9.165
  41.840         74.17	     9.434
  41.860         59.17	     8.426
  41.880         63.33	     8.718
  41.900         60.00	     8.485
  41.920         76.67	     9.592
  41.940         67.50	     9.000
  41.960         59.17	     8.426
  41.980         63.33	     8.718
  42.000         68.33	     9.055
  42.020         50.83	     7.810
  42.040         51.67	     7.874
  42.060         50.00	     7.746
  42.080         56.67	     8.246
  42.100         63.33	     8.718
  42.120         56.67	     8.246
  42.140         50.83	     7.810
  42.160         68.33	     9.055
  42.180         72.50	     9.327
  42.200         83.33	    10.000
  42.220         80.83	     9.849
  42.240         97.50	    10.817
  42.260         98.33	    10.863
  42.280        140.83	    13.000
  42.300        141.67	    13.038
  42.320        242.50	    17.059
  42.340        290.83	    18.682
  42.360        273.33	    18.111
  42.380        178.33	    14.629
  42.400        142.50	    13.077
  42.420        163.33	    14.000
  42.440        178.33	    14.629
  42.460        177.50	    14.595
  42.480        120.83	    12.042
  42.500        101.67	    11.045
  42.520         80.83	     9.849
  42.540         94.17	    10.630
  42.560         75.00	     9.487
  42.580         65.00	     8.832
  42.600         71.67	     9.274
  42.620         80.83	     9.849
  42.640         70.00	     9.165
  42.660         75.83	     9.539
  42.680         73.33	     9.381
  42.700         68.33	     9.055
  42.720         68.33	     9.055
  42.740         71.67	     9.274
  42.760         57.50	     8.307
  42.780         60.00	     8.485
  42.800         48.33	     7.616
  42.820         56.67	     8.246
  42.840         45.83	     7.416
  42.860         57.50	     8.307
  42.880         68.33	     9.055
  42.900         64.17	     8.775
  42.920         50.83	     7.810
  42.940         69.17	     9.110
  42.960         56.67	     8.246
  42.980         54.17	     8.062
  43.000         46.67	     7.483
  43.020         57.50	     8.307
  43.040         51.67	     7.874
  43.060         50.83	     7.810
  43.080         60.83	     8.544
  43.100         56.67	     8.246
  43.120         49.17	     7.681
  43.140         55.83	     8.185
  43.160         55.83	     8.185
  43.180         57.50	     8.307
  43.200         66.67	     8.944
  43.220         52.50	     7.937
  43.240         64.17	     8.775
  43.260         60.83	     8.544
  43.280         81.67	     9.899
  43.300         69.17	     9.110
  43.320         86.67	    10.198
  43.340         79.17	     9.747
  43.360         89.17	    10.344
  43.380         88.33	    10.296
  43.400        123.33	    12.166
  43.420         93.33	    10.583
  43.440        103.33	    11.136
  43.460        114.17	    11.705
  43.480        125.83	    12.288
  43.500        137.50	    12.845
  43.520        122.50	    12.124
  43.540        123.33	    12.166
  43.560        110.00	    11.489
  43.580        119.17	    11.958
  43.600        112.50	    11.619
  43.620        115.83	    11.790
  43.640        124.17	    12.207
  43.660        120.83	    12.042
  43.680        118.33	    11.916
  43.700         96.67	    10.770
  43.720        120.00	    12.000
  43.740        105.83	    11.269
  43.760        115.00	    11.747
  43.780        101.67	    11.045
  43.800        108.33	    11.402
  43.820        101.67	    11.045
  43.840        106.67	    11.314
  43.860         85.00	    10.100
  43.880        103.33	    11.136
  43.900        100.00	    10.954
  43.920        116.67	    11.832
  43.940        110.83	    11.533
  43.960        107.50	    11.358
  43.980        133.33	    12.649
  44.000        111.67	    11.576
  44.020        133.33	    12.649
  44.040        118.33	    11.916
  44.060        129.17	    12.450
  44.080        137.50	    12.845
  44.100        163.33	    14.000
  44.120        163.33	    14.000
  44.140        155.00	    13.638
  44.160        160.83	    13.892
  44.180        191.67	    15.166
  44.200        197.50	    15.395
  44.220        236.67	    16.852
  44.240        233.33	    16.733
  44.260        244.17	    17.117
  44.280        260.00	    17.664
  44.300        264.17	    17.804
  44.320        295.00	    18.815
  44.340        294.17	    18.788
  44.360        295.00	    18.815
  44.380        322.50	    19.672
  44.400        313.33	    19.391
  44.420        307.50	    19.209
  44.440        320.83	    19.621
  44.460        278.33	    18.276
  44.480        276.67	    18.221
  44.500        295.83	    18.841
  44.520        264.17	    17.804
  44.540        261.67	    17.720
  44.560        241.67	    17.029
  44.580        215.83	    16.093
  44.600        231.67	    16.673
  44.620        200.00	    15.492
  44.640        190.00	    15.100
  44.660        186.67	    14.967
  44.680        180.83	    14.731
  44.700        206.67	    15.748
  44.720        153.33	    13.565
  44.740        155.83	    13.675
  44.760        140.00	    12.961
  44.780        158.33	    13.784
  44.800        141.67	    13.038
  44.820        131.67	    12.570
  44.840        125.00	    12.247
  44.860        111.67	    11.576
  44.880        130.00	    12.490
  44.900        110.00	    11.489
  44.920        112.50	    11.619
  44.940        119.17	    11.958
  44.960         96.67	    10.770
  44.980         92.50	    10.536
  45.000         84.17	    10.050
  45.020        101.67	    11.045
  45.040         83.33	    10.000
  45.060         87.50	    10.247
  45.080         93.33	    10.583
  45.100         84.17	    10.050
  45.120         88.33	    10.296
  45.140         72.50	     9.327
  45.160         75.83	     9.539
  45.180         74.17	     9.434
  45.200         95.83	    10.724
  45.220        110.00	    11.489
  45.240        111.67	    11.576
  45.260         94.17	    10.630
  45.280        135.83	    12.767
  45.300        139.17	    12.923
  45.320        135.83	    12.767
  45.340        145.00	    13.191
  45.360        160.83	    13.892
  45.380        203.33	    15.620
  45.400        230.00	    16.613
  45.420        270.00	    18.000
  45.440        307.50	    19.209
  45.460        305.83	    19.157
  45.480        319.17	    19.570
  45.500        336.67	    20.100
  45.520        310.83	    19.313
  45.540        273.33	    18.111
  45.560        246.67	    17.205
  45.580        190.83	    15.133
  45.600        251.67	    17.378
  45.620        246.67	    17.205
  45.640        236.67	    16.852
  45.660        215.00	    16.062
  45.680        201.67	    15.556
  45.700        202.50	    15.588
  45.720        151.67	    13.491
  45.740        161.67	    13.928
  45.760        109.17	    11.446
  45.780        124.17	    12.207
  45.800        113.33	    11.662
  45.820         97.50	    10.817
  45.840         98.33	    10.863
  45.860         80.83	     9.849
  45.880         79.17	     9.747
  45.900         67.50	     9.000
  45.920         64.17	     8.775
  45.940         66.67	     8.944
  45.960         54.17	     8.062
  45.980         52.50	     7.937
  46.000         64.17	     8.775
  46.020         55.00	     8.124
  46.040         60.00	     8.485
  46.060         43.33	     7.211
  46.080         59.17	     8.426
  46.100         48.33	     7.616
  46.120         52.50	     7.937
  46.140         45.83	     7.416
  46.160         43.33	     7.211
  46.180         50.83	     7.810
  46.200         35.83	     6.557
  46.220         48.33	     7.616
  46.240         42.50	     7.141
  46.260         43.33	     7.211
  46.280         38.33	     6.782
  46.300         35.00	     6.481
  46.320         45.83	     7.416
  46.340         48.33	     7.616
  46.360         47.50	     7.550
  46.380         41.67	     7.071
  46.400         42.50	     7.141
  46.420         39.17	     6.856
  46.440         40.83	     7.000
  46.460         39.17	     6.856
  46.480         38.33	     6.782
  46.500         50.83	     7.810
  46.520         45.83	     7.416
  46.540         35.00	     6.481
  46.560         34.17	     6.403
  46.580         37.50	     6.708
  46.600         42.50	     7.141
  46.620         37.50	     6.708
  46.640         41.67	     7.071
  46.660         38.33	     6.782
  46.680         45.83	     7.416
  46.700         66.67	     8.944
  46.720         51.67	     7.874
  46.740         44.17	     7.280
  46.760         44.17	     7.280
  46.780         40.83	     7.000
  46.800         30.83	     6.083
  46.820         48.33	     7.616
  46.840         45.83	     7.416
  46.860         52.50	     7.937
  46.880         44.17	     7.280
  46.900         47.50	     7.550
  46.920         55.83	     8.185
  46.940         53.33	     8.000
  46.960         50.83	     7.810
  46.980         60.00	     8.485
  47.000         61.67	     8.602
  47.020         66.67	     8.944
  47.040         57.50	     8.307
  47.060         72.50	     9.327
  47.080         58.33	     8.367
  47.100         55.83	     8.185
  47.120         49.17	     7.681
  47.140         51.67	     7.874
  47.160         46.67	     7.483
  47.180         61.67	     8.602
  47.200         44.17	     7.280
  47.220         50.83	     7.810
  47.240         40.83	     7.000
  47.260         42.50	     7.141
  47.280         50.00	     7.746
  47.300         40.83	     7.000
  47.320         40.83	     7.000
  47.340         45.00	     7.348
  47.360         43.33	     7.211
  47.380         40.83	     7.000
  47.400         42.50	     7.141
  47.420         35.83	     6.557
  47.440         31.67	     6.164
  47.460         41.67	     7.071
  47.480         30.83	     6.083
  47.500         38.33	     6.782
  47.520         30.00	     6.000
  47.540         38.33	     6.782
  47.560         33.33	     6.325
  47.580         35.83	     6.557
  47.600         35.83	     6.557
  47.620         31.67	     6.164
  47.640         33.33	     6.325
  47.660         40.00	     6.928
  47.680         30.83	     6.083
  47.700         33.33	     6.325
  47.720         44.17	     7.280
  47.740         35.00	     6.481
  47.760         37.50	     6.708
  47.780         44.17	     7.280
  47.800         56.67	     8.246
  47.820         58.33	     8.367
  47.840         80.83	     9.849
  47.860         76.67	     9.592
  47.880         91.67	    10.488
  47.900         74.17	     9.434
  47.920         64.17	     8.775
  47.940         69.17	     9.110
  47.960         46.67	     7.483
  47.980         81.67	     9.899
  48.000         79.17	     9.747
  48.020         77.50	     9.644
  48.040         76.67	     9.592
  48.060         57.50	     8.307
  48.080         68.33	     9.055
  48.100         66.67	     8.944
  48.120         55.00	     8.124
  48.140         52.50	     7.937
  48.160         57.50	     8.307
  48.180         51.67	     7.874
  48.200         62.50	     8.660
  48.220         51.67	     7.874
  48.240         47.50	     7.550
  48.260         42.50	     7.141
  48.280         46.67	     7.483
  48.300         50.83	     7.810
  48.320         35.83	     6.557
  48.340         44.17	     7.280
  48.360         50.83	     7.810
  48.380         53.33	     8.000
  48.400         51.67	     7.874
  48.420         53.33	     8.000
  48.440         49.17	     7.681
  48.460         45.83	     7.416
  48.480         54.17	     8.062
  48.500         56.67	     8.246
  48.520         49.17	     7.681
  48.540         53.33	     8.000
  48.560         52.50	     7.937
  48.580         45.00	     7.348
  48.600         48.33	     7.616
  48.620         43.33	     7.211
  48.640         42.50	     7.141
  48.660         41.67	     7.071
  48.680         40.83	     7.000
  48.700         34.17	     6.403
  48.720         44.17	     7.280
  48.740         36.67	     6.633
  48.760         39.17	     6.856
  48.780         30.83	     6.083
  48.800         53.33	     8.000
  48.820         43.33	     7.211
  48.840         34.17	     6.403
  48.860         42.50	     7.141
  48.880         48.33	     7.616
  48.900         60.83	     8.544
  48.920         46.67	     7.483
  48.940         47.50	     7.550
  48.960         46.67	     7.483
  48.980         41.67	     7.071
  49.000         39.17	     6.856
  49.020         53.33	     8.000
  49.040         40.83	     7.000
  49.060         65.83	     8.888
  49.080         67.50	     9.000
  49.100         55.83	     8.185
  49.120         71.67	     9.274
  49.140         61.67	     8.602
  49.160         46.67	     7.483
  49.180         64.17	     8.775
  49.200         49.17	     7.681
  49.220         63.33	     8.718
  49.240         62.50	     8.660
  49.260         54.17	     8.062
  49.280         47.50	     7.550
  49.300         48.33	     7.616
  49.320         47.50	     7.550
  49.340         55.00	     8.124
  49.360         43.33	     7.211
  49.380         44.17	     7.280
  49.400         59.17	     8.426
  49.420         43.33	     7.211
  49.440         80.83	     9.849
  49.460         86.67	    10.198
  49.480         97.50	    10.817
  49.500         91.67	    10.488
  49.520         71.67	     9.274
  49.540         53.33	     8.000
  49.560         55.00	     8.124
  49.580         60.83	     8.544
  49.600         68.33	     9.055
  49.620         80.00	     9.798
  49.640         62.50	     8.660
  49.660         69.17	     9.110
  49.680         67.50	     9.000
  49.700         65.00	     8.832
  49.720         86.67	    10.198
  49.740         57.50	     8.307
  49.760         77.50	     9.644
  49.780         65.83	     8.888
  49.800        102.50	    11.091
  49.820        105.00	    11.225
  49.840         90.00	    10.392
  49.860         97.50	    10.817
  49.880        116.67	    11.832
  49.900        109.17	    11.446
  49.920        108.33	    11.402
  49.940        144.17	    13.153
  49.960        179.17	    14.663
  49.980        224.17	    16.401
  50.000        340.83	    20.224
  50.020        475.00	    23.875
  50.040        596.67	    26.758
  50.060        490.00	    24.249
  50.080        314.17	    19.416
  50.100        207.50	    15.780
  50.120        176.67	    14.560
  50.140        217.50	    16.155
  50.160        297.50	    18.894
  50.180        290.83	    18.682
  50.200        242.50	    17.059
  50.220        164.17	    14.036
  50.240        104.17	    11.180
  50.260         71.67	     9.274
  50.280         55.83	     8.185
  50.300         64.17	     8.775
  50.320         74.17	     9.434
  50.340         62.50	     8.660
  50.360         78.33	     9.695
  50.380         62.50	     8.660
  50.400         67.50	     9.000
  50.420         83.33	    10.000
  50.440        105.83	    11.269
  50.460        112.50	    11.619
  50.480        102.50	    11.091
  50.500        119.17	    11.958
  50.520         97.50	    10.817
  50.540        109.17	    11.446
  50.560         85.83	    10.149
  50.580        109.17	    11.446
  50.600        120.83	    12.042
  50.620        125.00	    12.247
  50.640        118.33	    11.916
  50.660        122.50	    12.124
  50.680         87.50	    10.247
  50.700         78.33	     9.695
  50.720         73.33	     9.381
  50.740         75.83	     9.539
  50.760         69.17	     9.110
  50.780         70.83	     9.220
  50.800         55.00	     8.124
  50.820         53.33	     8.000
  50.840         47.50	     7.550
  50.860         52.50	     7.937
  50.880         41.67	     7.071
  50.900         40.83	     7.000
  50.920         45.83	     7.416
  50.940         45.83	     7.416
  50.960         42.50	     7.141
  50.980         55.00	     8.124
  51.000         70.00	     9.165
  51.020         77.50	     9.644
  51.040         92.50	    10.536
  51.060         65.83	     8.888
  51.080         50.83	     7.810
  51.100         50.83	     7.810
  51.120         56.67	     8.246
  51.140         58.33	     8.367
  51.160         73.33	     9.381
  51.180         69.17	     9.110
  51.200         57.50	     8.307
  51.220         39.17	     6.856
  51.240         52.50	     7.937
  51.260         48.33	     7.616
  51.280         55.83	     8.185
  51.300         42.50	     7.141
  51.320         50.83	     7.810
  51.340         41.67	     7.071
  51.360         36.67	     6.633
  51.380         34.17	     6.403
  51.400         34.17	     6.403
  51.420         35.00	     6.481
  51.440         45.00	     7.348
  51.460         40.83	     7.000
  51.480         30.83	     6.083
  51.500         36.67	     6.633
  51.520         33.33	     6.325
  51.540         35.00	     6.481
  51.560         45.00	     7.348
  51.580         25.83	     5.568
  51.600         30.83	     6.083
  51.620         40.83	     7.000
  51.640         35.83	     6.557
  51.660         40.00	     6.928
  51.680         31.67	     6.164
  51.700         45.83	     7.416
  51.720         41.67	     7.071
  51.740         31.67	     6.164
  51.760         23.33	     5.292
  51.780         26.67	     5.657
  51.800         33.33	     6.325
  51.820         35.00	     6.481
  51.840         43.33	     7.211
  51.860         31.67	     6.164
  51.880         30.00	     6.000
  51.900         30.83	     6.083
  51.920         40.83	     7.000
  51.940         46.67	     7.483
  51.960         45.83	     7.416
  51.980         50.00	     7.746
  52.000         51.67	     7.874
  52.020         50.83	     7.810
  52.040         43.33	     7.211
  52.060         41.67	     7.071
  52.080         44.17	     7.280
  52.100         41.67	     7.071
  52.120         55.00	     8.124
  52.140         49.17	     7.681
  52.160         45.00	     7.348
  52.180         40.00	     6.928
  52.200         35.83	     6.557
  52.220         36.67	     6.633
  52.240         40.83	     7.000
  52.260         45.00	     7.348
  52.280         43.33	     7.211
  52.300         53.33	     8.000
  52.320         40.83	     7.000
  52.340         40.83	     7.000
  52.360         41.67	     7.071
  52.380         55.83	     8.185
  52.400         52.50	     7.937
  52.420         47.50	     7.550
  52.440         43.33	     7.211
  52.460         47.50	     7.550
  52.480         55.00	     8.124
  52.500         44.17	     7.280
  52.520         45.83	     7.416
  52.540         50.83	     7.810
  52.560         45.83	     7.416
  52.580         46.67	     7.483
  52.600         41.67	     7.071
  52.620         34.17	     6.403
  52.640         40.83	     7.000
  52.660         36.67	     6.633
  52.680         36.67	     6.633
  52.700         39.17	     6.856
  52.720         40.83	     7.000
  52.740         44.17	     7.280
  52.760         48.33	     7.616
  52.780         44.17	     7.280
  52.800         43.33	     7.211
  52.820         39.17	     6.856
  52.840         36.67	     6.633
  52.860         51.67	     7.874
  52.880         49.17	     7.681
  52.900         44.17	     7.280
  52.920         40.83	     7.000
  52.940         45.00	     7.348
  52.960         48.33	     7.616
  52.980         52.50	     7.937
  53.000         49.17	     7.681
  53.020         52.50	     7.937
  53.040         71.67	     9.274
  53.060         70.83	     9.220
  53.080         98.33	    10.863
  53.100        146.67	    13.266
  53.120        230.83	    16.643
  53.140        139.17	    12.923
  53.160         87.50	    10.247
  53.180         75.00	     9.487
  53.200         62.50	     8.660
  53.220         78.33	     9.695
  53.240        109.17	    11.446
  53.260        111.67	    11.576
  53.280         99.17	    10.909
  53.300         64.17	     8.775
  53.320         57.50	     8.307
  53.340         61.67	     8.602
  53.360         45.00	     7.348
  53.380         49.17	     7.681
  53.400         48.33	     7.616
  53.420         42.50	     7.141
  53.440         35.00	     6.481
  53.460         40.83	     7.000
  53.480         45.83	     7.416
  53.500         36.67	     6.633
  53.520         35.83	     6.557
  53.540         37.50	     6.708
  53.560         45.00	     7.348
  53.580         50.83	     7.810
  53.600         49.17	     7.681
  53.620         39.17	     6.856
  53.640         34.17	     6.403
  53.660         36.67	     6.633
  53.680         35.00	     6.481
  53.700         30.83	     6.083
  53.720         31.67	     6.164
  53.740         32.50	     6.245
  53.760         33.33	     6.325
  53.780         42.50	     7.141
  53.800         37.50	     6.708
  53.820         35.83	     6.557
  53.840         43.33	     7.211
  53.860         30.83	     6.083
  53.880         42.50	     7.141
  53.900         30.00	     6.000
  53.920         45.00	     7.348
  53.940         32.50	     6.245
  53.960         30.83	     6.083
  53.980         37.50	     6.708
  54.000         49.17	     7.681
  54.020         31.67	     6.164
  54.040         29.17	     5.916
  54.060         41.67	     7.071
  54.080         45.83	     7.416
  54.100         49.17	     7.681
  54.120         44.17	     7.280
  54.140         46.67	     7.483
  54.160         37.50	     6.708
  54.180         51.67	     7.874
  54.200         38.33	     6.782
  54.220         54.17	     8.062
  54.240         45.00	     7.348
  54.260         51.67	     7.874
  54.280         53.33	     8.000
  54.300         49.17	     7.681
  54.320         43.33	     7.211
  54.340         47.50	     7.550
  54.360         44.17	     7.280
  54.380         42.50	     7.141
  54.400         40.00	     6.928
  54.420         50.00	     7.746
  54.440         39.17	     6.856
  54.460         47.50	     7.550
  54.480         46.67	     7.483
  54.500         34.17	     6.403
  54.520         60.00	     8.485
  54.540         50.00	     7.746
  54.560         42.50	     7.141
  54.580         55.00	     8.124
  54.600         50.83	     7.810
  54.620         42.50	     7.141
  54.640         50.83	     7.810
  54.660         67.50	     9.000
  54.680         80.00	     9.798
  54.700         97.50	    10.817
  54.720        132.50	    12.610
  54.740        159.17	    13.820
  54.760        214.17	    16.031
  54.780        185.00	    14.900
  54.800        141.67	    13.038
  54.820        101.67	    11.045
  54.840         80.00	     9.798
  54.860         81.67	     9.899
  54.880        110.83	    11.533
  54.900        125.00	    12.247
  54.920        135.83	    12.767
  54.940        126.67	    12.329
  54.960         89.17	    10.344
  54.980         65.00	     8.832
  55.000         60.00	     8.485
  55.020         52.50	     7.937
  55.040         54.17	     8.062
  55.060         55.00	     8.124
  55.080         55.00	     8.124
  55.100         67.50	     9.000
  55.120         54.17	     8.062
  55.140         62.50	     8.660
  55.160         72.50	     9.327
  55.180         87.50	    10.247
  55.200         85.00	    10.100
  55.220         99.17	    10.909
  55.240         70.00	     9.165
  55.260         70.00	     9.165
  55.280         61.67	     8.602
  55.300         62.50	     8.660
  55.320         54.17	     8.062
  55.340         81.67	     9.899
  55.360         73.33	     9.381
  55.380         65.00	     8.832
  55.400         64.17	     8.775
  55.420         52.50	     7.937
  55.440         43.33	     7.211
  55.460         56.67	     8.246
  55.480         49.17	     7.681
  55.500         54.17	     8.062
  55.520         46.67	     7.483
  55.540         51.67	     7.874
  55.560         56.67	     8.246
  55.580         55.83	     8.185
  55.600         60.00	     8.485
  55.620         61.67	     8.602
  55.640         74.17	     9.434
  55.660         58.33	     8.367
  55.680         63.33	     8.718
  55.700         70.00	     9.165
  55.720         81.67	     9.899
  55.740         70.00	     9.165
  55.760         51.67	     7.874
  55.780         73.33	     9.381
  55.800         61.67	     8.602
  55.820         46.67	     7.483
  55.840         65.00	     8.832
  55.860         86.67	    10.198
  55.880         73.33	     9.381
  55.900         67.50	     9.000
  55.920         59.17	     8.426
  55.940         44.17	     7.280
  55.960         72.50	     9.327
  55.980         52.50	     7.937
  56.000         61.67	     8.602
  56.020         55.00	     8.124
  56.040         45.83	     7.416
  56.060         53.33	     8.000
  56.080         53.33	     8.000
  56.100         51.67	     7.874
  56.120         55.00	     8.124
  56.140         45.00	     7.348
  56.160         41.67	     7.071
  56.180         44.17	     7.280
  56.200         39.17	     6.856
  56.220         43.33	     7.211
  56.240         40.00	     6.928
  56.260         40.83	     7.000
  56.280         40.83	     7.000
  56.300         41.67	     7.071
  56.320         46.67	     7.483
  56.340         40.00	     6.928
  56.360         38.33	     6.782
  56.380         37.50	     6.708
  56.400         30.83	     6.083
  56.420         37.50	     6.708
  56.440         42.50	     7.141
  56.460         48.33	     7.616
  56.480         32.50	     6.245
  56.500         49.17	     7.681
  56.520         40.83	     7.000
  56.540         36.67	     6.633
  56.560         55.00	     8.124
  56.580         45.00	     7.348
  56.600         39.17	     6.856
  56.620         62.50	     8.660
  56.640         68.33	     9.055
  56.660         50.83	     7.810
  56.680         42.50	     7.141
  56.700         41.67	     7.071
  56.720         40.00	     6.928
  56.740         46.67	     7.483
  56.760         35.00	     6.481
  56.780         47.50	     7.550
  56.800         57.50	     8.307
  56.820         45.00	     7.348
  56.840         43.33	     7.211
  56.860         42.50	     7.141
  56.880         38.33	     6.782
  56.900         41.67	     7.071
  56.920         40.83	     7.000
  56.940         39.17	     6.856
  56.960         35.00	     6.481
  56.980         51.67	     7.874
  57.000         50.00	     7.746
  57.020         50.83	     7.810
  57.040         60.83	     8.544
  57.060         45.83	     7.416
  57.080         51.67	     7.874
  57.100         40.83	     7.000
  57.120         54.17	     8.062
  57.140         45.00	     7.348
  57.160         62.50	     8.660
  57.180         37.50	     6.708
  57.200         46.67	     7.483
  57.220         34.17	     6.403
  57.240         45.00	     7.348
  57.260         34.17	     6.403
  57.280         40.83	     7.000
  57.300         40.00	     6.928
  57.320         33.33	     6.325
  57.340         35.00	     6.481
  57.360         35.83	     6.557
  57.380         35.83	     6.557
  57.400         41.67	     7.071
  57.420         39.17	     6.856
  57.440         35.83	     6.557
  57.460         41.67	     7.071
  57.480         44.17	     7.280
  57.500         31.67	     6.164
  57.520         38.33	     6.782
  57.540         48.33	     7.616
  57.560         43.33	     7.211
  57.580         42.50	     7.141
  57.600         36.67	     6.633
  57.620         44.17	     7.280
  57.640         35.83	     6.557
  57.660         40.00	     6.928
  57.680         37.50	     6.708
  57.700         39.17	     6.856
  57.720         40.83	     7.000
  57.740         42.50	     7.141
  57.760         33.33	     6.325
  57.780         35.83	     6.557
  57.800         38.33	     6.782
  57.820         33.33	     6.325
  57.840         32.50	     6.245
  57.860         23.33	     5.292
  57.880         34.17	     6.403
  57.900         49.17	     7.681
  57.920         30.83	     6.083
  57.940         42.50	     7.141
  57.960         40.83	     7.000
  57.980         45.00	     7.348
  58.000         35.00	     6.481
  58.020         36.67	     6.633
  58.040         37.50	     6.708
  58.060         45.83	     7.416
  58.080         43.33	     7.211
  58.100         44.17	     7.280
  58.120         41.67	     7.071
  58.140         28.33	     5.831
  58.160         37.50	     6.708
  58.180         42.50	     7.141
  58.200         56.67	     8.246
  58.220         52.50	     7.937
  58.240         41.67	     7.071
  58.260         34.17	     6.403
  58.280         38.33	     6.782
  58.300         34.17	     6.403
  58.320         39.17	     6.856
  58.340         45.83	     7.416
  58.360         47.50	     7.550
  58.380         51.67	     7.874
  58.400         43.33	     7.211
  58.420         45.00	     7.348
  58.440         55.00	     8.124
  58.460         72.50	     9.327
  58.480         57.50	     8.307
  58.500         59.17	     8.426
  58.520         70.83	     9.220
  58.540         59.17	     8.426
  58.560         48.33	     7.616
  58.580         51.67	     7.874
  58.600         63.33	     8.718
  58.620         56.67	     8.246
  58.640         74.17	     9.434
  58.660         74.17	     9.434
  58.680         73.33	     9.381
  58.700         71.67	     9.274
  58.720         67.50	     9.000
  58.740         66.67	     8.944
  58.760         57.50	     8.307
  58.780         42.50	     7.141
  58.800         51.67	     7.874
  58.820         47.50	     7.550
  58.840         70.83	     9.220
  58.860         73.33	     9.381
  58.880         60.00	     8.485
  58.900         61.67	     8.602
  58.920         50.83	     7.810
  58.940         50.00	     7.746
  58.960         55.00	     8.124
  58.980         55.83	     8.185
  59.000         45.83	     7.416
  59.020         54.17	     8.062
  59.040         52.50	     7.937
  59.060         60.00	     8.485
  59.080         68.33	     9.055
  59.100         56.67	     8.246
  59.120         43.33	     7.211
  59.140         49.17	     7.681
  59.160         60.00	     8.485
  59.180         39.17	     6.856
  59.200         54.17	     8.062
  59.220         46.67	     7.483
  59.240         46.67	     7.483
  59.260         51.67	     7.874
  59.280         35.83	     6.557
  59.300         40.00	     6.928
  59.320         37.50	     6.708
  59.340         44.17	     7.280
  59.360         42.50	     7.141
  59.380         45.00	     7.348
  59.400         40.00	     6.928
  59.420         47.50	     7.550
  59.440         51.67	     7.874
  59.460         46.67	     7.483
  59.480         56.67	     8.246
  59.500         49.17	     7.681
  59.520         50.00	     7.746
  59.540         44.17	     7.280
  59.560         44.17	     7.280
  59.580         46.67	     7.483
  59.600         52.50	     7.937
  59.620         56.67	     8.246
  59.640         60.83	     8.544
  59.660         65.83	     8.888
  59.680         52.50	     7.937
  59.700         53.33	     8.000
  59.720         83.33	    10.000
  59.740         79.17	     9.747
  59.760        112.50	    11.619
  59.780        159.17	    13.820
  59.800        224.17	    16.401
  59.820        365.00	    20.928
  59.840        440.00	    22.978
  59.860        417.50	    22.383
  59.880        351.67	    20.543
  59.900        206.67	    15.748
  59.920        160.83	    13.892
  59.940        140.00	    12.961
  59.960        198.33	    15.427
  59.980        226.67	    16.492
  60.000        246.67	    17.205
  60.020        233.33	    16.733
  60.040        208.33	    15.811
  60.060        145.00	    13.191
  60.080         77.50	     9.644
  60.100         79.17	     9.747
  60.120         68.33	     9.055
  60.140         68.33	     9.055
  60.160         79.17	     9.747
  60.180         50.00	     7.746
  60.200         62.50	     8.660
  60.220         60.83	     8.544
  60.240         46.67	     7.483
  60.260         43.33	     7.211
  60.280         48.33	     7.616
  60.300         53.33	     8.000
  60.320         47.50	     7.550
  60.340         69.17	     9.110
  60.360         45.00	     7.348
  60.380         52.50	     7.937
  60.400         56.67	     8.246
  60.420         43.33	     7.211
  60.440         50.83	     7.810
  60.460         61.67	     8.602
  60.480         54.17	     8.062
  60.500         50.83	     7.810
  60.520         54.17	     8.062
  60.540         46.67	     7.483
  60.560         50.00	     7.746
  60.580         52.50	     7.937
  60.600         60.83	     8.544
  60.620         64.17	     8.775
  60.640         50.00	     7.746
  60.660         55.00	     8.124
  60.680         55.00	     8.124
  60.700         65.83	     8.888
  60.720         51.67	     7.874
  60.740         52.50	     7.937
  60.760         63.33	     8.718
  60.780         58.33	     8.367
  60.800         51.67	     7.874
  60.820         54.17	     8.062
  60.840         68.33	     9.055
  60.860         39.17	     6.856
  60.880         53.33	     8.000
  60.900         68.33	     9.055
  60.920         64.17	     8.775
  60.940         54.17	     8.062
  60.960         50.00	     7.746
  60.980         60.00	     8.485
  61.000         50.00	     7.746
  61.020         56.67	     8.246
  61.040         96.67	    10.770
  61.060        130.83	    12.530
  61.080        143.33	    13.115
  61.100         94.17	    10.630
  61.120         50.00	     7.746
  61.140         47.50	     7.550
  61.160         65.83	     8.888
  61.180         62.50	     8.660
  61.200         68.33	     9.055
  61.220         79.17	     9.747
  61.240         96.67	    10.770
  61.260         75.83	     9.539
  61.280         69.17	     9.110
  61.300         63.33	     8.718
  61.320         58.33	     8.367
  61.340         64.17	     8.775
  61.360         74.17	     9.434
  61.380         58.33	     8.367
  61.400         70.00	     9.165
  61.420         81.67	     9.899
  61.440         66.67	     8.944
  61.460         74.17	     9.434
  61.480         70.00	     9.165
  61.500         58.33	     8.367
  61.520         69.17	     9.110
  61.540         74.17	     9.434
  61.560         67.50	     9.000
  61.580         66.67	     8.944
  61.600         64.17	     8.775
  61.620         70.83	     9.220
  61.640         68.33	     9.055
  61.660         67.50	     9.000
  61.680         55.00	     8.124
  61.700         60.83	     8.544
  61.720         45.00	     7.348
  61.740         50.00	     7.746
  61.760         64.17	     8.775
  61.780         78.33	     9.695
  61.800         52.50	     7.937
  61.820         51.67	     7.874
  61.840         55.83	     8.185
  61.860         47.50	     7.550
  61.880         50.00	     7.746
  61.900         45.00	     7.348
  61.920         40.83	     7.000
  61.940         48.33	     7.616
  61.960         51.67	     7.874
  61.980         45.00	     7.348
  62.000         29.17	     5.916
  62.020         56.67	     8.246
  62.040         37.50	     6.708
  62.060         54.17	     8.062
  62.080         51.67	     7.874
  62.100         40.00	     6.928
  62.120         48.33	     7.616
  62.140         41.67	     7.071
  62.160         41.67	     7.071
  62.180         38.33	     6.782
  62.200         41.67	     7.071
  62.220         45.00	     7.348
  62.240         36.67	     6.633
  62.260         38.33	     6.782
  62.280         38.33	     6.782
  62.300         45.00	     7.348
  62.320         41.67	     7.071
  62.340         34.17	     6.403
  62.360         41.67	     7.071
  62.380         55.83	     8.185
  62.400         44.17	     7.280
  62.420         40.83	     7.000
  62.440         40.83	     7.000
  62.460         50.00	     7.746
  62.480         55.83	     8.185
  62.500         39.17	     6.856
  62.520         43.33	     7.211
  62.540         41.67	     7.071
  62.560         35.00	     6.481
  62.580         46.67	     7.483
  62.600         52.50	     7.937
  62.620         43.33	     7.211
  62.640         39.17	     6.856
  62.660         26.67	     5.657
  62.680         50.00	     7.746
  62.700         39.17	     6.856
  62.720         34.17	     6.403
  62.740         40.00	     6.928
  62.760         32.50	     6.245
  62.780         43.33	     7.211
  62.800         34.17	     6.403
  62.820         37.50	     6.708
  62.840         45.00	     7.348
  62.860         45.83	     7.416
  62.880         42.50	     7.141
  62.900         45.83	     7.416
  62.920         40.00	     6.928
  62.940         27.50	     5.745
  62.960         27.50	     5.745
  62.980         37.50	     6.708
  63.000         42.50	     7.141
  63.020         35.00	     6.481
  63.040         40.83	     7.000
  63.060         47.50	     7.550
  63.080         25.00	     5.477
  63.100         46.67	     7.483
  63.120         43.33	     7.211
  63.140         31.67	     6.164
  63.160         35.00	     6.481
  63.180         40.83	     7.000
  63.200         53.33	     8.000
  63.220         42.50	     7.141
  63.240         31.67	     6.164
  63.260         33.33	     6.325
  63.280         35.00	     6.481
  63.300         38.33	     6.782
  63.320         38.33	     6.782
  63.340         45.83	     7.416
  63.360         40.00	     6.928
  63.380         50.00	     7.746
  63.400         40.00	     6.928
  63.420         43.33	     7.211
  63.440         37.50	     6.708
  63.460         41.67	     7.071
  63.480         49.17	     7.681
  63.500         50.00	     7.746
  63.520         38.33	     6.782
  63.540         36.67	     6.633
  63.560         54.17	     8.062
  63.580         50.00	     7.746
  63.600         61.67	     8.602
  63.620         53.33	     8.000
  63.640         69.17	     9.110
  63.660         63.33	     8.718
  63.680         45.00	     7.348
  63.700         51.67	     7.874
  63.720         50.83	     7.810
  63.740         54.17	     8.062
  63.760         37.50	     6.708
  63.780         52.50	     7.937
  63.800         49.17	     7.681
  63.820         65.83	     8.888
  63.840         61.67	     8.602
  63.860         75.00	     9.487
  63.880         73.33	     9.381
  63.900         86.67	    10.198
  63.920         90.83	    10.440
  63.940         90.83	    10.440
  63.960         78.33	     9.695
  63.980         70.00	     9.165
  64.000         69.17	     9.110
  64.020         70.00	     9.165
  64.040         70.83	     9.220
  64.060         64.17	     8.775
  64.080         67.50	     9.000
  64.100         73.33	     9.381
  64.120         74.17	     9.434
  64.140         70.83	     9.220
  64.160         70.00	     9.165
  64.180         61.67	     8.602
  64.200         62.50	     8.660
  64.220         57.50	     8.307
  64.240         48.33	     7.616
  64.260         55.00	     8.124
  64.280         45.00	     7.348
  64.300         48.33	     7.616
  64.320         41.67	     7.071
  64.340         38.33	     6.782
  64.360         34.17	     6.403
  64.380         45.00	     7.348
  64.400         46.67	     7.483
  64.420         45.83	     7.416
  64.440         49.17	     7.681
  64.460         44.17	     7.280
  64.480         59.17	     8.426
  64.500         45.83	     7.416
  64.520         55.83	     8.185
  64.540         56.67	     8.246
  64.560         50.83	     7.810
  64.580         48.33	     7.616
  64.600         65.83	     8.888
  64.620         56.67	     8.246
  64.640         60.83	     8.544
  64.660         70.83	     9.220
  64.680         70.00	     9.165
  64.700         55.00	     8.124
  64.720         59.17	     8.426
  64.740         53.33	     8.000
  64.760         60.00	     8.485
  64.780         55.83	     8.185
  64.800         51.67	     7.874
  64.820         53.33	     8.000
  64.840         45.00	     7.348
  64.860         65.00	     8.832
  64.880         60.83	     8.544
  64.900         55.83	     8.185
  64.920         52.50	     7.937
  64.940         50.00	     7.746
  64.960         50.83	     7.810
  64.980         52.50	     7.937
  65.000         50.00	     7.746
