
Filename:
	C:\Program Files\Thermo Electron\WinXRD\Datafiles\F_HERMAN\GEO\G75_RT.raw

File Created:
	February 21, 2020 - 10:42 PM

Specimen Id:
	G75_RT

Specimen Name:
	

Specimen Description:
	

Comment:
Scan Type: 2Theta Scan
Start Angle: 3 deg.
Stop Angle: 65 deg.
Num Points: 3101
Step Size: 0.02 deg.
Scan Rate: 1.000000
Scan Mode: Continuous
Wavelength: 1.540562
\Kalpha1: 1.540562	\Kalpha2: 1.544390	\Kbeta: 1.392218

Optics:
		Detector:
			 Type: Fixed Slits
		Tube: 
			 Type: Fixed Slits


Datas:
 Pos [deg]       Rate [CPS]      ESD [-]

Range 1 ---> Iteration 1
   3.000        455.00	    23.367
   3.020        471.67	    23.791
   3.040        417.50	    22.383
   3.060        452.50	    23.302
   3.080        411.67	    22.226
   3.100        423.33	    22.539
   3.120        400.00	    21.909
   3.140        439.17	    22.956
   3.160        426.67	    22.627
   3.180        371.67	    21.119
   3.200        457.50	    23.431
   3.220        389.17	    21.610
   3.240        410.00	    22.181
   3.260        408.33	    22.136
   3.280        396.67	    21.817
   3.300        405.83	    22.068
   3.320        406.67	    22.091
   3.340        380.00	    21.354
   3.360        412.50	    22.249
   3.380        417.50	    22.383
   3.400        366.67	    20.976
   3.420        393.33	    21.726
   3.440        388.33	    21.587
   3.460        401.67	    21.954
   3.480        409.17	    22.159
   3.500        374.17	    21.190
   3.520        368.33	    21.024
   3.540        365.83	    20.952
   3.560        357.50	    20.712
   3.580        374.17	    21.190
   3.600        392.50	    21.703
   3.620        354.17	    20.616
   3.640        376.67	    21.260
   3.660        355.83	    20.664
   3.680        365.83	    20.952
   3.700        380.83	    21.378
   3.720        349.17	    20.469
   3.740        339.17	    20.174
   3.760        345.00	    20.347
   3.780        336.67	    20.100
   3.800        345.83	    20.372
   3.820        344.17	    20.322
   3.840        311.67	    19.339
   3.860        318.33	    19.545
   3.880        323.33	    19.698
   3.900        345.83	    20.372
   3.920        330.83	    19.925
   3.940        373.33	    21.166
   3.960        348.33	    20.445
   3.980        307.50	    19.209
   4.000        352.50	    20.567
   4.020        340.83	    20.224
   4.040        334.17	    20.025
   4.060        322.50	    19.672
   4.080        336.67	    20.100
   4.100        345.00	    20.347
   4.120        315.00	    19.442
   4.140        324.17	    19.723
   4.160        290.00	    18.655
   4.180        302.50	    19.053
   4.200        338.33	    20.149
   4.220        308.33	    19.235
   4.240        296.67	    18.868
   4.260        309.17	    19.261
   4.280        272.50	    18.083
   4.300        292.50	    18.735
   4.320        274.17	    18.138
   4.340        321.67	    19.647
   4.360        283.33	    18.439
   4.380        302.50	    19.053
   4.400        340.83	    20.224
   4.420        274.17	    18.138
   4.440        295.83	    18.841
   4.460        276.67	    18.221
   4.480        265.83	    17.861
   4.500        266.67	    17.889
   4.520        278.33	    18.276
   4.540        301.67	    19.026
   4.560        287.50	    18.574
   4.580        285.83	    18.520
   4.600        267.50	    17.916
   4.620        278.33	    18.276
   4.640        265.00	    17.833
   4.660        301.67	    19.026
   4.680        283.33	    18.439
   4.700        276.67	    18.221
   4.720        292.50	    18.735
   4.740        282.50	    18.412
   4.760        258.33	    17.607
   4.780        293.33	    18.762
   4.800        264.17	    17.804
   4.820        253.33	    17.436
   4.840        250.00	    17.321
   4.860        258.33	    17.607
   4.880        260.00	    17.664
   4.900        242.50	    17.059
   4.920        262.50	    17.748
   4.940        237.50	    16.882
   4.960        225.83	    16.462
   4.980        269.17	    17.972
   5.000        230.83	    16.643
   5.020        253.33	    17.436
   5.040        275.83	    18.193
   5.060        271.67	    18.055
   5.080        245.00	    17.146
   5.100        258.33	    17.607
   5.120        265.83	    17.861
   5.140        240.83	    17.000
   5.160        248.33	    17.263
   5.180        244.17	    17.117
   5.200        207.50	    15.780
   5.220        226.67	    16.492
   5.240        233.33	    16.733
   5.260        260.00	    17.664
   5.280        245.00	    17.146
   5.300        248.33	    17.263
   5.320        232.50	    16.703
   5.340        239.17	    16.941
   5.360        242.50	    17.059
   5.380        245.83	    17.176
   5.400        243.33	    17.088
   5.420        222.50	    16.340
   5.440        229.17	    16.583
   5.460        223.33	    16.371
   5.480        237.50	    16.882
   5.500        235.83	    16.823
   5.520        240.83	    17.000
   5.540        257.50	    17.578
   5.560        207.50	    15.780
   5.580        230.00	    16.613
   5.600        244.17	    17.117
   5.620        233.33	    16.733
   5.640        225.83	    16.462
   5.660        218.33	    16.186
   5.680        223.33	    16.371
   5.700        256.67	    17.550
   5.720        215.83	    16.093
   5.740        213.33	    16.000
   5.760        193.33	    15.232
   5.780        251.67	    17.378
   5.800        241.67	    17.029
   5.820        235.00	    16.793
   5.840        240.00	    16.971
   5.860        272.50	    18.083
   5.880        256.67	    17.550
   5.900        280.83	    18.358
   5.920        272.50	    18.083
   5.940        257.50	    17.578
   5.960        275.00	    18.166
   5.980        272.50	    18.083
   6.000        265.83	    17.861
   6.020        311.67	    19.339
   6.040        340.83	    20.224
   6.060        364.17	    20.905
   6.080        340.83	    20.224
   6.100        360.83	    20.809
   6.120        365.83	    20.952
   6.140        365.83	    20.952
   6.160        270.00	    18.000
   6.180        230.00	    16.613
   6.200        248.33	    17.263
   6.220        207.50	    15.780
   6.240        235.00	    16.793
   6.260        205.00	    15.684
   6.280        232.50	    16.703
   6.300        202.50	    15.588
   6.320        191.67	    15.166
   6.340        222.50	    16.340
   6.360        210.00	    15.875
   6.380        212.50	    15.969
   6.400        205.00	    15.684
   6.420        213.33	    16.000
   6.440        195.83	    15.330
   6.460        209.17	    15.843
   6.480        194.17	    15.264
   6.500        195.00	    15.297
   6.520        193.33	    15.232
   6.540        200.83	    15.524
   6.560        194.17	    15.264
   6.580        194.17	    15.264
   6.600        202.50	    15.588
   6.620        201.67	    15.556
   6.640        199.17	    15.460
   6.660        202.50	    15.588
   6.680        201.67	    15.556
   6.700        180.00	    14.697
   6.720        196.67	    15.362
   6.740        216.67	    16.125
   6.760        186.67	    14.967
   6.780        187.50	    15.000
   6.800        194.17	    15.264
   6.820        182.50	    14.799
   6.840        195.00	    15.297
   6.860        182.50	    14.799
   6.880        205.83	    15.716
   6.900        188.33	    15.033
   6.920        184.17	    14.866
   6.940        187.50	    15.000
   6.960        185.00	    14.900
   6.980        165.00	    14.071
   7.000        198.33	    15.427
   7.020        172.50	    14.387
   7.040        179.17	    14.663
   7.060        175.00	    14.491
   7.080        199.17	    15.460
   7.100        188.33	    15.033
   7.120        161.67	    13.928
   7.140        180.83	    14.731
   7.160        194.17	    15.264
   7.180        178.33	    14.629
   7.200        175.83	    14.526
   7.220        185.83	    14.933
   7.240        169.17	    14.248
   7.260        189.17	    15.067
   7.280        188.33	    15.033
   7.300        173.33	    14.422
   7.320        163.33	    14.000
   7.340        175.00	    14.491
   7.360        160.83	    13.892
   7.380        163.33	    14.000
   7.400        160.83	    13.892
   7.420        183.33	    14.832
   7.440        150.00	    13.416
   7.460        156.67	    13.711
   7.480        171.67	    14.353
   7.500        174.17	    14.457
   7.520        166.67	    14.142
   7.540        160.00	    13.856
   7.560        177.50	    14.595
   7.580        155.00	    13.638
   7.600        156.67	    13.711
   7.620        158.33	    13.784
   7.640        152.50	    13.528
   7.660        176.67	    14.560
   7.680        151.67	    13.491
   7.700        141.67	    13.038
   7.720        151.67	    13.491
   7.740        157.50	    13.748
   7.760        142.50	    13.077
   7.780        160.83	    13.892
   7.800        174.17	    14.457
   7.820        138.33	    12.884
   7.840        155.83	    13.675
   7.860        153.33	    13.565
   7.880        150.83	    13.454
   7.900        186.67	    14.967
   7.920        176.67	    14.560
   7.940        143.33	    13.115
   7.960        155.83	    13.675
   7.980        167.50	    14.177
   8.000        164.17	    14.036
   8.020        165.00	    14.071
   8.040        149.17	    13.379
   8.060        159.17	    13.820
   8.080        157.50	    13.748
   8.100        157.50	    13.748
   8.120        134.17	    12.689
   8.140        162.50	    13.964
   8.160        153.33	    13.565
   8.180        151.67	    13.491
   8.200        165.83	    14.107
   8.220        138.33	    12.884
   8.240        152.50	    13.528
   8.260        144.17	    13.153
   8.280        155.83	    13.675
   8.300        147.50	    13.304
   8.320        148.33	    13.342
   8.340        173.33	    14.422
   8.360        152.50	    13.528
   8.380        153.33	    13.565
   8.400        165.00	    14.071
   8.420        135.00	    12.728
   8.440        175.83	    14.526
   8.460        185.83	    14.933
   8.480        173.33	    14.422
   8.500        183.33	    14.832
   8.520        170.00	    14.283
   8.540        188.33	    15.033
   8.560        199.17	    15.460
   8.580        206.67	    15.748
   8.600        217.50	    16.155
   8.620        220.00	    16.248
   8.640        255.83	    17.521
   8.660        278.33	    18.276
   8.680        284.17	    18.466
   8.700        316.67	    19.494
   8.720        398.33	    21.863
   8.740        541.67	    25.495
   8.760        718.33	    29.360
   8.780        729.17	    29.580
   8.800        603.33	    26.907
   8.820        400.00	    21.909
   8.840        260.00	    17.664
   8.860        175.83	    14.526
   8.880        185.00	    14.900
   8.900        146.67	    13.266
   8.920        167.50	    14.177
   8.940        163.33	    14.000
   8.960        150.83	    13.454
   8.980        159.17	    13.820
   9.000        153.33	    13.565
   9.020        135.83	    12.767
   9.040        137.50	    12.845
   9.060        152.50	    13.528
   9.080        135.00	    12.728
   9.100        123.33	    12.166
   9.120        148.33	    13.342
   9.140        139.17	    12.923
   9.160        150.00	    13.416
   9.180        139.17	    12.923
   9.200        140.83	    13.000
   9.220        135.00	    12.728
   9.240        136.67	    12.806
   9.260        142.50	    13.077
   9.280        145.83	    13.229
   9.300        156.67	    13.711
   9.320        180.83	    14.731
   9.340        200.00	    15.492
   9.360        197.50	    15.395
   9.380        171.67	    14.353
   9.400        119.17	    11.958
   9.420        127.50	    12.369
   9.440        125.83	    12.288
   9.460        134.17	    12.689
   9.480        127.50	    12.369
   9.500        143.33	    13.115
   9.520        111.67	    11.576
   9.540        125.00	    12.247
   9.560        118.33	    11.916
   9.580        130.00	    12.490
   9.600        116.67	    11.832
   9.620        103.33	    11.136
   9.640        117.50	    11.874
   9.660         99.17	    10.909
   9.680        128.33	    12.410
   9.700        115.00	    11.747
   9.720        107.50	    11.358
   9.740        125.83	    12.288
   9.760        128.33	    12.410
   9.780        125.00	    12.247
   9.800        119.17	    11.958
   9.820        100.83	    11.000
   9.840        120.83	    12.042
   9.860        116.67	    11.832
   9.880        138.33	    12.884
   9.900        120.83	    12.042
   9.920         99.17	    10.909
   9.940        140.83	    13.000
   9.960        115.83	    11.790
   9.980        110.83	    11.533
  10.000        116.67	    11.832
  10.020        109.17	    11.446
  10.040        128.33	    12.410
  10.060         99.17	    10.909
  10.080        100.83	    11.000
  10.100         94.17	    10.630
  10.120        130.00	    12.490
  10.140        104.17	    11.180
  10.160        119.17	    11.958
  10.180        111.67	    11.576
  10.200        130.00	    12.490
  10.220        110.00	    11.489
  10.240        136.67	    12.806
  10.260        108.33	    11.402
  10.280        125.83	    12.288
  10.300        104.17	    11.180
  10.320        120.00	    12.000
  10.340        120.83	    12.042
  10.360        148.33	    13.342
  10.380        170.83	    14.318
  10.400        180.83	    14.731
  10.420        294.17	    18.788
  10.440        322.50	    19.672
  10.460        235.00	    16.793
  10.480        145.83	    13.229
  10.500        163.33	    14.000
  10.520        120.83	    12.042
  10.540         96.67	    10.770
  10.560        116.67	    11.832
  10.580        102.50	    11.091
  10.600        105.00	    11.225
  10.620         91.67	    10.488
  10.640        115.00	    11.747
  10.660         93.33	    10.583
  10.680         92.50	    10.536
  10.700        100.83	    11.000
  10.720        120.00	    12.000
  10.740         83.33	    10.000
  10.760        117.50	    11.874
  10.780         99.17	    10.909
  10.800         88.33	    10.296
  10.820         90.83	    10.440
  10.840        100.00	    10.954
  10.860        105.83	    11.269
  10.880        103.33	    11.136
  10.900        142.50	    13.077
  10.920        105.83	    11.269
  10.940        100.00	    10.954
  10.960        105.00	    11.225
  10.980        110.00	    11.489
  11.000        103.33	    11.136
  11.020        115.83	    11.790
  11.040        103.33	    11.136
  11.060        100.83	    11.000
  11.080        120.00	    12.000
  11.100        110.00	    11.489
  11.120        110.00	    11.489
  11.140        105.00	    11.225
  11.160         93.33	    10.583
  11.180        102.50	    11.091
  11.200        103.33	    11.136
  11.220         78.33	     9.695
  11.240        108.33	    11.402
  11.260        112.50	    11.619
  11.280        107.50	    11.358
  11.300        100.83	    11.000
  11.320        100.00	    10.954
  11.340        108.33	    11.402
  11.360         85.83	    10.149
  11.380        111.67	    11.576
  11.400         95.00	    10.677
  11.420        108.33	    11.402
  11.440        112.50	    11.619
  11.460         76.67	     9.592
  11.480         93.33	    10.583
  11.500         93.33	    10.583
  11.520        107.50	    11.358
  11.540        106.67	    11.314
  11.560        107.50	    11.358
  11.580        111.67	    11.576
  11.600        109.17	    11.446
  11.620        105.00	    11.225
  11.640        107.50	    11.358
  11.660        108.33	    11.402
  11.680        105.00	    11.225
  11.700        117.50	    11.874
  11.720         95.83	    10.724
  11.740        123.33	    12.166
  11.760        107.50	    11.358
  11.780        117.50	    11.874
  11.800        120.00	    12.000
  11.820        113.33	    11.662
  11.840        120.83	    12.042
  11.860        115.00	    11.747
  11.880        133.33	    12.649
  11.900        151.67	    13.491
  11.920        142.50	    13.077
  11.940        150.83	    13.454
  11.960        169.17	    14.248
  11.980        195.83	    15.330
  12.000        246.67	    17.205
  12.020        383.33	    21.448
  12.040        519.17	    24.960
  12.060        808.33	    31.145
  12.080        992.50	    34.511
  12.100       1033.33	    35.214
  12.120        810.83	    31.193
  12.140        524.17	    25.080
  12.160        292.50	    18.735
  12.180        265.83	    17.861
  12.200        301.67	    19.026
  12.220        311.67	    19.339
  12.240        402.50	    21.977
  12.260        392.50	    21.703
  12.280        385.83	    21.517
  12.300        330.83	    19.925
  12.320        334.17	    20.025
  12.340        372.50	    21.142
  12.360        418.33	    22.405
  12.380        456.67	    23.409
  12.400        437.50	    22.913
  12.420        383.33	    21.448
  12.440        247.50	    17.234
  12.460        155.00	    13.638
  12.480        121.67	    12.083
  12.500        114.17	    11.705
  12.520        105.83	    11.269
  12.540        121.67	    12.083
  12.560        123.33	    12.166
  12.580        109.17	    11.446
  12.600         99.17	    10.909
  12.620         99.17	    10.909
  12.640         92.50	    10.536
  12.660         86.67	    10.198
  12.680         97.50	    10.817
  12.700         94.17	    10.630
  12.720        106.67	    11.314
  12.740         99.17	    10.909
  12.760        103.33	    11.136
  12.780        103.33	    11.136
  12.800         87.50	    10.247
  12.820         96.67	    10.770
  12.840         89.17	    10.344
  12.860        100.83	    11.000
  12.880         81.67	     9.899
  12.900         81.67	     9.899
  12.920         79.17	     9.747
  12.940         77.50	     9.644
  12.960         89.17	    10.344
  12.980         95.83	    10.724
  13.000         75.00	     9.487
  13.020         96.67	    10.770
  13.040         82.50	     9.950
  13.060         89.17	    10.344
  13.080        102.50	    11.091
  13.100         80.00	     9.798
  13.120         91.67	    10.488
  13.140         84.17	    10.050
  13.160         96.67	    10.770
  13.180        100.83	    11.000
  13.200         98.33	    10.863
  13.220         98.33	    10.863
  13.240         99.17	    10.909
  13.260         89.17	    10.344
  13.280         85.00	    10.100
  13.300         90.83	    10.440
  13.320         90.00	    10.392
  13.340         98.33	    10.863
  13.360        105.83	    11.269
  13.380         97.50	    10.817
  13.400         94.17	    10.630
  13.420         73.33	     9.381
  13.440         81.67	     9.899
  13.460         92.50	    10.536
  13.480         88.33	    10.296
  13.500         87.50	    10.247
  13.520         95.00	    10.677
  13.540         78.33	     9.695
  13.560         95.00	    10.677
  13.580        101.67	    11.045
  13.600         94.17	    10.630
  13.620         79.17	     9.747
  13.640         99.17	    10.909
  13.660         75.00	     9.487
  13.680        103.33	    11.136
  13.700         99.17	    10.909
  13.720         92.50	    10.536
  13.740         97.50	    10.817
  13.760        107.50	    11.358
  13.780        103.33	    11.136
  13.800         87.50	    10.247
  13.820         91.67	    10.488
  13.840         77.50	     9.644
  13.860         75.00	     9.487
  13.880         88.33	    10.296
  13.900         78.33	     9.695
  13.920         87.50	    10.247
  13.940         85.00	    10.100
  13.960         81.67	     9.899
  13.980         95.00	    10.677
  14.000         70.00	     9.165
  14.020         65.00	     8.832
  14.040         70.00	     9.165
  14.060         75.00	     9.487
  14.080         75.83	     9.539
  14.100         80.00	     9.798
  14.120         83.33	    10.000
  14.140         65.83	     8.888
  14.160         64.17	     8.775
  14.180         65.00	     8.832
  14.200         79.17	     9.747
  14.220         97.50	    10.817
  14.240         64.17	     8.775
  14.260         80.00	     9.798
  14.280         80.00	     9.798
  14.300         86.67	    10.198
  14.320         84.17	    10.050
  14.340         71.67	     9.274
  14.360         65.83	     8.888
  14.380         85.00	    10.100
  14.400         80.00	     9.798
  14.420         77.50	     9.644
  14.440         67.50	     9.000
  14.460         76.67	     9.592
  14.480         64.17	     8.775
  14.500         78.33	     9.695
  14.520         78.33	     9.695
  14.540         76.67	     9.592
  14.560         73.33	     9.381
  14.580         60.00	     8.485
  14.600         70.83	     9.220
  14.620         72.50	     9.327
  14.640         72.50	     9.327
  14.660         75.00	     9.487
  14.680         80.83	     9.849
  14.700         71.67	     9.274
  14.720         71.67	     9.274
  14.740         80.83	     9.849
  14.760         69.17	     9.110
  14.780         67.50	     9.000
  14.800         60.00	     8.485
  14.820         65.83	     8.888
  14.840         69.17	     9.110
  14.860         77.50	     9.644
  14.880         77.50	     9.644
  14.900         75.83	     9.539
  14.920         73.33	     9.381
  14.940         67.50	     9.000
  14.960         76.67	     9.592
  14.980         83.33	    10.000
  15.000         82.50	     9.950
  15.020         77.50	     9.644
  15.040         59.17	     8.426
  15.060         83.33	    10.000
  15.080         71.67	     9.274
  15.100         73.33	     9.381
  15.120         73.33	     9.381
  15.140         65.00	     8.832
  15.160         74.17	     9.434
  15.180         60.00	     8.485
  15.200         70.00	     9.165
  15.220         57.50	     8.307
  15.240         67.50	     9.000
  15.260         69.17	     9.110
  15.280         66.67	     8.944
  15.300         62.50	     8.660
  15.320         88.33	    10.296
  15.340         73.33	     9.381
  15.360         65.83	     8.888
  15.380         74.17	     9.434
  15.400         90.00	    10.392
  15.420         73.33	     9.381
  15.440         74.17	     9.434
  15.460         58.33	     8.367
  15.480         62.50	     8.660
  15.500         80.00	     9.798
  15.520         63.33	     8.718
  15.540         63.33	     8.718
  15.560         73.33	     9.381
  15.580         60.00	     8.485
  15.600         69.17	     9.110
  15.620         84.17	    10.050
  15.640         61.67	     8.602
  15.660         78.33	     9.695
  15.680         65.83	     8.888
  15.700         60.83	     8.544
  15.720         70.83	     9.220
  15.740         83.33	    10.000
  15.760         57.50	     8.307
  15.780         60.00	     8.485
  15.800         52.50	     7.937
  15.820         80.00	     9.798
  15.840         62.50	     8.660
  15.860         70.83	     9.220
  15.880         54.17	     8.062
  15.900         70.83	     9.220
  15.920         64.17	     8.775
  15.940         71.67	     9.274
  15.960         77.50	     9.644
  15.980         73.33	     9.381
  16.000         56.67	     8.246
  16.020         61.67	     8.602
  16.040         66.67	     8.944
  16.060         75.00	     9.487
  16.080         71.67	     9.274
  16.100         80.00	     9.798
  16.120         68.33	     9.055
  16.140         49.17	     7.681
  16.160         84.17	    10.050
  16.180         61.67	     8.602
  16.200         53.33	     8.000
  16.220         65.83	     8.888
  16.240         55.83	     8.185
  16.260         62.50	     8.660
  16.280         79.17	     9.747
  16.300         60.00	     8.485
  16.320         73.33	     9.381
  16.340         79.17	     9.747
  16.360         67.50	     9.000
  16.380         65.83	     8.888
  16.400         72.50	     9.327
  16.420         68.33	     9.055
  16.440         65.00	     8.832
  16.460         70.00	     9.165
  16.480         67.50	     9.000
  16.500         55.00	     8.124
  16.520         70.83	     9.220
  16.540         69.17	     9.110
  16.560         69.17	     9.110
  16.580         67.50	     9.000
  16.600         55.00	     8.124
  16.620         65.83	     8.888
  16.640         79.17	     9.747
  16.660         66.67	     8.944
  16.680         60.00	     8.485
  16.700         67.50	     9.000
  16.720         78.33	     9.695
  16.740         72.50	     9.327
  16.760         67.50	     9.000
  16.780         54.17	     8.062
  16.800         72.50	     9.327
  16.820         64.17	     8.775
  16.840         57.50	     8.307
  16.860         55.83	     8.185
  16.880         62.50	     8.660
  16.900         56.67	     8.246
  16.920         53.33	     8.000
  16.940         70.00	     9.165
  16.960         70.83	     9.220
  16.980         73.33	     9.381
  17.000         65.83	     8.888
  17.020         56.67	     8.246
  17.040         64.17	     8.775
  17.060         55.00	     8.124
  17.080         65.00	     8.832
  17.100         59.17	     8.426
  17.120         61.67	     8.602
  17.140         65.00	     8.832
  17.160         64.17	     8.775
  17.180         68.33	     9.055
  17.200         75.00	     9.487
  17.220         79.17	     9.747
  17.240         74.17	     9.434
  17.260         77.50	     9.644
  17.280         73.33	     9.381
  17.300         60.00	     8.485
  17.320         65.00	     8.832
  17.340         70.00	     9.165
  17.360         71.67	     9.274
  17.380         75.83	     9.539
  17.400         75.83	     9.539
  17.420         69.17	     9.110
  17.440         85.00	    10.100
  17.460         71.67	     9.274
  17.480         75.00	     9.487
  17.500         80.83	     9.849
  17.520         74.17	     9.434
  17.540         69.17	     9.110
  17.560         84.17	    10.050
  17.580         89.17	    10.344
  17.600         95.00	    10.677
  17.620         90.00	    10.392
  17.640        126.67	    12.329
  17.660        185.00	    14.900
  17.680        183.33	    14.832
  17.700        267.50	    17.916
  17.720        265.83	    17.861
  17.740        245.83	    17.176
  17.760        174.17	    14.457
  17.780        150.00	    13.416
  17.800         98.33	    10.863
  17.820         78.33	     9.695
  17.840         73.33	     9.381
  17.860         87.50	    10.247
  17.880         81.67	     9.899
  17.900         75.00	     9.487
  17.920         75.83	     9.539
  17.940         77.50	     9.644
  17.960         71.67	     9.274
  17.980         80.83	     9.849
  18.000         70.00	     9.165
  18.020         66.67	     8.944
  18.040         81.67	     9.899
  18.060         75.00	     9.487
  18.080         75.00	     9.487
  18.100         70.00	     9.165
  18.120         77.50	     9.644
  18.140         69.17	     9.110
  18.160         70.00	     9.165
  18.180         64.17	     8.775
  18.200         65.83	     8.888
  18.220         63.33	     8.718
  18.240         70.00	     9.165
  18.260         68.33	     9.055
  18.280         85.00	    10.100
  18.300         81.67	     9.899
  18.320         80.00	     9.798
  18.340         75.83	     9.539
  18.360         94.17	    10.630
  18.380         93.33	    10.583
  18.400        112.50	    11.619
  18.420        140.83	    13.000
  18.440        172.50	    14.387
  18.460        187.50	    15.000
  18.480        188.33	    15.033
  18.500        193.33	    15.232
  18.520        150.83	    13.454
  18.540        160.83	    13.892
  18.560        126.67	    12.329
  18.580        118.33	    11.916
  18.600        135.83	    12.767
  18.620        140.00	    12.961
  18.640        160.00	    13.856
  18.660        210.83	    15.906
  18.680        223.33	    16.371
  18.700        206.67	    15.748
  18.720        152.50	    13.528
  18.740        142.50	    13.077
  18.760         99.17	    10.909
  18.780         87.50	    10.247
  18.800         73.33	     9.381
  18.820         78.33	     9.695
  18.840         80.83	     9.849
  18.860         88.33	    10.296
  18.880         93.33	    10.583
  18.900         90.83	    10.440
  18.920         80.83	     9.849
  18.940         76.67	     9.592
  18.960         70.83	     9.220
  18.980         87.50	    10.247
  19.000         70.83	     9.220
  19.020         74.17	     9.434
  19.040         66.67	     8.944
  19.060         78.33	     9.695
  19.080         79.17	     9.747
  19.100         82.50	     9.950
  19.120         75.83	     9.539
  19.140         67.50	     9.000
  19.160         83.33	    10.000
  19.180         75.00	     9.487
  19.200         75.00	     9.487
  19.220         68.33	     9.055
  19.240         79.17	     9.747
  19.260         78.33	     9.695
  19.280         75.00	     9.487
  19.300         70.83	     9.220
  19.320         81.67	     9.899
  19.340         75.83	     9.539
  19.360         76.67	     9.592
  19.380         75.00	     9.487
  19.400         77.50	     9.644
  19.420         65.00	     8.832
  19.440         71.67	     9.274
  19.460         80.83	     9.849
  19.480         89.17	    10.344
  19.500         72.50	     9.327
  19.520         69.17	     9.110
  19.540         80.83	     9.849
  19.560         80.83	     9.849
  19.580         92.50	    10.536
  19.600         68.33	     9.055
  19.620         72.50	     9.327
  19.640         93.33	    10.583
  19.660         91.67	    10.488
  19.680         85.00	    10.100
  19.700         85.83	    10.149
  19.720        101.67	    11.045
  19.740         94.17	    10.630
  19.760        102.50	    11.091
  19.780         98.33	    10.863
  19.800        103.33	    11.136
  19.820         73.33	     9.381
  19.840         84.17	    10.050
  19.860         75.83	     9.539
  19.880         70.83	     9.220
  19.900         73.33	     9.381
  19.920         72.50	     9.327
  19.940         88.33	    10.296
  19.960         69.17	     9.110
  19.980         54.17	     8.062
  20.000         69.17	     9.110
  20.020         79.17	     9.747
  20.040         65.83	     8.888
  20.060         79.17	     9.747
  20.080         57.50	     8.307
  20.100         87.50	    10.247
  20.120         55.00	     8.124
  20.140         60.83	     8.544
  20.160         52.50	     7.937
  20.180         72.50	     9.327
  20.200         74.17	     9.434
  20.220         63.33	     8.718
  20.240         69.17	     9.110
  20.260         64.17	     8.775
  20.280         67.50	     9.000
  20.300         61.67	     8.602
  20.320         72.50	     9.327
  20.340         61.67	     8.602
  20.360         70.83	     9.220
  20.380         69.17	     9.110
  20.400         56.67	     8.246
  20.420         71.67	     9.274
  20.440         78.33	     9.695
  20.460         74.17	     9.434
  20.480         70.83	     9.220
  20.500         72.50	     9.327
  20.520         70.83	     9.220
  20.540         79.17	     9.747
  20.560         91.67	    10.488
  20.580         82.50	     9.950
  20.600         95.83	    10.724
  20.620         90.83	    10.440
  20.640         88.33	    10.296
  20.660         88.33	    10.296
  20.680        134.17	    12.689
  20.700        182.50	    14.799
  20.720        285.83	    18.520
  20.740        410.83	    22.204
  20.760        475.83	    23.896
  20.780        372.50	    21.142
  20.800        260.00	    17.664
  20.820        246.67	    17.205
  20.840        151.67	    13.491
  20.860        131.67	    12.570
  20.880        105.83	    11.269
  20.900        100.83	    11.000
  20.920         90.00	    10.392
  20.940         89.17	    10.344
  20.960         90.83	    10.440
  20.980         90.83	    10.440
  21.000         88.33	    10.296
  21.020         95.83	    10.724
  21.040        130.83	    12.530
  21.060        120.83	    12.042
  21.080        105.83	    11.269
  21.100         94.17	    10.630
  21.120         85.00	    10.100
  21.140         67.50	     9.000
  21.160         65.83	     8.888
  21.180         70.83	     9.220
  21.200         65.00	     8.832
  21.220         72.50	     9.327
  21.240         58.33	     8.367
  21.260         78.33	     9.695
  21.280         73.33	     9.381
  21.300         49.17	     7.681
  21.320         76.67	     9.592
  21.340         65.83	     8.888
  21.360         60.83	     8.544
  21.380         67.50	     9.000
  21.400         61.67	     8.602
  21.420         61.67	     8.602
  21.440         66.67	     8.944
  21.460         68.33	     9.055
  21.480         59.17	     8.426
  21.500         76.67	     9.592
  21.520         72.50	     9.327
  21.540         67.50	     9.000
  21.560         53.33	     8.000
  21.580         53.33	     8.000
  21.600         59.17	     8.426
  21.620         61.67	     8.602
  21.640         58.33	     8.367
  21.660         66.67	     8.944
  21.680         69.17	     9.110
  21.700         66.67	     8.944
  21.720         49.17	     7.681
  21.740         59.17	     8.426
  21.760         64.17	     8.775
  21.780         65.83	     8.888
  21.800         66.67	     8.944
  21.820         71.67	     9.274
  21.840         83.33	    10.000
  21.860         93.33	    10.583
  21.880        101.67	    11.045
  21.900        127.50	    12.369
  21.920        145.00	    13.191
  21.940        213.33	    16.000
  21.960        195.83	    15.330
  21.980        164.17	    14.036
  22.000        165.83	    14.107
  22.020        147.50	    13.304
  22.040        143.33	    13.115
  22.060        107.50	    11.358
  22.080         92.50	    10.536
  22.100         91.67	    10.488
  22.120         79.17	     9.747
  22.140         60.00	     8.485
  22.160         91.67	    10.488
  22.180         67.50	     9.000
  22.200         80.00	     9.798
  22.220         81.67	     9.899
  22.240         67.50	     9.000
  22.260         61.67	     8.602
  22.280         74.17	     9.434
  22.300         75.00	     9.487
  22.320         71.67	     9.274
  22.340         79.17	     9.747
  22.360         80.83	     9.849
  22.380         80.83	     9.849
  22.400         63.33	     8.718
  22.420         61.67	     8.602
  22.440         65.00	     8.832
  22.460         66.67	     8.944
  22.480         46.67	     7.483
  22.500         55.83	     8.185
  22.520         62.50	     8.660
  22.540         80.00	     9.798
  22.560         61.67	     8.602
  22.580         60.00	     8.485
  22.600         63.33	     8.718
  22.620         57.50	     8.307
  22.640         57.50	     8.307
  22.660         78.33	     9.695
  22.680         95.83	    10.724
  22.700         93.33	    10.583
  22.720        107.50	    11.358
  22.740         97.50	    10.817
  22.760         85.00	    10.100
  22.780         89.17	    10.344
  22.800         82.50	     9.950
  22.820         80.83	     9.849
  22.840         93.33	    10.583
  22.860         95.83	    10.724
  22.880        103.33	    11.136
  22.900        102.50	    11.091
  22.920        107.50	    11.358
  22.940        114.17	    11.705
  22.960         85.00	    10.100
  22.980         76.67	     9.592
  23.000         71.67	     9.274
  23.020         83.33	    10.000
  23.040         76.67	     9.592
  23.060         56.67	     8.246
  23.080         65.83	     8.888
  23.100         62.50	     8.660
  23.120         53.33	     8.000
  23.140         60.83	     8.544
  23.160         64.17	     8.775
  23.180         65.00	     8.832
  23.200         65.83	     8.888
  23.220         65.83	     8.888
  23.240         76.67	     9.592
  23.260         69.17	     9.110
  23.280         61.67	     8.602
  23.300         68.33	     9.055
  23.320         84.17	    10.050
  23.340         76.67	     9.592
  23.360         81.67	     9.899
  23.380        116.67	    11.832
  23.400        121.67	    12.083
  23.420        151.67	    13.491
  23.440        160.00	    13.856
  23.460        132.50	    12.610
  23.480        126.67	    12.329
  23.500        114.17	    11.705
  23.520        113.33	    11.662
  23.540        102.50	    11.091
  23.560         85.00	    10.100
  23.580         88.33	    10.296
  23.600         85.83	    10.149
  23.620         73.33	     9.381
  23.640         60.83	     8.544
  23.660         95.00	    10.677
  23.680         85.00	    10.100
  23.700        105.00	    11.225
  23.720         71.67	     9.274
  23.740         87.50	    10.247
  23.760         75.00	     9.487
  23.780         84.17	    10.050
  23.800         89.17	    10.344
  23.820         74.17	     9.434
  23.840         72.50	     9.327
  23.860         75.00	     9.487
  23.880         88.33	    10.296
  23.900         97.50	    10.817
  23.920         90.83	    10.440
  23.940         86.67	    10.198
  23.960        102.50	    11.091
  23.980        100.00	    10.954
  24.000         97.50	    10.817
  24.020         97.50	    10.817
  24.040        105.00	    11.225
  24.060        101.67	    11.045
  24.080        110.83	    11.533
  24.100        105.00	    11.225
  24.120        102.50	    11.091
  24.140        135.83	    12.767
  24.160        150.83	    13.454
  24.180        157.50	    13.748
  24.200        147.50	    13.304
  24.220        157.50	    13.748
  24.240        143.33	    13.115
  24.260        149.17	    13.379
  24.280        112.50	    11.619
  24.300        112.50	    11.619
  24.320        115.00	    11.747
  24.340        114.17	    11.705
  24.360        145.00	    13.191
  24.380        150.00	    13.416
  24.400        198.33	    15.427
  24.420        350.83	    20.518
  24.440        463.33	    23.580
  24.460        583.33	    26.458
  24.480        599.17	    26.814
  24.500        666.67	    28.284
  24.520        676.67	    28.496
  24.540        653.33	    28.000
  24.560        485.83	    24.145
  24.580        438.33	    22.935
  24.600        382.50	    21.424
  24.620        280.00	    18.330
  24.640        235.83	    16.823
  24.660        222.50	    16.340
  24.680        215.00	    16.062
  24.700        225.83	    16.462
  24.720        235.83	    16.823
  24.740        230.83	    16.643
  24.760        215.83	    16.093
  24.780        235.83	    16.823
  24.800        197.50	    15.395
  24.820        180.00	    14.697
  24.840        185.83	    14.933
  24.860        159.17	    13.820
  24.880        166.67	    14.142
  24.900        143.33	    13.115
  24.920        155.00	    13.638
  24.940        176.67	    14.560
  24.960        215.83	    16.093
  24.980        217.50	    16.155
  25.000        257.50	    17.578
  25.020        310.00	    19.287
  25.040        300.83	    19.000
  25.060        277.50	    18.248
  25.080        245.00	    17.146
  25.100        230.00	    16.613
  25.120        169.17	    14.248
  25.140        137.50	    12.845
  25.160        131.67	    12.570
  25.180        124.17	    12.207
  25.200        115.83	    11.790
  25.220        131.67	    12.570
  25.240        150.00	    13.416
  25.260        192.50	    15.199
  25.280        171.67	    14.353
  25.300        173.33	    14.422
  25.320        174.17	    14.457
  25.340        144.17	    13.153
  25.360        144.17	    13.153
  25.380        172.50	    14.387
  25.400        154.17	    13.601
  25.420        163.33	    14.000
  25.440        145.00	    13.191
  25.460        134.17	    12.689
  25.480        137.50	    12.845
  25.500        172.50	    14.387
  25.520        181.67	    14.765
  25.540        199.17	    15.460
  25.560        255.00	    17.493
  25.580        250.00	    17.321
  25.600        170.00	    14.283
  25.620        157.50	    13.748
  25.640        154.17	    13.601
  25.660        112.50	    11.619
  25.680         77.50	     9.644
  25.700         90.00	    10.392
  25.720         99.17	    10.909
  25.740         72.50	     9.327
  25.760         80.83	     9.849
  25.780         77.50	     9.644
  25.800         90.83	    10.440
  25.820         83.33	    10.000
  25.840         69.17	     9.110
  25.860         91.67	    10.488
  25.880         80.83	     9.849
  25.900         76.67	     9.592
  25.920         94.17	    10.630
  25.940         89.17	    10.344
  25.960         81.67	     9.899
  25.980         76.67	     9.592
  26.000         65.83	     8.888
  26.020         55.83	     8.185
  26.040         74.17	     9.434
  26.060         82.50	     9.950
  26.080         88.33	    10.296
  26.100         79.17	     9.747
  26.120        100.00	    10.954
  26.140        105.83	    11.269
  26.160         81.67	     9.899
  26.180         83.33	    10.000
  26.200         90.00	    10.392
  26.220        102.50	    11.091
  26.240        115.83	    11.790
  26.260        125.00	    12.247
  26.280        117.50	    11.874
  26.300        155.83	    13.675
  26.320        174.17	    14.457
  26.340        182.50	    14.799
  26.360        170.83	    14.318
  26.380        211.67	    15.937
  26.400        206.67	    15.748
  26.420        236.67	    16.852
  26.440        290.00	    18.655
  26.460        463.33	    23.580
  26.480        739.17	    29.783
  26.500       1303.33	    39.547
  26.520       2176.67	    51.108
  26.540       2389.17	    53.544
  26.560       1760.00	    45.957
  26.580       1480.83	    42.154
  26.600       1325.00	    39.875
  26.620        989.17	    34.453
  26.640        547.50	    25.632
  26.660        381.67	    21.401
  26.680        368.33	    21.024
  26.700        445.83	    23.130
  26.720        496.67	    24.413
  26.740        572.50	    26.211
  26.760        611.67	    27.092
  26.780        560.00	    25.923
  26.800        480.83	    24.021
  26.820        459.17	    23.473
  26.840        359.17	    20.761
  26.860        267.50	    17.916
  26.880        210.83	    15.906
  26.900        145.83	    13.229
  26.920        120.83	    12.042
  26.940         99.17	    10.909
  26.960        125.00	    12.247
  26.980        110.00	    11.489
  27.000        115.00	    11.747
  27.020         88.33	    10.296
  27.040        103.33	    11.136
  27.060         92.50	    10.536
  27.080         85.00	    10.100
  27.100        103.33	    11.136
  27.120         88.33	    10.296
  27.140         86.67	    10.198
  27.160         89.17	    10.344
  27.180         83.33	    10.000
  27.200        106.67	    11.314
  27.220         96.67	    10.770
  27.240        105.00	    11.225
  27.260        100.00	    10.954
  27.280        113.33	    11.662
  27.300        124.17	    12.207
  27.320        119.17	    11.958
  27.340        175.00	    14.491
  27.360        203.33	    15.620
  27.380        329.17	    19.875
  27.400        448.33	    23.195
  27.420        483.33	    24.083
  27.440        420.00	    22.450
  27.460        350.83	    20.518
  27.480        334.17	    20.025
  27.500        284.17	    18.466
  27.520        173.33	    14.422
  27.540        158.33	    13.784
  27.560        139.17	    12.923
  27.580        171.67	    14.353
  27.600        245.83	    17.176
  27.620        299.17	    18.947
  27.640        279.17	    18.303
  27.660        257.50	    17.578
  27.680        242.50	    17.059
  27.700        273.33	    18.111
  27.720        220.00	    16.248
  27.740        185.83	    14.933
  27.760        221.67	    16.310
  27.780        309.17	    19.261
  27.800        319.17	    19.570
  27.820        339.17	    20.174
  27.840        319.17	    19.570
  27.860        294.17	    18.788
  27.880        267.50	    17.916
  27.900        225.00	    16.432
  27.920        161.67	    13.928
  27.940        147.50	    13.304
  27.960        120.83	    12.042
  27.980        105.00	    11.225
  28.000        115.83	    11.790
  28.020        116.67	    11.832
  28.040        119.17	    11.958
  28.060         95.00	    10.677
  28.080        113.33	    11.662
  28.100         97.50	    10.817
  28.120         85.83	    10.149
  28.140         91.67	    10.488
  28.160        103.33	    11.136
  28.180         99.17	    10.909
  28.200        100.83	    11.000
  28.220        111.67	    11.576
  28.240         91.67	    10.488
  28.260         84.17	    10.050
  28.280         85.00	    10.100
  28.300         75.83	     9.539
  28.320         61.67	     8.602
  28.340         69.17	     9.110
  28.360         66.67	     8.944
  28.380         85.83	    10.149
  28.400         88.33	    10.296
  28.420        105.83	    11.269
  28.440        120.83	    12.042
  28.460        113.33	    11.662
  28.480        135.83	    12.767
  28.500        151.67	    13.491
  28.520        155.00	    13.638
  28.540        135.00	    12.728
  28.560        125.00	    12.247
  28.580        127.50	    12.369
  28.600        135.00	    12.728
  28.620         94.17	    10.630
  28.640        101.67	    11.045
  28.660         97.50	    10.817
  28.680         85.83	    10.149
  28.700         75.83	     9.539
  28.720         65.83	     8.888
  28.740         55.83	     8.185
  28.760         60.00	     8.485
  28.780         56.67	     8.246
  28.800         52.50	     7.937
  28.820         62.50	     8.660
  28.840         55.83	     8.185
  28.860         55.00	     8.124
  28.880         47.50	     7.550
  28.900         50.00	     7.746
  28.920         56.67	     8.246
  28.940         59.17	     8.426
  28.960         54.17	     8.062
  28.980         60.00	     8.485
  29.000         50.00	     7.746
  29.020         53.33	     8.000
  29.040         54.17	     8.062
  29.060         55.83	     8.185
  29.080         65.83	     8.888
  29.100         68.33	     9.055
  29.120         62.50	     8.660
  29.140         54.17	     8.062
  29.160         69.17	     9.110
  29.180         60.00	     8.485
  29.200         52.50	     7.937
  29.220         51.67	     7.874
  29.240         51.67	     7.874
  29.260         46.67	     7.483
  29.280         42.50	     7.141
  29.300         51.67	     7.874
  29.320         65.83	     8.888
  29.340         56.67	     8.246
  29.360         53.33	     8.000
  29.380         51.67	     7.874
  29.400         52.50	     7.937
  29.420         51.67	     7.874
  29.440         46.67	     7.483
  29.460         57.50	     8.307
  29.480         73.33	     9.381
  29.500         60.00	     8.485
  29.520         54.17	     8.062
  29.540         71.67	     9.274
  29.560         85.00	    10.100
  29.580         75.00	     9.487
  29.600         75.00	     9.487
  29.620         90.83	    10.440
  29.640         85.00	    10.100
  29.660         80.83	     9.849
  29.680        100.83	    11.000
  29.700        104.17	    11.180
  29.720        137.50	    12.845
  29.740        131.67	    12.570
  29.760        121.67	    12.083
  29.780        108.33	    11.402
  29.800         97.50	    10.817
  29.820        109.17	    11.446
  29.840         95.83	    10.724
  29.860         78.33	     9.695
  29.880         92.50	    10.536
  29.900         87.50	    10.247
  29.920         77.50	     9.644
  29.940         70.83	     9.220
  29.960         84.17	    10.050
  29.980         90.83	    10.440
  30.000         89.17	    10.344
  30.020         82.50	     9.950
  30.040         82.50	     9.950
  30.060         78.33	     9.695
  30.080         84.17	    10.050
  30.100         90.00	    10.392
  30.120         91.67	    10.488
  30.140        100.83	    11.000
  30.160         78.33	     9.695
  30.180         76.67	     9.592
  30.200         84.17	    10.050
  30.220         73.33	     9.381
  30.240         70.83	     9.220
  30.260         92.50	    10.536
  30.280         91.67	    10.488
  30.300         71.67	     9.274
  30.320        100.83	    11.000
  30.340        119.17	    11.958
  30.360        115.83	    11.790
  30.380        110.00	    11.489
  30.400        101.67	    11.045
  30.420        116.67	    11.832
  30.440         95.83	    10.724
  30.460         89.17	    10.344
  30.480         75.83	     9.539
  30.500         61.67	     8.602
  30.520         53.33	     8.000
  30.540         60.00	     8.485
  30.560         66.67	     8.944
  30.580         60.83	     8.544
  30.600         55.00	     8.124
  30.620         64.17	     8.775
  30.640         55.00	     8.124
  30.660         46.67	     7.483
  30.680         65.00	     8.832
  30.700         65.00	     8.832
  30.720         70.83	     9.220
  30.740         77.50	     9.644
  30.760         85.00	    10.100
  30.780         79.17	     9.747
  30.800         85.83	    10.149
  30.820         91.67	    10.488
  30.840         97.50	    10.817
  30.860         81.67	     9.899
  30.880         82.50	     9.950
  30.900         85.00	    10.100
  30.920         75.00	     9.487
  30.940         71.67	     9.274
  30.960         84.17	    10.050
  30.980         65.00	     8.832
  31.000         71.67	     9.274
  31.020         87.50	    10.247
  31.040         98.33	    10.863
  31.060        135.83	    12.767
  31.080        148.33	    13.342
  31.100        140.83	    13.000
  31.120        120.83	    12.042
  31.140        143.33	    13.115
  31.160        132.50	    12.610
  31.180         95.83	    10.724
  31.200        100.00	    10.954
  31.220         85.83	    10.149
  31.240         88.33	    10.296
  31.260         81.67	     9.899
  31.280         83.33	    10.000
  31.300         75.00	     9.487
  31.320         80.83	     9.849
  31.340        117.50	    11.874
  31.360        117.50	    11.874
  31.380         83.33	    10.000
  31.400         80.00	     9.798
  31.420        108.33	    11.402
  31.440         92.50	    10.536
  31.460        116.67	    11.832
  31.480        102.50	    11.091
  31.500         88.33	    10.296
  31.520         70.00	     9.165
  31.540         74.17	     9.434
  31.560         76.67	     9.592
  31.580         59.17	     8.426
  31.600         48.33	     7.616
  31.620         51.67	     7.874
  31.640         49.17	     7.681
  31.660         56.67	     8.246
  31.680         63.33	     8.718
  31.700         46.67	     7.483
  31.720         55.00	     8.124
  31.740         57.50	     8.307
  31.760         65.00	     8.832
  31.780         71.67	     9.274
  31.800         60.83	     8.544
  31.820         70.00	     9.165
  31.840         76.67	     9.592
  31.860        107.50	    11.358
  31.880        105.83	    11.269
  31.900        126.67	    12.329
  31.920         81.67	     9.899
  31.940        117.50	    11.874
  31.960        114.17	    11.705
  31.980        109.17	    11.446
  32.000        118.33	    11.916
  32.020         80.83	     9.849
  32.040         90.00	    10.392
  32.060         80.00	     9.798
  32.080         89.17	    10.344
  32.100         70.83	     9.220
  32.120         56.67	     8.246
  32.140         72.50	     9.327
  32.160         64.17	     8.775
  32.180         70.00	     9.165
  32.200         62.50	     8.660
  32.220         69.17	     9.110
  32.240         59.17	     8.426
  32.260         55.83	     8.185
  32.280         47.50	     7.550
  32.300         46.67	     7.483
  32.320         48.33	     7.616
  32.340         42.50	     7.141
  32.360         43.33	     7.211
  32.380         40.00	     6.928
  32.400         50.83	     7.810
  32.420         43.33	     7.211
  32.440         46.67	     7.483
  32.460         45.00	     7.348
  32.480         32.50	     6.245
  32.500         30.83	     6.083
  32.520         35.83	     6.557
  32.540         51.67	     7.874
  32.560         41.67	     7.071
  32.580         56.67	     8.246
  32.600         51.67	     7.874
  32.620         50.00	     7.746
  32.640         41.67	     7.071
  32.660         51.67	     7.874
  32.680         51.67	     7.874
  32.700         55.00	     8.124
  32.720         54.17	     8.062
  32.740         47.50	     7.550
  32.760         45.83	     7.416
  32.780         51.67	     7.874
  32.800         51.67	     7.874
  32.820         45.83	     7.416
  32.840         44.17	     7.280
  32.860         51.67	     7.874
  32.880         56.67	     8.246
  32.900         67.50	     9.000
  32.920         70.83	     9.220
  32.940         70.83	     9.220
  32.960         79.17	     9.747
  32.980         58.33	     8.367
  33.000         61.67	     8.602
  33.020         63.33	     8.718
  33.040         63.33	     8.718
  33.060         53.33	     8.000
  33.080         53.33	     8.000
  33.100         40.00	     6.928
  33.120         51.67	     7.874
  33.140         47.50	     7.550
  33.160         59.17	     8.426
  33.180         45.83	     7.416
  33.200         63.33	     8.718
  33.220         52.50	     7.937
  33.240         46.67	     7.483
  33.260         53.33	     8.000
  33.280         48.33	     7.616
  33.300         48.33	     7.616
  33.320         54.17	     8.062
  33.340         49.17	     7.681
  33.360         60.00	     8.485
  33.380         51.67	     7.874
  33.400         46.67	     7.483
  33.420         50.83	     7.810
  33.440         43.33	     7.211
  33.460         49.17	     7.681
  33.480         38.33	     6.782
  33.500         49.17	     7.681
  33.520         47.50	     7.550
  33.540         45.00	     7.348
  33.560         62.50	     8.660
  33.580         40.00	     6.928
  33.600         47.50	     7.550
  33.620         53.33	     8.000
  33.640         51.67	     7.874
  33.660         51.67	     7.874
  33.680         40.00	     6.928
  33.700         48.33	     7.616
  33.720         50.00	     7.746
  33.740         41.67	     7.071
  33.760         55.00	     8.124
  33.780         67.50	     9.000
  33.800         47.50	     7.550
  33.820         71.67	     9.274
  33.840         78.33	     9.695
  33.860         50.00	     7.746
  33.880         70.83	     9.220
  33.900         57.50	     8.307
  33.920         54.17	     8.062
  33.940         70.00	     9.165
  33.960         65.00	     8.832
  33.980         55.00	     8.124
  34.000         65.83	     8.888
  34.020         62.50	     8.660
  34.040         65.83	     8.888
  34.060         65.00	     8.832
  34.080         58.33	     8.367
  34.100         65.00	     8.832
  34.120         55.00	     8.124
  34.140         58.33	     8.367
  34.160         51.67	     7.874
  34.180         75.00	     9.487
  34.200         62.50	     8.660
  34.220         56.67	     8.246
  34.240         69.17	     9.110
  34.260         70.83	     9.220
  34.280         83.33	    10.000
  34.300         86.67	    10.198
  34.320         83.33	    10.000
  34.340         80.83	     9.849
  34.360         90.83	    10.440
  34.380         87.50	    10.247
  34.400        100.00	    10.954
  34.420        114.17	    11.705
  34.440        169.17	    14.248
  34.460        226.67	    16.492
  34.480        180.00	    14.697
  34.500        122.50	    12.124
  34.520        109.17	    11.446
  34.540        145.00	    13.191
  34.560        124.17	    12.207
  34.580        115.00	    11.747
  34.600         94.17	    10.630
  34.620         83.33	    10.000
  34.640         87.50	    10.247
  34.660         78.33	     9.695
  34.680         85.00	    10.100
  34.700         78.33	     9.695
  34.720         87.50	    10.247
  34.740        114.17	    11.705
  34.760         93.33	    10.583
  34.780        109.17	    11.446
  34.800        107.50	    11.358
  34.820        125.00	    12.247
  34.840        132.50	    12.610
  34.860        153.33	    13.565
  34.880        177.50	    14.595
  34.900        152.50	    13.528
  34.920        140.00	    12.961
  34.940        123.33	    12.166
  34.960        120.00	    12.000
  34.980        141.67	    13.038
  35.000        124.17	    12.207
  35.020        100.83	    11.000
  35.040        111.67	    11.576
  35.060         95.83	    10.724
  35.080         83.33	    10.000
  35.100         83.33	    10.000
  35.120         91.67	    10.488
  35.140         84.17	    10.050
  35.160         90.83	    10.440
  35.180        109.17	    11.446
  35.200         81.67	     9.899
  35.220        110.83	    11.533
  35.240         79.17	     9.747
  35.260         86.67	    10.198
  35.280         94.17	    10.630
  35.300        115.00	    11.747
  35.320        128.33	    12.410
  35.340        144.17	    13.153
  35.360        151.67	    13.491
  35.380        178.33	    14.629
  35.400        202.50	    15.588
  35.420        221.67	    16.310
  35.440        228.33	    16.553
  35.460        214.17	    16.031
  35.480        214.17	    16.031
  35.500        210.83	    15.906
  35.520        194.17	    15.264
  35.540        188.33	    15.033
  35.560        160.83	    13.892
  35.580        150.83	    13.454
  35.600        137.50	    12.845
  35.620         98.33	    10.863
  35.640         89.17	    10.344
  35.660         86.67	    10.198
  35.680         71.67	     9.274
  35.700         78.33	     9.695
  35.720         76.67	     9.592
  35.740         73.33	     9.381
  35.760         81.67	     9.899
  35.780         75.00	     9.487
  35.800         66.67	     8.944
  35.820         74.17	     9.434
  35.840         70.00	     9.165
  35.860         65.83	     8.888
  35.880         62.50	     8.660
  35.900         65.00	     8.832
  35.920         92.50	    10.536
  35.940         87.50	    10.247
  35.960         81.67	     9.899
  35.980         87.50	    10.247
  36.000         72.50	     9.327
  36.020         80.00	     9.798
  36.040         81.67	     9.899
  36.060         88.33	    10.296
  36.080         78.33	     9.695
  36.100         70.83	     9.220
  36.120         72.50	     9.327
  36.140         67.50	     9.000
  36.160         48.33	     7.616
  36.180         60.83	     8.544
  36.200         47.50	     7.550
  36.220         50.83	     7.810
  36.240         58.33	     8.367
  36.260         62.50	     8.660
  36.280         61.67	     8.602
  36.300         79.17	     9.747
  36.320         89.17	    10.344
  36.340        100.83	    11.000
  36.360        114.17	    11.705
  36.380        148.33	    13.342
  36.400        179.17	    14.663
  36.420        295.00	    18.815
  36.440        325.00	    19.748
  36.460        216.67	    16.125
  36.480        145.00	    13.191
  36.500        169.17	    14.248
  36.520        229.17	    16.583
  36.540        206.67	    15.748
  36.560        150.83	    13.454
  36.580        118.33	    11.916
  36.600        100.83	    11.000
  36.620         95.83	    10.724
  36.640         90.00	    10.392
  36.660         99.17	    10.909
  36.680         77.50	     9.644
  36.700         85.83	    10.149
  36.720         68.33	     9.055
  36.740         70.83	     9.220
  36.760         57.50	     8.307
  36.780         58.33	     8.367
  36.800         58.33	     8.367
  36.820         62.50	     8.660
  36.840         65.83	     8.888
  36.860         65.83	     8.888
  36.880         75.83	     9.539
  36.900         45.00	     7.348
  36.920         69.17	     9.110
  36.940         70.83	     9.220
  36.960         64.17	     8.775
  36.980         61.67	     8.602
  37.000         66.67	     8.944
  37.020         74.17	     9.434
  37.040         71.67	     9.274
  37.060         69.17	     9.110
  37.080         81.67	     9.899
  37.100         70.00	     9.165
  37.120         59.17	     8.426
  37.140         71.67	     9.274
  37.160         87.50	    10.247
  37.180         74.17	     9.434
  37.200         72.50	     9.327
  37.220         80.83	     9.849
  37.240         76.67	     9.592
  37.260         71.67	     9.274
  37.280         77.50	     9.644
  37.300         72.50	     9.327
  37.320         67.50	     9.000
  37.340         80.00	     9.798
  37.360         80.83	     9.849
  37.380         71.67	     9.274
  37.400         84.17	    10.050
  37.420         88.33	    10.296
  37.440         73.33	     9.381
  37.460         78.33	     9.695
  37.480         79.17	     9.747
  37.500         85.83	    10.149
  37.520         73.33	     9.381
  37.540         80.00	     9.798
  37.560         95.00	    10.677
  37.580         72.50	     9.327
  37.600         70.00	     9.165
  37.620         65.83	     8.888
  37.640         70.00	     9.165
  37.660         70.00	     9.165
  37.680         80.83	     9.849
  37.700         61.67	     8.602
  37.720         55.83	     8.185
  37.740         60.83	     8.544
  37.760         62.50	     8.660
  37.780         39.17	     6.856
  37.800         35.00	     6.481
  37.820         40.00	     6.928
  37.840         52.50	     7.937
  37.860         38.33	     6.782
  37.880         46.67	     7.483
  37.900         36.67	     6.633
  37.920         39.17	     6.856
  37.940         45.83	     7.416
  37.960         43.33	     7.211
  37.980         41.67	     7.071
  38.000         49.17	     7.681
  38.020         37.50	     6.708
  38.040         35.00	     6.481
  38.060         51.67	     7.874
  38.080         55.83	     8.185
  38.100         37.50	     6.708
  38.120         39.17	     6.856
  38.140         40.83	     7.000
  38.160         33.33	     6.325
  38.180         40.00	     6.928
  38.200         46.67	     7.483
  38.220         33.33	     6.325
  38.240         41.67	     7.071
  38.260         51.67	     7.874
  38.280         34.17	     6.403
  38.300         45.83	     7.416
  38.320         37.50	     6.708
  38.340         58.33	     8.367
  38.360         38.33	     6.782
  38.380         50.00	     7.746
  38.400         59.17	     8.426
  38.420         63.33	     8.718
  38.440         59.17	     8.426
  38.460         58.33	     8.367
  38.480         52.50	     7.937
  38.500         55.00	     8.124
  38.520         49.17	     7.681
  38.540         54.17	     8.062
  38.560         50.00	     7.746
  38.580         35.83	     6.557
  38.600         46.67	     7.483
  38.620         40.83	     7.000
  38.640         54.17	     8.062
  38.660         54.17	     8.062
  38.680         58.33	     8.367
  38.700         79.17	     9.747
  38.720         51.67	     7.874
  38.740         60.00	     8.485
  38.760         51.67	     7.874
  38.780         52.50	     7.937
  38.800         50.83	     7.810
  38.820         49.17	     7.681
  38.840         62.50	     8.660
  38.860         56.67	     8.246
  38.880         51.67	     7.874
  38.900         47.50	     7.550
  38.920         45.83	     7.416
  38.940         47.50	     7.550
  38.960         38.33	     6.782
  38.980         40.00	     6.928
  39.000         48.33	     7.616
  39.020         55.00	     8.124
  39.040         46.67	     7.483
  39.060         43.33	     7.211
  39.080         41.67	     7.071
  39.100         51.67	     7.874
  39.120         50.83	     7.810
  39.140         49.17	     7.681
  39.160         64.17	     8.775
  39.180         42.50	     7.141
  39.200         46.67	     7.483
  39.220         55.83	     8.185
  39.240         51.67	     7.874
  39.260         56.67	     8.246
  39.280         47.50	     7.550
  39.300         69.17	     9.110
  39.320         95.83	    10.724
  39.340        138.33	    12.884
  39.360        151.67	    13.491
  39.380        130.83	    12.530
  39.400        115.83	    11.790
  39.420         85.83	    10.149
  39.440        117.50	    11.874
  39.460        116.67	    11.832
  39.480        130.00	    12.490
  39.500         92.50	    10.536
  39.520         73.33	     9.381
  39.540         67.50	     9.000
  39.560         65.83	     8.888
  39.580         65.83	     8.888
  39.600         63.33	     8.718
  39.620         61.67	     8.602
  39.640         54.17	     8.062
  39.660         49.17	     7.681
  39.680         75.00	     9.487
  39.700         59.17	     8.426
  39.720         57.50	     8.307
  39.740         75.83	     9.539
  39.760         60.00	     8.485
  39.780         49.17	     7.681
  39.800         59.17	     8.426
  39.820         63.33	     8.718
  39.840         63.33	     8.718
  39.860         60.00	     8.485
  39.880         61.67	     8.602
  39.900         60.00	     8.485
  39.920         61.67	     8.602
  39.940         64.17	     8.775
  39.960         45.83	     7.416
  39.980         40.83	     7.000
  40.000         43.33	     7.211
  40.020         55.00	     8.124
  40.040         41.67	     7.071
  40.060         60.00	     8.485
  40.080         55.00	     8.124
  40.100         51.67	     7.874
  40.120         59.17	     8.426
  40.140         71.67	     9.274
  40.160         94.17	    10.630
  40.180        129.17	    12.450
  40.200        120.00	    12.000
  40.220         93.33	    10.583
  40.240         86.67	    10.198
  40.260         73.33	     9.381
  40.280         91.67	    10.488
  40.300         80.83	     9.849
  40.320         79.17	     9.747
  40.340         64.17	     8.775
  40.360         68.33	     9.055
  40.380         60.00	     8.485
  40.400         60.00	     8.485
  40.420         50.00	     7.746
  40.440         51.67	     7.874
  40.460         55.00	     8.124
  40.480         48.33	     7.616
  40.500         39.17	     6.856
  40.520         55.00	     8.124
  40.540         51.67	     7.874
  40.560         51.67	     7.874
  40.580         49.17	     7.681
  40.600         40.00	     6.928
  40.620         47.50	     7.550
  40.640         42.50	     7.141
  40.660         70.00	     9.165
  40.680         42.50	     7.141
  40.700         52.50	     7.937
  40.720         55.00	     8.124
  40.740         62.50	     8.660
  40.760         55.83	     8.185
  40.780         60.00	     8.485
  40.800         66.67	     8.944
  40.820         48.33	     7.616
  40.840         53.33	     8.000
  40.860         63.33	     8.718
  40.880         59.17	     8.426
  40.900         54.17	     8.062
  40.920         53.33	     8.000
  40.940         47.50	     7.550
  40.960         62.50	     8.660
  40.980         40.00	     6.928
  41.000         62.50	     8.660
  41.020         50.00	     7.746
  41.040         50.00	     7.746
  41.060         53.33	     8.000
  41.080         60.00	     8.485
  41.100         46.67	     7.483
  41.120         48.33	     7.616
  41.140         52.50	     7.937
  41.160         58.33	     8.367
  41.180         56.67	     8.246
  41.200         59.17	     8.426
  41.220         59.17	     8.426
  41.240         46.67	     7.483
  41.260         50.83	     7.810
  41.280         62.50	     8.660
  41.300         52.50	     7.937
  41.320         46.67	     7.483
  41.340         60.00	     8.485
  41.360         56.67	     8.246
  41.380         45.83	     7.416
  41.400         55.83	     8.185
  41.420         60.00	     8.485
  41.440         63.33	     8.718
  41.460         68.33	     9.055
  41.480         85.83	    10.149
  41.500        108.33	    11.402
  41.520        115.00	    11.747
  41.540        106.67	    11.314
  41.560        110.00	    11.489
  41.580        135.83	    12.767
  41.600        130.83	    12.530
  41.620        130.83	    12.530
  41.640        129.17	    12.450
  41.660        115.83	    11.790
  41.680        110.83	    11.533
  41.700        114.17	    11.705
  41.720        121.67	    12.083
  41.740        133.33	    12.649
  41.760        124.17	    12.207
  41.780        124.17	    12.207
  41.800        100.00	    10.954
  41.820        100.00	    10.954
  41.840        110.00	    11.489
  41.860        130.83	    12.530
  41.880        142.50	    13.077
  41.900        122.50	    12.124
  41.920        103.33	    11.136
  41.940         95.83	    10.724
  41.960         82.50	     9.950
  41.980         89.17	    10.344
  42.000         97.50	    10.817
  42.020         87.50	    10.247
  42.040         69.17	     9.110
  42.060         50.83	     7.810
  42.080         75.00	     9.487
  42.100         58.33	     8.367
  42.120         58.33	     8.367
  42.140         69.17	     9.110
  42.160         50.83	     7.810
  42.180         65.83	     8.888
  42.200         75.00	     9.487
  42.220         85.83	    10.149
  42.240         81.67	     9.899
  42.260         86.67	    10.198
  42.280         93.33	    10.583
  42.300        122.50	    12.124
  42.320        139.17	    12.923
  42.340        179.17	    14.663
  42.360        160.00	    13.856
  42.380        136.67	    12.806
  42.400        113.33	    11.662
  42.420        100.00	    10.954
  42.440        108.33	    11.402
  42.460        129.17	    12.450
  42.480        113.33	    11.662
  42.500         90.00	    10.392
  42.520         70.00	     9.165
  42.540         62.50	     8.660
  42.560         70.83	     9.220
  42.580         56.67	     8.246
  42.600         54.17	     8.062
  42.620         73.33	     9.381
  42.640         62.50	     8.660
  42.660         50.83	     7.810
  42.680         64.17	     8.775
  42.700         50.83	     7.810
  42.720         59.17	     8.426
  42.740         67.50	     9.000
  42.760         65.83	     8.888
  42.780         50.83	     7.810
  42.800         61.67	     8.602
  42.820         59.17	     8.426
  42.840         64.17	     8.775
  42.860         60.00	     8.485
  42.880         63.33	     8.718
  42.900         63.33	     8.718
  42.920         75.00	     9.487
  42.940         62.50	     8.660
  42.960         67.50	     9.000
  42.980         57.50	     8.307
  43.000         55.83	     8.185
  43.020         65.83	     8.888
  43.040         64.17	     8.775
  43.060         70.83	     9.220
  43.080         48.33	     7.616
  43.100         55.83	     8.185
  43.120         65.00	     8.832
  43.140         49.17	     7.681
  43.160         69.17	     9.110
  43.180         57.50	     8.307
  43.200         47.50	     7.550
  43.220         65.00	     8.832
  43.240         68.33	     9.055
  43.260         76.67	     9.592
  43.280         73.33	     9.381
  43.300         79.17	     9.747
  43.320         70.00	     9.165
  43.340         64.17	     8.775
  43.360         64.17	     8.775
  43.380         76.67	     9.592
  43.400         80.00	     9.798
  43.420         90.83	    10.440
  43.440         92.50	    10.536
  43.460         91.67	    10.488
  43.480         99.17	    10.909
  43.500        101.67	    11.045
  43.520        112.50	    11.619
  43.540        113.33	    11.662
  43.560        105.00	    11.225
  43.580        114.17	    11.705
  43.600         92.50	    10.536
  43.620         95.00	    10.677
  43.640         96.67	    10.770
  43.660         97.50	    10.817
  43.680        115.83	    11.790
  43.700         87.50	    10.247
  43.720        116.67	    11.832
  43.740        115.00	    11.747
  43.760         90.83	    10.440
  43.780         98.33	    10.863
  43.800        103.33	    11.136
  43.820        113.33	    11.662
  43.840         80.00	     9.798
  43.860         93.33	    10.583
  43.880        107.50	    11.358
  43.900         95.83	    10.724
  43.920        112.50	    11.619
  43.940        114.17	    11.705
  43.960        118.33	    11.916
  43.980        123.33	    12.166
  44.000        122.50	    12.124
  44.020        125.83	    12.288
  44.040        118.33	    11.916
  44.060        150.83	    13.454
  44.080        145.83	    13.229
  44.100        175.83	    14.526
  44.120        177.50	    14.595
  44.140        186.67	    14.967
  44.160        192.50	    15.199
  44.180        185.00	    14.900
  44.200        205.00	    15.684
  44.220        191.67	    15.166
  44.240        249.17	    17.292
  44.260        238.33	    16.912
  44.280        277.50	    18.248
  44.300        268.33	    17.944
  44.320        313.33	    19.391
  44.340        315.00	    19.442
  44.360        300.83	    19.000
  44.380        331.67	    19.950
  44.400        318.33	    19.545
  44.420        321.67	    19.647
  44.440        310.00	    19.287
  44.460        320.83	    19.621
  44.480        325.00	    19.748
  44.500        271.67	    18.055
  44.520        292.50	    18.735
  44.540        263.33	    17.776
  44.560        245.00	    17.146
  44.580        255.83	    17.521
  44.600        212.50	    15.969
  44.620        220.83	    16.279
  44.640        193.33	    15.232
  44.660        204.17	    15.652
  44.680        184.17	    14.866
  44.700        170.00	    14.283
  44.720        166.67	    14.142
  44.740        153.33	    13.565
  44.760        156.67	    13.711
  44.780        155.00	    13.638
  44.800        144.17	    13.153
  44.820        145.00	    13.191
  44.840        134.17	    12.689
  44.860        143.33	    13.115
  44.880        126.67	    12.329
  44.900        153.33	    13.565
  44.920        144.17	    13.153
  44.940        120.00	    12.000
  44.960        145.00	    13.191
  44.980        112.50	    11.619
  45.000        123.33	    12.166
  45.020        100.00	    10.954
  45.040        126.67	    12.329
  45.060        104.17	    11.180
  45.080         97.50	    10.817
  45.100        111.67	    11.576
  45.120         94.17	    10.630
  45.140        105.83	    11.269
  45.160         81.67	     9.899
  45.180         75.00	     9.487
  45.200         85.83	    10.149
  45.220         82.50	     9.950
  45.240         90.00	    10.392
  45.260         92.50	    10.536
  45.280         88.33	    10.296
  45.300        101.67	    11.045
  45.320         97.50	    10.817
  45.340         99.17	    10.909
  45.360        141.67	    13.038
  45.380        154.17	    13.601
  45.400        170.00	    14.283
  45.420        205.83	    15.716
  45.440        180.83	    14.731
  45.460        178.33	    14.629
  45.480        155.00	    13.638
  45.500        168.33	    14.213
  45.520        163.33	    14.000
  45.540        185.83	    14.933
  45.560        145.00	    13.191
  45.580        120.00	    12.000
  45.600        129.17	    12.450
  45.620        104.17	    11.180
  45.640        134.17	    12.689
  45.660        141.67	    13.038
  45.680        122.50	    12.124
  45.700        137.50	    12.845
  45.720        109.17	    11.446
  45.740         97.50	    10.817
  45.760         89.17	    10.344
  45.780         85.83	    10.149
  45.800         73.33	     9.381
  45.820        101.67	    11.045
  45.840         75.00	     9.487
  45.860         75.00	     9.487
  45.880         65.83	     8.888
  45.900         64.17	     8.775
  45.920         65.00	     8.832
  45.940         52.50	     7.937
  45.960         50.83	     7.810
  45.980         40.00	     6.928
  46.000         41.67	     7.071
  46.020         52.50	     7.937
  46.040         51.67	     7.874
  46.060         50.83	     7.810
  46.080         47.50	     7.550
  46.100         40.00	     6.928
  46.120         47.50	     7.550
  46.140         44.17	     7.280
  46.160         31.67	     6.164
  46.180         59.17	     8.426
  46.200         50.00	     7.746
  46.220         40.83	     7.000
  46.240         35.00	     6.481
  46.260         47.50	     7.550
  46.280         34.17	     6.403
  46.300         35.00	     6.481
  46.320         52.50	     7.937
  46.340         45.83	     7.416
  46.360         39.17	     6.856
  46.380         45.00	     7.348
  46.400         38.33	     6.782
  46.420         43.33	     7.211
  46.440         47.50	     7.550
  46.460         30.83	     6.083
  46.480         38.33	     6.782
  46.500         45.83	     7.416
  46.520         46.67	     7.483
  46.540         39.17	     6.856
  46.560         39.17	     6.856
  46.580         39.17	     6.856
  46.600         33.33	     6.325
  46.620         40.83	     7.000
  46.640         60.00	     8.485
  46.660         46.67	     7.483
  46.680         45.00	     7.348
  46.700         49.17	     7.681
  46.720         41.67	     7.071
  46.740         40.83	     7.000
  46.760         43.33	     7.211
  46.780         50.83	     7.810
  46.800         30.83	     6.083
  46.820         59.17	     8.426
  46.840         51.67	     7.874
  46.860         59.17	     8.426
  46.880         34.17	     6.403
  46.900         47.50	     7.550
  46.920         41.67	     7.071
  46.940         60.83	     8.544
  46.960         58.33	     8.367
  46.980         57.50	     8.307
  47.000         68.33	     9.055
  47.020         67.50	     9.000
  47.040         54.17	     8.062
  47.060         66.67	     8.944
  47.080         54.17	     8.062
  47.100         55.83	     8.185
  47.120         45.00	     7.348
  47.140         43.33	     7.211
  47.160         40.00	     6.928
  47.180         51.67	     7.874
  47.200         39.17	     6.856
  47.220         39.17	     6.856
  47.240         41.67	     7.071
  47.260         41.67	     7.071
  47.280         38.33	     6.782
  47.300         34.17	     6.403
  47.320         30.00	     6.000
  47.340         37.50	     6.708
  47.360         35.83	     6.557
  47.380         35.00	     6.481
  47.400         35.00	     6.481
  47.420         33.33	     6.325
  47.440         30.83	     6.083
  47.460         30.00	     6.000
  47.480         30.00	     6.000
  47.500         38.33	     6.782
  47.520         37.50	     6.708
  47.540         33.33	     6.325
  47.560         26.67	     5.657
  47.580         39.17	     6.856
  47.600         35.00	     6.481
  47.620         35.00	     6.481
  47.640         36.67	     6.633
  47.660         50.00	     7.746
  47.680         46.67	     7.483
  47.700         40.83	     7.000
  47.720         37.50	     6.708
  47.740         41.67	     7.071
  47.760         41.67	     7.071
  47.780         35.00	     6.481
  47.800         49.17	     7.681
  47.820         50.00	     7.746
  47.840         44.17	     7.280
  47.860         45.83	     7.416
  47.880         37.50	     6.708
  47.900         45.00	     7.348
  47.920         50.83	     7.810
  47.940         42.50	     7.141
  47.960         54.17	     8.062
  47.980         45.83	     7.416
  48.000         52.50	     7.937
  48.020         50.00	     7.746
  48.040         55.00	     8.124
  48.060         62.50	     8.660
  48.080         55.83	     8.185
  48.100         56.67	     8.246
  48.120         42.50	     7.141
  48.140         37.50	     6.708
  48.160         63.33	     8.718
  48.180         74.17	     9.434
  48.200         56.67	     8.246
  48.220         59.17	     8.426
  48.240         63.33	     8.718
  48.260         52.50	     7.937
  48.280         44.17	     7.280
  48.300         55.83	     8.185
  48.320         41.67	     7.071
  48.340         44.17	     7.280
  48.360         42.50	     7.141
  48.380         42.50	     7.141
  48.400         48.33	     7.616
  48.420         46.67	     7.483
  48.440         44.17	     7.280
  48.460         50.83	     7.810
  48.480         57.50	     8.307
  48.500         40.00	     6.928
  48.520         31.67	     6.164
  48.540         50.83	     7.810
  48.560         60.00	     8.485
  48.580         50.83	     7.810
  48.600         56.67	     8.246
  48.620         45.83	     7.416
  48.640         55.00	     8.124
  48.660         47.50	     7.550
  48.680         48.33	     7.616
  48.700         50.83	     7.810
  48.720         55.00	     8.124
  48.740         44.17	     7.280
  48.760         66.67	     8.944
  48.780        100.00	    10.954
  48.800        118.33	    11.916
  48.820        180.00	    14.697
  48.840        335.00	    20.050
  48.860        411.67	    22.226
  48.880        336.67	    20.100
  48.900        179.17	    14.663
  48.920         96.67	    10.770
  48.940         95.83	    10.724
  48.960        145.83	    13.229
  48.980        219.17	    16.217
  49.000        223.33	    16.371
  49.020        140.00	    12.961
  49.040         79.17	     9.747
  49.060         58.33	     8.367
  49.080         70.83	     9.220
  49.100         66.67	     8.944
  49.120         65.00	     8.832
  49.140         47.50	     7.550
  49.160         55.00	     8.124
  49.180         63.33	     8.718
  49.200         53.33	     8.000
  49.220         51.67	     7.874
  49.240         57.50	     8.307
  49.260         41.67	     7.071
  49.280         48.33	     7.616
  49.300         41.67	     7.071
  49.320         57.50	     8.307
  49.340         45.00	     7.348
  49.360         41.67	     7.071
  49.380         52.50	     7.937
  49.400         54.17	     8.062
  49.420         38.33	     6.782
  49.440         55.83	     8.185
  49.460         40.00	     6.928
  49.480         45.00	     7.348
  49.500         53.33	     8.000
  49.520         53.33	     8.000
  49.540         55.00	     8.124
  49.560         48.33	     7.616
  49.580         50.83	     7.810
  49.600         54.17	     8.062
  49.620         69.17	     9.110
  49.640         62.50	     8.660
  49.660         61.67	     8.602
  49.680         53.33	     8.000
  49.700         63.33	     8.718
  49.720         65.83	     8.888
  49.740         71.67	     9.274
  49.760         82.50	     9.950
  49.780         77.50	     9.644
  49.800         75.83	     9.539
  49.820         77.50	     9.644
  49.840         75.83	     9.539
  49.860         66.67	     8.944
  49.880         62.50	     8.660
  49.900         67.50	     9.000
  49.920         90.83	    10.440
  49.940        114.17	    11.705
  49.960        117.50	    11.874
  49.980        142.50	    13.077
  50.000        220.00	    16.248
  50.020        305.00	    19.131
  50.040        283.33	    18.439
  50.060        235.00	    16.793
  50.080        125.83	    12.288
  50.100        116.67	    11.832
  50.120        145.00	    13.191
  50.140        200.83	    15.524
  50.160        200.00	    15.492
  50.180        172.50	    14.387
  50.200        163.33	    14.000
  50.220         82.50	     9.950
  50.240         97.50	    10.817
  50.260         84.17	    10.050
  50.280         79.17	     9.747
  50.300         68.33	     9.055
  50.320         78.33	     9.695
  50.340         80.83	     9.849
  50.360         63.33	     8.718
  50.380         81.67	     9.899
  50.400         87.50	    10.247
  50.420        100.00	    10.954
  50.440         80.83	     9.849
  50.460         93.33	    10.583
  50.480        110.83	    11.533
  50.500        130.00	    12.490
  50.520         82.50	     9.950
  50.540        100.00	    10.954
  50.560         93.33	    10.583
  50.580         87.50	    10.247
  50.600         84.17	    10.050
  50.620         92.50	    10.536
  50.640         91.67	    10.488
  50.660         81.67	     9.899
  50.680         63.33	     8.718
  50.700         65.00	     8.832
  50.720         56.67	     8.246
  50.740         46.67	     7.483
  50.760         40.83	     7.000
  50.780         49.17	     7.681
  50.800         46.67	     7.483
  50.820         55.83	     8.185
  50.840         36.67	     6.633
  50.860         53.33	     8.000
  50.880         42.50	     7.141
  50.900         49.17	     7.681
  50.920         36.67	     6.633
  50.940         44.17	     7.280
  50.960         61.67	     8.602
  50.980         51.67	     7.874
  51.000         63.33	     8.718
  51.020         83.33	    10.000
  51.040         68.33	     9.055
  51.060         70.00	     9.165
  51.080         64.17	     8.775
  51.100         86.67	    10.198
  51.120         69.17	     9.110
  51.140         85.83	    10.149
  51.160         69.17	     9.110
  51.180         67.50	     9.000
  51.200         59.17	     8.426
  51.220         60.83	     8.544
  51.240         55.83	     8.185
  51.260         51.67	     7.874
  51.280         62.50	     8.660
  51.300         47.50	     7.550
  51.320         53.33	     8.000
  51.340         49.17	     7.681
  51.360         42.50	     7.141
  51.380         45.83	     7.416
  51.400         38.33	     6.782
  51.420         39.17	     6.856
  51.440         40.83	     7.000
  51.460         37.50	     6.708
  51.480         31.67	     6.164
  51.500         42.50	     7.141
  51.520         51.67	     7.874
  51.540         45.83	     7.416
  51.560         35.83	     6.557
  51.580         36.67	     6.633
  51.600         30.00	     6.000
  51.620         24.17	     5.385
  51.640         51.67	     7.874
  51.660         32.50	     6.245
  51.680         48.33	     7.616
  51.700         30.83	     6.083
  51.720         40.83	     7.000
  51.740         43.33	     7.211
  51.760         41.67	     7.071
  51.780         36.67	     6.633
  51.800         47.50	     7.550
  51.820         35.00	     6.481
  51.840         44.17	     7.280
  51.860         36.67	     6.633
  51.880         59.17	     8.426
  51.900         45.00	     7.348
  51.920         47.50	     7.550
  51.940         51.67	     7.874
  51.960         54.17	     8.062
  51.980         70.83	     9.220
  52.000         67.50	     9.000
  52.020         46.67	     7.483
  52.040         70.83	     9.220
  52.060         75.00	     9.487
  52.080         58.33	     8.367
  52.100         61.67	     8.602
  52.120         65.00	     8.832
  52.140         61.67	     8.602
  52.160         57.50	     8.307
  52.180         63.33	     8.718
  52.200         55.83	     8.185
  52.220         47.50	     7.550
  52.240         58.33	     8.367
  52.260         46.67	     7.483
  52.280         54.17	     8.062
  52.300         65.83	     8.888
  52.320         53.33	     8.000
  52.340         63.33	     8.718
  52.360         68.33	     9.055
  52.380         65.83	     8.888
  52.400         76.67	     9.592
  52.420         75.83	     9.539
  52.440         61.67	     8.602
  52.460         65.83	     8.888
  52.480         56.67	     8.246
  52.500         63.33	     8.718
  52.520         71.67	     9.274
  52.540         61.67	     8.602
  52.560         65.00	     8.832
  52.580         71.67	     9.274
  52.600         50.00	     7.746
  52.620         59.17	     8.426
  52.640         52.50	     7.937
  52.660         45.83	     7.416
  52.680         53.33	     8.000
  52.700         55.83	     8.185
  52.720         47.50	     7.550
  52.740         45.83	     7.416
  52.760         61.67	     8.602
  52.780         42.50	     7.141
  52.800         41.67	     7.071
  52.820         38.33	     6.782
  52.840         41.67	     7.071
  52.860         40.00	     6.928
  52.880         45.00	     7.348
  52.900         48.33	     7.616
  52.920         39.17	     6.856
  52.940         40.00	     6.928
  52.960         48.33	     7.616
  52.980         47.50	     7.550
  53.000         42.50	     7.141
  53.020         41.67	     7.071
  53.040         47.50	     7.550
  53.060         45.00	     7.348
  53.080         45.00	     7.348
  53.100         47.50	     7.550
  53.120         40.00	     6.928
  53.140         44.17	     7.280
  53.160         46.67	     7.483
  53.180         48.33	     7.616
  53.200         64.17	     8.775
  53.220         41.67	     7.071
  53.240         42.50	     7.141
  53.260         54.17	     8.062
  53.280         41.67	     7.071
  53.300         54.17	     8.062
  53.320         49.17	     7.681
  53.340         36.67	     6.633
  53.360         48.33	     7.616
  53.380         48.33	     7.616
  53.400         41.67	     7.071
  53.420         42.50	     7.141
  53.440         40.00	     6.928
  53.460         42.50	     7.141
  53.480         43.33	     7.211
  53.500         40.00	     6.928
  53.520         30.83	     6.083
  53.540         27.50	     5.745
  53.560         38.33	     6.782
  53.580         37.50	     6.708
  53.600         38.33	     6.782
  53.620         32.50	     6.245
  53.640         40.00	     6.928
  53.660         46.67	     7.483
  53.680         40.00	     6.928
  53.700         31.67	     6.164
  53.720         40.00	     6.928
  53.740         45.83	     7.416
  53.760         44.17	     7.280
  53.780         40.83	     7.000
  53.800         42.50	     7.141
  53.820         30.83	     6.083
  53.840         40.00	     6.928
  53.860         38.33	     6.782
  53.880         37.50	     6.708
  53.900         35.00	     6.481
  53.920         42.50	     7.141
  53.940         48.33	     7.616
  53.960         48.33	     7.616
  53.980         38.33	     6.782
  54.000         28.33	     5.831
  54.020         45.83	     7.416
  54.040         41.67	     7.071
  54.060         38.33	     6.782
  54.080         60.00	     8.485
  54.100         52.50	     7.937
  54.120         30.00	     6.000
  54.140         46.67	     7.483
  54.160         32.50	     6.245
  54.180         51.67	     7.874
  54.200         46.67	     7.483
  54.220         59.17	     8.426
  54.240         38.33	     6.782
  54.260         47.50	     7.550
  54.280         47.50	     7.550
  54.300         48.33	     7.616
  54.320         46.67	     7.483
  54.340         41.67	     7.071
  54.360         50.00	     7.746
  54.380         57.50	     8.307
  54.400         53.33	     8.000
  54.420         54.17	     8.062
  54.440         50.83	     7.810
  54.460         46.67	     7.483
  54.480         54.17	     8.062
  54.500         44.17	     7.280
  54.520         45.83	     7.416
  54.540         51.67	     7.874
  54.560         53.33	     8.000
  54.580         53.33	     8.000
  54.600         58.33	     8.367
  54.620         48.33	     7.616
  54.640         58.33	     8.367
  54.660         54.17	     8.062
  54.680         75.83	     9.539
  54.700        100.83	    11.000
  54.720        112.50	    11.619
  54.740        156.67	    13.711
  54.760        152.50	    13.528
  54.780        147.50	    13.304
  54.800         85.83	    10.149
  54.820         80.00	     9.798
  54.840         71.67	     9.274
  54.860         80.83	     9.849
  54.880         95.00	    10.677
  54.900        101.67	    11.045
  54.920         92.50	    10.536
  54.940         98.33	    10.863
  54.960         80.83	     9.849
  54.980         69.17	     9.110
  55.000         62.50	     8.660
  55.020         50.00	     7.746
  55.040         70.83	     9.220
  55.060         72.50	     9.327
  55.080         60.00	     8.485
  55.100         60.00	     8.485
  55.120         65.00	     8.832
  55.140         65.00	     8.832
  55.160         71.67	     9.274
  55.180         77.50	     9.644
  55.200         86.67	    10.198
  55.220         96.67	    10.770
  55.240         87.50	    10.247
  55.260         76.67	     9.592
  55.280         65.00	     8.832
  55.300         53.33	     8.000
  55.320         53.33	     8.000
  55.340         55.00	     8.124
  55.360         60.00	     8.485
  55.380         77.50	     9.644
  55.400         67.50	     9.000
  55.420         50.83	     7.810
  55.440         49.17	     7.681
  55.460         54.17	     8.062
  55.480         55.83	     8.185
  55.500         52.50	     7.937
  55.520         53.33	     8.000
  55.540         50.83	     7.810
  55.560         65.83	     8.888
  55.580         55.00	     8.124
  55.600         63.33	     8.718
  55.620         61.67	     8.602
  55.640         60.00	     8.485
  55.660         72.50	     9.327
  55.680         56.67	     8.246
  55.700         45.83	     7.416
  55.720         60.00	     8.485
  55.740         55.83	     8.185
  55.760         59.17	     8.426
  55.780         59.17	     8.426
  55.800         58.33	     8.367
  55.820         50.83	     7.810
  55.840         51.67	     7.874
  55.860         50.00	     7.746
  55.880         45.00	     7.348
  55.900         56.67	     8.246
  55.920         54.17	     8.062
  55.940         37.50	     6.708
  55.960         55.00	     8.124
  55.980         47.50	     7.550
  56.000         44.17	     7.280
  56.020         38.33	     6.782
  56.040         42.50	     7.141
  56.060         38.33	     6.782
  56.080         40.83	     7.000
  56.100         48.33	     7.616
  56.120         43.33	     7.211
  56.140         52.50	     7.937
  56.160         63.33	     8.718
  56.180         66.67	     8.944
  56.200         61.67	     8.602
  56.220         54.17	     8.062
  56.240         43.33	     7.211
  56.260         44.17	     7.280
  56.280         48.33	     7.616
  56.300         46.67	     7.483
  56.320         45.83	     7.416
  56.340         49.17	     7.681
  56.360         67.50	     9.000
  56.380         56.67	     8.246
  56.400         70.00	     9.165
  56.420         82.50	     9.950
  56.440        124.17	    12.207
  56.460        213.33	    16.000
  56.480        200.83	    15.524
  56.500        139.17	    12.923
  56.520         73.33	     9.381
  56.540         68.33	     9.055
  56.560         70.00	     9.165
  56.580         76.67	     9.592
  56.600        110.00	    11.489
  56.620        124.17	    12.207
  56.640         96.67	    10.770
  56.660         80.83	     9.849
  56.680         59.17	     8.426
  56.700         62.50	     8.660
  56.720         60.00	     8.485
  56.740         72.50	     9.327
  56.760         73.33	     9.381
  56.780         60.83	     8.544
  56.800         55.83	     8.185
  56.820         51.67	     7.874
  56.840         47.50	     7.550
  56.860         46.67	     7.483
  56.880         58.33	     8.367
  56.900         55.83	     8.185
  56.920         75.00	     9.487
  56.940         50.83	     7.810
  56.960         45.83	     7.416
  56.980         51.67	     7.874
  57.000         52.50	     7.937
  57.020         36.67	     6.633
  57.040         36.67	     6.633
  57.060         46.67	     7.483
  57.080         41.67	     7.071
  57.100         38.33	     6.782
  57.120         40.83	     7.000
  57.140         39.17	     6.856
  57.160         42.50	     7.141
  57.180         40.83	     7.000
  57.200         38.33	     6.782
  57.220         33.33	     6.325
  57.240         31.67	     6.164
  57.260         38.33	     6.782
  57.280         39.17	     6.856
  57.300         48.33	     7.616
  57.320         35.83	     6.557
  57.340         38.33	     6.782
  57.360         44.17	     7.280
  57.380         33.33	     6.325
  57.400         33.33	     6.325
  57.420         36.67	     6.633
  57.440         46.67	     7.483
  57.460         39.17	     6.856
  57.480         28.33	     5.831
  57.500         41.67	     7.071
  57.520         36.67	     6.633
  57.540         48.33	     7.616
  57.560         30.83	     6.083
  57.580         40.00	     6.928
  57.600         32.50	     6.245
  57.620         48.33	     7.616
  57.640         46.67	     7.483
  57.660         35.00	     6.481
  57.680         42.50	     7.141
  57.700         38.33	     6.782
  57.720         47.50	     7.550
  57.740         44.17	     7.280
  57.760         36.67	     6.633
  57.780         38.33	     6.782
  57.800         29.17	     5.916
  57.820         25.00	     5.477
  57.840         29.17	     5.916
  57.860         54.17	     8.062
  57.880         42.50	     7.141
  57.900         47.50	     7.550
  57.920         39.17	     6.856
  57.940         57.50	     8.307
  57.960         47.50	     7.550
  57.980         43.33	     7.211
  58.000         51.67	     7.874
  58.020         53.33	     8.000
  58.040         34.17	     6.403
  58.060         40.83	     7.000
  58.080         43.33	     7.211
  58.100         42.50	     7.141
  58.120         44.17	     7.280
  58.140         45.00	     7.348
  58.160         42.50	     7.141
  58.180         35.00	     6.481
  58.200         36.67	     6.633
  58.220         41.67	     7.071
  58.240         41.67	     7.071
  58.260         48.33	     7.616
  58.280         52.50	     7.937
  58.300         44.17	     7.280
  58.320         54.17	     8.062
  58.340         50.00	     7.746
  58.360         64.17	     8.775
  58.380         58.33	     8.367
  58.400         55.83	     8.185
  58.420         67.50	     9.000
  58.440         71.67	     9.274
  58.460         68.33	     9.055
  58.480         66.67	     8.944
  58.500         59.17	     8.426
  58.520         60.00	     8.485
  58.540         59.17	     8.426
  58.560         85.00	    10.100
  58.580         59.17	     8.426
  58.600         53.33	     8.000
  58.620         70.83	     9.220
  58.640         68.33	     9.055
  58.660         59.17	     8.426
  58.680         55.83	     8.185
  58.700         40.83	     7.000
  58.720         78.33	     9.695
  58.740         45.00	     7.348
  58.760         51.67	     7.874
  58.780         57.50	     8.307
  58.800         58.33	     8.367
  58.820         63.33	     8.718
  58.840         40.83	     7.000
  58.860         50.00	     7.746
  58.880         60.83	     8.544
  58.900         55.83	     8.185
  58.920         71.67	     9.274
  58.940         61.67	     8.602
  58.960         50.00	     7.746
  58.980         65.00	     8.832
  59.000         71.67	     9.274
  59.020         79.17	     9.747
  59.040         91.67	    10.488
  59.060         90.00	    10.392
  59.080         71.67	     9.274
  59.100         75.00	     9.487
  59.120         75.83	     9.539
  59.140         70.00	     9.165
  59.160         62.50	     8.660
  59.180         58.33	     8.367
  59.200         60.83	     8.544
  59.220         65.83	     8.888
  59.240         70.83	     9.220
  59.260         58.33	     8.367
  59.280         56.67	     8.246
  59.300         50.00	     7.746
  59.320         44.17	     7.280
  59.340         50.00	     7.746
  59.360         44.17	     7.280
  59.380         38.33	     6.782
  59.400         65.83	     8.888
  59.420         55.00	     8.124
  59.440         59.17	     8.426
  59.460         45.83	     7.416
  59.480         40.83	     7.000
  59.500         62.50	     8.660
  59.520         62.50	     8.660
  59.540         51.67	     7.874
  59.560         45.83	     7.416
  59.580         58.33	     8.367
  59.600         45.83	     7.416
  59.620         42.50	     7.141
  59.640         49.17	     7.681
  59.660         62.50	     8.660
  59.680         51.67	     7.874
  59.700         60.83	     8.544
  59.720         73.33	     9.381
  59.740         75.83	     9.539
  59.760         87.50	    10.247
  59.780        108.33	    11.402
  59.800        139.17	    12.923
  59.820        184.17	    14.866
  59.840        255.83	    17.521
  59.860        265.00	    17.833
  59.880        226.67	    16.492
  59.900        186.67	    14.967
  59.920        131.67	    12.570
  59.940        120.00	    12.000
  59.960        123.33	    12.166
  59.980        135.83	    12.767
  60.000        157.50	    13.748
  60.020        167.50	    14.177
  60.040        152.50	    13.528
  60.060        139.17	    12.923
  60.080        130.00	    12.490
  60.100        120.00	    12.000
  60.120         82.50	     9.950
  60.140         80.00	     9.798
  60.160         85.00	    10.100
  60.180         74.17	     9.434
  60.200         69.17	     9.110
  60.220         68.33	     9.055
  60.240         71.67	     9.274
  60.260         78.33	     9.695
  60.280         67.50	     9.000
  60.300         63.33	     8.718
  60.320         62.50	     8.660
  60.340         65.83	     8.888
  60.360         66.67	     8.944
  60.380         77.50	     9.644
  60.400         69.17	     9.110
  60.420         65.83	     8.888
  60.440         64.17	     8.775
  60.460         75.00	     9.487
  60.480         70.00	     9.165
  60.500         62.50	     8.660
  60.520         76.67	     9.592
  60.540         74.17	     9.434
  60.560         56.67	     8.246
  60.580         55.83	     8.185
  60.600         65.83	     8.888
  60.620         56.67	     8.246
  60.640         85.00	    10.100
  60.660         60.00	     8.485
  60.680         75.00	     9.487
  60.700         79.17	     9.747
  60.720         72.50	     9.327
  60.740         61.67	     8.602
  60.760         65.83	     8.888
  60.780         74.17	     9.434
  60.800         70.00	     9.165
  60.820         61.67	     8.602
  60.840         70.83	     9.220
  60.860         80.83	     9.849
  60.880         67.50	     9.000
  60.900         75.83	     9.539
  60.920         55.00	     8.124
  60.940         53.33	     8.000
  60.960         65.83	     8.888
  60.980         63.33	     8.718
  61.000         50.00	     7.746
  61.020         68.33	     9.055
  61.040         73.33	     9.381
  61.060         65.00	     8.832
  61.080         60.83	     8.544
  61.100         55.83	     8.185
  61.120         48.33	     7.616
  61.140         45.83	     7.416
  61.160         57.50	     8.307
  61.180         59.17	     8.426
  61.200         58.33	     8.367
  61.220         54.17	     8.062
  61.240         65.00	     8.832
  61.260         51.67	     7.874
  61.280         63.33	     8.718
  61.300         73.33	     9.381
  61.320         59.17	     8.426
  61.340         78.33	     9.695
  61.360         83.33	    10.000
  61.380         74.17	     9.434
  61.400         74.17	     9.434
  61.420         76.67	     9.592
  61.440         76.67	     9.592
  61.460         80.00	     9.798
  61.480         68.33	     9.055
  61.500         70.00	     9.165
  61.520         70.00	     9.165
  61.540         84.17	    10.050
  61.560         85.00	    10.100
  61.580         71.67	     9.274
  61.600         70.83	     9.220
  61.620         59.17	     8.426
  61.640         64.17	     8.775
  61.660         60.83	     8.544
  61.680         55.83	     8.185
  61.700         48.33	     7.616
  61.720         60.83	     8.544
  61.740         53.33	     8.000
  61.760         59.17	     8.426
  61.780         66.67	     8.944
  61.800         60.00	     8.485
  61.820         47.50	     7.550
  61.840         49.17	     7.681
  61.860         63.33	     8.718
  61.880         63.33	     8.718
  61.900         55.00	     8.124
  61.920         84.17	    10.050
  61.940         73.33	     9.381
  61.960         63.33	     8.718
  61.980         57.50	     8.307
  62.000         60.83	     8.544
  62.020         50.00	     7.746
  62.040         63.33	     8.718
  62.060         62.50	     8.660
  62.080         58.33	     8.367
  62.100         56.67	     8.246
  62.120         53.33	     8.000
  62.140         45.00	     7.348
  62.160         44.17	     7.280
  62.180         45.00	     7.348
  62.200         35.00	     6.481
  62.220         40.83	     7.000
  62.240         40.00	     6.928
  62.260         42.50	     7.141
  62.280         45.83	     7.416
  62.300         50.00	     7.746
  62.320         42.50	     7.141
  62.340         42.50	     7.141
  62.360         52.50	     7.937
  62.380         45.83	     7.416
  62.400         40.83	     7.000
  62.420         41.67	     7.071
  62.440         51.67	     7.874
  62.460         43.33	     7.211
  62.480         42.50	     7.141
  62.500         46.67	     7.483
  62.520         45.00	     7.348
  62.540         45.00	     7.348
  62.560         59.17	     8.426
  62.580         54.17	     8.062
  62.600         50.83	     7.810
  62.620         44.17	     7.280
  62.640         55.00	     8.124
  62.660         41.67	     7.071
  62.680         55.00	     8.124
  62.700         44.17	     7.280
  62.720         60.83	     8.544
  62.740         49.17	     7.681
  62.760         63.33	     8.718
  62.780         50.00	     7.746
  62.800         48.33	     7.616
  62.820         52.50	     7.937
  62.840         55.83	     8.185
  62.860         35.00	     6.481
  62.880         43.33	     7.211
  62.900         53.33	     8.000
  62.920         44.17	     7.280
  62.940         46.67	     7.483
  62.960         49.17	     7.681
  62.980         42.50	     7.141
  63.000         39.17	     6.856
  63.020         51.67	     7.874
  63.040         43.33	     7.211
  63.060         40.83	     7.000
  63.080         43.33	     7.211
  63.100         62.50	     8.660
  63.120         42.50	     7.141
  63.140         42.50	     7.141
  63.160         49.17	     7.681
  63.180         48.33	     7.616
  63.200         48.33	     7.616
  63.220         46.67	     7.483
  63.240         47.50	     7.550
  63.260         43.33	     7.211
  63.280         50.83	     7.810
  63.300         53.33	     8.000
  63.320         59.17	     8.426
  63.340         62.50	     8.660
  63.360         57.50	     8.307
  63.380         60.83	     8.544
  63.400         43.33	     7.211
  63.420         51.67	     7.874
  63.440         45.83	     7.416
  63.460         54.17	     8.062
  63.480         50.00	     7.746
  63.500         44.17	     7.280
  63.520         60.83	     8.544
  63.540         51.67	     7.874
  63.560         50.00	     7.746
  63.580         50.00	     7.746
  63.600         49.17	     7.681
  63.620         58.33	     8.367
  63.640         46.67	     7.483
  63.660         50.83	     7.810
  63.680         45.00	     7.348
  63.700         48.33	     7.616
  63.720         60.00	     8.485
  63.740         49.17	     7.681
  63.760         50.00	     7.746
  63.780         42.50	     7.141
  63.800         42.50	     7.141
  63.820         50.83	     7.810
  63.840         54.17	     8.062
  63.860         65.00	     8.832
  63.880         63.33	     8.718
  63.900         80.83	     9.849
  63.920         75.83	     9.539
  63.940         78.33	     9.695
  63.960         59.17	     8.426
  63.980         65.00	     8.832
  64.000         56.67	     8.246
  64.020         40.83	     7.000
  64.040         59.17	     8.426
  64.060         55.83	     8.185
  64.080         75.83	     9.539
  64.100         63.33	     8.718
  64.120         50.83	     7.810
  64.140         52.50	     7.937
  64.160         63.33	     8.718
  64.180         52.50	     7.937
  64.200         66.67	     8.944
  64.220         58.33	     8.367
  64.240         69.17	     9.110
  64.260         60.83	     8.544
  64.280         47.50	     7.550
  64.300         55.00	     8.124
  64.320         57.50	     8.307
  64.340         53.33	     8.000
  64.360         54.17	     8.062
  64.380         51.67	     7.874
  64.400         45.00	     7.348
  64.420         66.67	     8.944
  64.440         40.83	     7.000
  64.460         55.00	     8.124
  64.480         43.33	     7.211
  64.500         61.67	     8.602
  64.520         50.83	     7.810
  64.540         48.33	     7.616
  64.560         45.83	     7.416
  64.580         49.17	     7.681
  64.600         56.67	     8.246
  64.620         52.50	     7.937
  64.640         56.67	     8.246
  64.660         67.50	     9.000
  64.680         59.17	     8.426
  64.700         45.00	     7.348
  64.720         52.50	     7.937
  64.740         60.83	     8.544
  64.760         62.50	     8.660
  64.780         63.33	     8.718
  64.800         77.50	     9.644
  64.820         69.17	     9.110
  64.840         60.00	     8.485
  64.860         54.17	     8.062
  64.880         63.33	     8.718
  64.900         47.50	     7.550
  64.920         53.33	     8.000
  64.940         50.00	     7.746
  64.960         51.67	     7.874
  64.980         50.00	     7.746
  65.000         60.83	     8.544
