
Filename:
	C:\Program Files\Thermo Electron\WinXRD\Datafiles\F_HERMAN\GEO\G76_RT.raw

File Created:
	February 21, 2020 - 12:11 AM

Specimen Id:
	G76_RT

Specimen Name:
	

Specimen Description:
	

Comment:
Scan Type: 2Theta Scan
Start Angle: 3 deg.
Stop Angle: 65 deg.
Num Points: 3101
Step Size: 0.02 deg.
Scan Rate: 1.000000
Scan Mode: Continuous
Wavelength: 1.540562
\Kalpha1: 1.540562	\Kalpha2: 1.544390	\Kbeta: 1.392218

Optics:
		Detector:
			 Type: Fixed Slits
		Tube: 
			 Type: Fixed Slits


Datas:
 Pos [deg]       Rate [CPS]      ESD [-]

Range 1 ---> Iteration 1
   3.000        454.17	    23.345
   3.020        425.83	    22.605
   3.040        413.33	    22.271
   3.060        445.83	    23.130
   3.080        411.67	    22.226
   3.100        453.33	    23.324
   3.120        450.00	    23.238
   3.140        375.00	    21.213
   3.160        390.00	    21.633
   3.180        427.50	    22.650
   3.200        427.50	    22.650
   3.220        439.17	    22.956
   3.240        392.50	    21.703
   3.260        373.33	    21.166
   3.280        415.83	    22.338
   3.300        417.50	    22.383
   3.320        395.00	    21.772
   3.340        420.83	    22.472
   3.360        387.50	    21.564
   3.380        400.83	    21.932
   3.400        382.50	    21.424
   3.420        376.67	    21.260
   3.440        388.33	    21.587
   3.460        348.33	    20.445
   3.480        362.50	    20.857
   3.500        350.83	    20.518
   3.520        358.33	    20.736
   3.540        345.00	    20.347
   3.560        366.67	    20.976
   3.580        381.67	    21.401
   3.600        339.17	    20.174
   3.620        380.00	    21.354
   3.640        362.50	    20.857
   3.660        324.17	    19.723
   3.680        340.00	    20.199
   3.700        349.17	    20.469
   3.720        360.00	    20.785
   3.740        325.83	    19.774
   3.760        320.83	    19.621
   3.780        345.83	    20.372
   3.800        315.83	    19.468
   3.820        360.83	    20.809
   3.840        336.67	    20.100
   3.860        335.83	    20.075
   3.880        317.50	    19.519
   3.900        321.67	    19.647
   3.920        323.33	    19.698
   3.940        335.00	    20.050
   3.960        312.50	    19.365
   3.980        322.50	    19.672
   4.000        322.50	    19.672
   4.020        327.50	    19.824
   4.040        290.83	    18.682
   4.060        299.17	    18.947
   4.080        293.33	    18.762
   4.100        317.50	    19.519
   4.120        310.83	    19.313
   4.140        324.17	    19.723
   4.160        316.67	    19.494
   4.180        268.33	    17.944
   4.200        283.33	    18.439
   4.220        309.17	    19.261
   4.240        304.17	    19.105
   4.260        260.83	    17.692
   4.280        307.50	    19.209
   4.300        303.33	    19.079
   4.320        267.50	    17.916
   4.340        273.33	    18.111
   4.360        288.33	    18.601
   4.380        295.00	    18.815
   4.400        293.33	    18.762
   4.420        270.83	    18.028
   4.440        230.00	    16.613
   4.460        285.83	    18.520
   4.480        283.33	    18.439
   4.500        300.83	    19.000
   4.520        264.17	    17.804
   4.540        276.67	    18.221
   4.560        262.50	    17.748
   4.580        262.50	    17.748
   4.600        252.50	    17.407
   4.620        245.00	    17.146
   4.640        260.83	    17.692
   4.660        257.50	    17.578
   4.680        256.67	    17.550
   4.700        264.17	    17.804
   4.720        253.33	    17.436
   4.740        234.17	    16.763
   4.760        224.17	    16.401
   4.780        272.50	    18.083
   4.800        250.00	    17.321
   4.820        230.83	    16.643
   4.840        239.17	    16.941
   4.860        225.83	    16.462
   4.880        259.17	    17.635
   4.900        254.17	    17.464
   4.920        250.00	    17.321
   4.940        234.17	    16.763
   4.960        250.00	    17.321
   4.980        245.83	    17.176
   5.000        227.50	    16.523
   5.020        248.33	    17.263
   5.040        255.00	    17.493
   5.060        249.17	    17.292
   5.080        246.67	    17.205
   5.100        245.00	    17.146
   5.120        241.67	    17.029
   5.140        228.33	    16.553
   5.160        232.50	    16.703
   5.180        245.83	    17.176
   5.200        235.00	    16.793
   5.220        228.33	    16.553
   5.240        225.83	    16.462
   5.260        232.50	    16.703
   5.280        248.33	    17.263
   5.300        205.00	    15.684
   5.320        209.17	    15.843
   5.340        220.00	    16.248
   5.360        227.50	    16.523
   5.380        202.50	    15.588
   5.400        233.33	    16.733
   5.420        209.17	    15.843
   5.440        207.50	    15.780
   5.460        233.33	    16.733
   5.480        198.33	    15.427
   5.500        235.00	    16.793
   5.520        210.00	    15.875
   5.540        212.50	    15.969
   5.560        193.33	    15.232
   5.580        201.67	    15.556
   5.600        233.33	    16.733
   5.620        221.67	    16.310
   5.640        204.17	    15.652
   5.660        219.17	    16.217
   5.680        228.33	    16.553
   5.700        217.50	    16.155
   5.720        230.00	    16.613
   5.740        230.00	    16.613
   5.760        207.50	    15.780
   5.780        230.00	    16.613
   5.800        222.50	    16.340
   5.820        251.67	    17.378
   5.840        225.83	    16.462
   5.860        273.33	    18.111
   5.880        276.67	    18.221
   5.900        295.00	    18.815
   5.920        315.83	    19.468
   5.940        385.00	    21.494
   5.960        402.50	    21.977
   5.980        340.00	    20.199
   6.000        357.50	    20.712
   6.020        342.50	    20.273
   6.040        318.33	    19.545
   6.060        323.33	    19.698
   6.080        330.00	    19.900
   6.100        275.00	    18.166
   6.120        315.83	    19.468
   6.140        354.17	    20.616
   6.160        378.33	    21.307
   6.180        372.50	    21.142
   6.200        463.33	    23.580
   6.220        420.83	    22.472
   6.240        409.17	    22.159
   6.260        325.83	    19.774
   6.280        310.83	    19.313
   6.300        265.83	    17.861
   6.320        230.00	    16.613
   6.340        221.67	    16.310
   6.360        207.50	    15.780
   6.380        215.83	    16.093
   6.400        180.00	    14.697
   6.420        211.67	    15.937
   6.440        213.33	    16.000
   6.460        198.33	    15.427
   6.480        192.50	    15.199
   6.500        175.00	    14.491
   6.520        179.17	    14.663
   6.540        194.17	    15.264
   6.560        208.33	    15.811
   6.580        185.00	    14.900
   6.600        180.83	    14.731
   6.620        193.33	    15.232
   6.640        183.33	    14.832
   6.660        184.17	    14.866
   6.680        165.83	    14.107
   6.700        179.17	    14.663
   6.720        175.83	    14.526
   6.740        167.50	    14.177
   6.760        180.00	    14.697
   6.780        196.67	    15.362
   6.800        179.17	    14.663
   6.820        187.50	    15.000
   6.840        162.50	    13.964
   6.860        185.83	    14.933
   6.880        161.67	    13.928
   6.900        150.83	    13.454
   6.920        160.83	    13.892
   6.940        191.67	    15.166
   6.960        177.50	    14.595
   6.980        174.17	    14.457
   7.000        174.17	    14.457
   7.020        162.50	    13.964
   7.040        179.17	    14.663
   7.060        179.17	    14.663
   7.080        151.67	    13.491
   7.100        183.33	    14.832
   7.120        171.67	    14.353
   7.140        171.67	    14.353
   7.160        180.83	    14.731
   7.180        152.50	    13.528
   7.200        160.83	    13.892
   7.220        142.50	    13.077
   7.240        166.67	    14.142
   7.260        152.50	    13.528
   7.280        150.83	    13.454
   7.300        168.33	    14.213
   7.320        155.00	    13.638
   7.340        185.00	    14.900
   7.360        155.83	    13.675
   7.380        171.67	    14.353
   7.400        151.67	    13.491
   7.420        151.67	    13.491
   7.440        161.67	    13.928
   7.460        150.83	    13.454
   7.480        150.83	    13.454
   7.500        146.67	    13.266
   7.520        154.17	    13.601
   7.540        160.00	    13.856
   7.560        155.83	    13.675
   7.580        160.83	    13.892
   7.600        150.00	    13.416
   7.620        169.17	    14.248
   7.640        150.00	    13.416
   7.660        161.67	    13.928
   7.680        173.33	    14.422
   7.700        140.00	    12.961
   7.720        148.33	    13.342
   7.740        164.17	    14.036
   7.760        136.67	    12.806
   7.780        154.17	    13.601
   7.800        145.00	    13.191
   7.820        154.17	    13.601
   7.840        166.67	    14.142
   7.860        144.17	    13.153
   7.880        162.50	    13.964
   7.900        153.33	    13.565
   7.920        168.33	    14.213
   7.940        161.67	    13.928
   7.960        145.00	    13.191
   7.980        138.33	    12.884
   8.000        140.00	    12.961
   8.020        145.00	    13.191
   8.040        162.50	    13.964
   8.060        143.33	    13.115
   8.080        134.17	    12.689
   8.100        155.00	    13.638
   8.120        132.50	    12.610
   8.140        169.17	    14.248
   8.160        160.00	    13.856
   8.180        160.83	    13.892
   8.200        144.17	    13.153
   8.220        158.33	    13.784
   8.240        153.33	    13.565
   8.260        150.83	    13.454
   8.280        165.83	    14.107
   8.300        154.17	    13.601
   8.320        145.83	    13.229
   8.340        154.17	    13.601
   8.360        145.83	    13.229
   8.380        145.83	    13.229
   8.400        148.33	    13.342
   8.420        161.67	    13.928
   8.440        164.17	    14.036
   8.460        139.17	    12.923
   8.480        150.83	    13.454
   8.500        160.00	    13.856
   8.520        175.83	    14.526
   8.540        168.33	    14.213
   8.560        185.83	    14.933
   8.580        164.17	    14.036
   8.600        189.17	    15.067
   8.620        178.33	    14.629
   8.640        181.67	    14.765
   8.660        194.17	    15.264
   8.680        218.33	    16.186
   8.700        230.00	    16.613
   8.720        233.33	    16.733
   8.740        260.00	    17.664
   8.760        300.00	    18.974
   8.780        335.83	    20.075
   8.800        328.33	    19.849
   8.820        390.00	    21.633
   8.840        570.83	    26.173
   8.860        724.17	    29.479
   8.880        740.00	    29.799
   8.900        650.83	    27.946
   8.920        539.17	    25.436
   8.940        383.33	    21.448
   8.960        285.83	    18.520
   8.980        213.33	    16.000
   9.000        187.50	    15.000
   9.020        183.33	    14.832
   9.040        172.50	    14.387
   9.060        138.33	    12.884
   9.080        172.50	    14.387
   9.100        173.33	    14.422
   9.120        173.33	    14.422
   9.140        190.83	    15.133
   9.160        258.33	    17.607
   9.180        300.00	    18.974
   9.200        295.83	    18.841
   9.220        207.50	    15.780
   9.240        156.67	    13.711
   9.260        150.00	    13.416
   9.280        145.00	    13.191
   9.300        135.00	    12.728
   9.320        145.83	    13.229
   9.340        140.83	    13.000
   9.360        146.67	    13.266
   9.380        169.17	    14.248
   9.400        177.50	    14.595
   9.420        183.33	    14.832
   9.440        192.50	    15.199
   9.460        193.33	    15.232
   9.480        190.00	    15.100
   9.500        211.67	    15.937
   9.520        171.67	    14.353
   9.540        141.67	    13.038
   9.560        123.33	    12.166
   9.580        118.33	    11.916
   9.600        120.83	    12.042
   9.620        126.67	    12.329
   9.640        133.33	    12.649
   9.660        135.00	    12.728
   9.680        125.00	    12.247
   9.700        125.83	    12.288
   9.720        135.83	    12.767
   9.740        134.17	    12.689
   9.760        114.17	    11.705
   9.780        125.83	    12.288
   9.800        121.67	    12.083
   9.820        125.83	    12.288
   9.840        110.00	    11.489
   9.860        114.17	    11.705
   9.880        110.00	    11.489
   9.900        121.67	    12.083
   9.920        128.33	    12.410
   9.940        100.83	    11.000
   9.960        120.00	    12.000
   9.980        108.33	    11.402
  10.000        118.33	    11.916
  10.020        120.00	    12.000
  10.040        128.33	    12.410
  10.060        121.67	    12.083
  10.080        116.67	    11.832
  10.100        112.50	    11.619
  10.120        110.00	    11.489
  10.140        103.33	    11.136
  10.160        117.50	    11.874
  10.180        127.50	    12.369
  10.200        116.67	    11.832
  10.220        109.17	    11.446
  10.240         98.33	    10.863
  10.260        104.17	    11.180
  10.280        107.50	    11.358
  10.300        117.50	    11.874
  10.320        103.33	    11.136
  10.340        101.67	    11.045
  10.360        108.33	    11.402
  10.380        120.83	    12.042
  10.400        125.83	    12.288
  10.420        111.67	    11.576
  10.440        135.00	    12.728
  10.460        128.33	    12.410
  10.480        150.83	    13.454
  10.500        177.50	    14.595
  10.520        175.83	    14.526
  10.540        185.83	    14.933
  10.560        225.00	    16.432
  10.580        204.17	    15.652
  10.600        180.83	    14.731
  10.620        134.17	    12.689
  10.640        120.00	    12.000
  10.660        107.50	    11.358
  10.680        108.33	    11.402
  10.700        110.83	    11.533
  10.720        115.00	    11.747
  10.740        106.67	    11.314
  10.760        100.00	    10.954
  10.780        123.33	    12.166
  10.800        104.17	    11.180
  10.820        111.67	    11.576
  10.840        107.50	    11.358
  10.860        108.33	    11.402
  10.880        120.83	    12.042
  10.900         86.67	    10.198
  10.920         95.83	    10.724
  10.940        110.83	    11.533
  10.960        114.17	    11.705
  10.980        115.00	    11.747
  11.000         98.33	    10.863
  11.020        112.50	    11.619
  11.040        125.00	    12.247
  11.060        110.83	    11.533
  11.080        116.67	    11.832
  11.100         88.33	    10.296
  11.120        105.00	    11.225
  11.140        103.33	    11.136
  11.160         94.17	    10.630
  11.180        109.17	    11.446
  11.200        111.67	    11.576
  11.220        100.83	    11.000
  11.240        118.33	    11.916
  11.260        112.50	    11.619
  11.280         98.33	    10.863
  11.300        117.50	    11.874
  11.320        102.50	    11.091
  11.340        105.00	    11.225
  11.360         95.00	    10.677
  11.380        116.67	    11.832
  11.400        103.33	    11.136
  11.420        105.83	    11.269
  11.440         98.33	    10.863
  11.460         90.00	    10.392
  11.480         96.67	    10.770
  11.500        115.00	    11.747
  11.520        120.83	    12.042
  11.540        107.50	    11.358
  11.560        112.50	    11.619
  11.580        115.00	    11.747
  11.600        116.67	    11.832
  11.620        126.67	    12.329
  11.640        132.50	    12.610
  11.660        119.17	    11.958
  11.680        119.17	    11.958
  11.700        104.17	    11.180
  11.720        124.17	    12.207
  11.740        120.83	    12.042
  11.760        131.67	    12.570
  11.780        116.67	    11.832
  11.800        133.33	    12.649
  11.820        107.50	    11.358
  11.840        136.67	    12.806
  11.860        108.33	    11.402
  11.880        128.33	    12.410
  11.900        129.17	    12.450
  11.920        142.50	    13.077
  11.940        129.17	    12.450
  11.960        144.17	    13.153
  11.980        163.33	    14.000
  12.000        139.17	    12.923
  12.020        185.00	    14.900
  12.040        212.50	    15.969
  12.060        195.00	    15.297
  12.080        251.67	    17.378
  12.100        302.50	    19.053
  12.120        432.50	    22.782
  12.140        670.83	    28.373
  12.160        993.33	    34.525
  12.180       1279.17	    39.179
  12.200       1235.83	    38.510
  12.220       1067.50	    35.791
  12.240        797.50	    30.935
  12.260        605.00	    26.944
  12.280        469.17	    23.728
  12.300        447.50	    23.173
  12.320        474.17	    23.854
  12.340        502.50	    24.556
  12.360        549.17	    25.671
  12.380        590.00	    26.608
  12.400        515.00	    24.860
  12.420        462.50	    23.558
  12.440        525.00	    25.100
  12.460        554.17	    25.788
  12.480        620.83	    27.295
  12.500        605.83	    26.963
  12.520        611.67	    27.092
  12.540        479.17	    23.979
  12.560        323.33	    19.698
  12.580        244.17	    17.117
  12.600        175.00	    14.491
  12.620        170.00	    14.283
  12.640        129.17	    12.450
  12.660        138.33	    12.884
  12.680        122.50	    12.124
  12.700        120.00	    12.000
  12.720        127.50	    12.369
  12.740        120.83	    12.042
  12.760        120.83	    12.042
  12.780        122.50	    12.124
  12.800        112.50	    11.619
  12.820        104.17	    11.180
  12.840        105.00	    11.225
  12.860         90.83	    10.440
  12.880        115.00	    11.747
  12.900        105.83	    11.269
  12.920        101.67	    11.045
  12.940        108.33	    11.402
  12.960        102.50	    11.091
  12.980        114.17	    11.705
  13.000         92.50	    10.536
  13.020         90.00	    10.392
  13.040         90.00	    10.392
  13.060        117.50	    11.874
  13.080        108.33	    11.402
  13.100         93.33	    10.583
  13.120         84.17	    10.050
  13.140         92.50	    10.536
  13.160         85.00	    10.100
  13.180         97.50	    10.817
  13.200        103.33	    11.136
  13.220         81.67	     9.899
  13.240         88.33	    10.296
  13.260        100.00	    10.954
  13.280         85.83	    10.149
  13.300         93.33	    10.583
  13.320        110.83	    11.533
  13.340        103.33	    11.136
  13.360        112.50	    11.619
  13.380         81.67	     9.899
  13.400        103.33	    11.136
  13.420         83.33	    10.000
  13.440        105.83	    11.269
  13.460         95.00	    10.677
  13.480         90.00	    10.392
  13.500         92.50	    10.536
  13.520         98.33	    10.863
  13.540         84.17	    10.050
  13.560         87.50	    10.247
  13.580         92.50	    10.536
  13.600         86.67	    10.198
  13.620        106.67	    11.314
  13.640        108.33	    11.402
  13.660         98.33	    10.863
  13.680        110.83	    11.533
  13.700         98.33	    10.863
  13.720         95.83	    10.724
  13.740         92.50	    10.536
  13.760         88.33	    10.296
  13.780         90.00	    10.392
  13.800         77.50	     9.644
  13.820        112.50	    11.619
  13.840        145.00	    13.191
  13.860        147.50	    13.304
  13.880        114.17	    11.705
  13.900         85.83	    10.149
  13.920         94.17	    10.630
  13.940        105.83	    11.269
  13.960         82.50	     9.950
  13.980         96.67	    10.770
  14.000         90.00	    10.392
  14.020         84.17	    10.050
  14.040         83.33	    10.000
  14.060         76.67	     9.592
  14.080         92.50	    10.536
  14.100         96.67	    10.770
  14.120         76.67	     9.592
  14.140         75.00	     9.487
  14.160         75.00	     9.487
  14.180         80.00	     9.798
  14.200         84.17	    10.050
  14.220         80.00	     9.798
  14.240         72.50	     9.327
  14.260         74.17	     9.434
  14.280         91.67	    10.488
  14.300         90.00	    10.392
  14.320         73.33	     9.381
  14.340         84.17	    10.050
  14.360         65.83	     8.888
  14.380         82.50	     9.950
  14.400         83.33	    10.000
  14.420         70.00	     9.165
  14.440         95.83	    10.724
  14.460         80.83	     9.849
  14.480         77.50	     9.644
  14.500         89.17	    10.344
  14.520         75.83	     9.539
  14.540         80.00	     9.798
  14.560         82.50	     9.950
  14.580         74.17	     9.434
  14.600         75.00	     9.487
  14.620         77.50	     9.644
  14.640         69.17	     9.110
  14.660         68.33	     9.055
  14.680         66.67	     8.944
  14.700         80.00	     9.798
  14.720         85.83	    10.149
  14.740         85.00	    10.100
  14.760         85.83	    10.149
  14.780         64.17	     8.775
  14.800         71.67	     9.274
  14.820         81.67	     9.899
  14.840         83.33	    10.000
  14.860         69.17	     9.110
  14.880         60.83	     8.544
  14.900         71.67	     9.274
  14.920         74.17	     9.434
  14.940         88.33	    10.296
  14.960        103.33	    11.136
  14.980         98.33	    10.863
  15.000         92.50	    10.536
  15.020         78.33	     9.695
  15.040         79.17	     9.747
  15.060         82.50	     9.950
  15.080         82.50	     9.950
  15.100         65.00	     8.832
  15.120         70.00	     9.165
  15.140         77.50	     9.644
  15.160         79.17	     9.747
  15.180         71.67	     9.274
  15.200         91.67	    10.488
  15.220         74.17	     9.434
  15.240         75.00	     9.487
  15.260         80.00	     9.798
  15.280         80.83	     9.849
  15.300         90.00	    10.392
  15.320         83.33	    10.000
  15.340         67.50	     9.000
  15.360         70.00	     9.165
  15.380         67.50	     9.000
  15.400         66.67	     8.944
  15.420         75.83	     9.539
  15.440         54.17	     8.062
  15.460         74.17	     9.434
  15.480         56.67	     8.246
  15.500         68.33	     9.055
  15.520         82.50	     9.950
  15.540         72.50	     9.327
  15.560         80.83	     9.849
  15.580         70.83	     9.220
  15.600         76.67	     9.592
  15.620         85.00	    10.100
  15.640         81.67	     9.899
  15.660         61.67	     8.602
  15.680         57.50	     8.307
  15.700         76.67	     9.592
  15.720         82.50	     9.950
  15.740         64.17	     8.775
  15.760         72.50	     9.327
  15.780         76.67	     9.592
  15.800         62.50	     8.660
  15.820         70.00	     9.165
  15.840         78.33	     9.695
  15.860         63.33	     8.718
  15.880         78.33	     9.695
  15.900         80.00	     9.798
  15.920         74.17	     9.434
  15.940         65.83	     8.888
  15.960         75.83	     9.539
  15.980         71.67	     9.274
  16.000         75.83	     9.539
  16.020         65.00	     8.832
  16.040         86.67	    10.198
  16.060         80.00	     9.798
  16.080         63.33	     8.718
  16.100         64.17	     8.775
  16.120         86.67	    10.198
  16.140         72.50	     9.327
  16.160         86.67	    10.198
  16.180         70.00	     9.165
  16.200         84.17	    10.050
  16.220         60.83	     8.544
  16.240         72.50	     9.327
  16.260         65.83	     8.888
  16.280         79.17	     9.747
  16.300         70.83	     9.220
  16.320         62.50	     8.660
  16.340         80.83	     9.849
  16.360         75.00	     9.487
  16.380         70.83	     9.220
  16.400         65.00	     8.832
  16.420         90.00	    10.392
  16.440         78.33	     9.695
  16.460         65.83	     8.888
  16.480         77.50	     9.644
  16.500         79.17	     9.747
  16.520         75.00	     9.487
  16.540         68.33	     9.055
  16.560         70.00	     9.165
  16.580         64.17	     8.775
  16.600         71.67	     9.274
  16.620         67.50	     9.000
  16.640         73.33	     9.381
  16.660         76.67	     9.592
  16.680         61.67	     8.602
  16.700         72.50	     9.327
  16.720         61.67	     8.602
  16.740         75.83	     9.539
  16.760         61.67	     8.602
  16.780         72.50	     9.327
  16.800         78.33	     9.695
  16.820         71.67	     9.274
  16.840         67.50	     9.000
  16.860         72.50	     9.327
  16.880         55.83	     8.185
  16.900         65.83	     8.888
  16.920         81.67	     9.899
  16.940         77.50	     9.644
  16.960         89.17	    10.344
  16.980         73.33	     9.381
  17.000         71.67	     9.274
  17.020         57.50	     8.307
  17.040         60.83	     8.544
  17.060         75.00	     9.487
  17.080         66.67	     8.944
  17.100         68.33	     9.055
  17.120         72.50	     9.327
  17.140         66.67	     8.944
  17.160         80.00	     9.798
  17.180         70.00	     9.165
  17.200         71.67	     9.274
  17.220         75.00	     9.487
  17.240         55.00	     8.124
  17.260         70.00	     9.165
  17.280         68.33	     9.055
  17.300         75.00	     9.487
  17.320         72.50	     9.327
  17.340         69.17	     9.110
  17.360         59.17	     8.426
  17.380         80.83	     9.849
  17.400         69.17	     9.110
  17.420         85.00	    10.100
  17.440         93.33	    10.583
  17.460         78.33	     9.695
  17.480         74.17	     9.434
  17.500         90.00	    10.392
  17.520         83.33	    10.000
  17.540         71.67	     9.274
  17.560         81.67	     9.899
  17.580         74.17	     9.434
  17.600         58.33	     8.367
  17.620         60.00	     8.485
  17.640         98.33	    10.863
  17.660         80.83	     9.849
  17.680        100.00	    10.954
  17.700         90.83	    10.440
  17.720        123.33	    12.166
  17.740        150.83	    13.454
  17.760        214.17	    16.031
  17.780        273.33	    18.111
  17.800        277.50	    18.248
  17.820        277.50	    18.248
  17.840        298.33	    18.921
  17.860        248.33	    17.263
  17.880        207.50	    15.780
  17.900        155.83	    13.675
  17.920        130.83	    12.530
  17.940        110.83	    11.533
  17.960        100.83	    11.000
  17.980         68.33	     9.055
  18.000         76.67	     9.592
  18.020         90.00	    10.392
  18.040         82.50	     9.950
  18.060         75.00	     9.487
  18.080         76.67	     9.592
  18.100         72.50	     9.327
  18.120         76.67	     9.592
  18.140         80.83	     9.849
  18.160         87.50	    10.247
  18.180         79.17	     9.747
  18.200         66.67	     8.944
  18.220         80.00	     9.798
  18.240         72.50	     9.327
  18.260         71.67	     9.274
  18.280         82.50	     9.950
  18.300         76.67	     9.592
  18.320         90.00	    10.392
  18.340         84.17	    10.050
  18.360         89.17	    10.344
  18.380        130.00	    12.490
  18.400        159.17	    13.820
  18.420        170.00	    14.283
  18.440        164.17	    14.036
  18.460        159.17	    13.820
  18.480        145.00	    13.191
  18.500        126.67	    12.329
  18.520        190.00	    15.100
  18.540        205.83	    15.716
  18.560        288.33	    18.601
  18.580        307.50	    19.209
  18.600        315.00	    19.442
  18.620        238.33	    16.912
  18.640        233.33	    16.733
  18.660        220.00	    16.248
  18.680        180.83	    14.731
  18.700        189.17	    15.067
  18.720        190.83	    15.133
  18.740        246.67	    17.205
  18.760        300.83	    19.000
  18.780        303.33	    19.079
  18.800        320.83	    19.621
  18.820        309.17	    19.261
  18.840        215.00	    16.062
  18.860        173.33	    14.422
  18.880        139.17	    12.923
  18.900        132.50	    12.610
  18.920        104.17	    11.180
  18.940         90.83	    10.440
  18.960         75.83	     9.539
  18.980        109.17	    11.446
  19.000         96.67	    10.770
  19.020         90.83	    10.440
  19.040         84.17	    10.050
  19.060         85.00	    10.100
  19.080         71.67	     9.274
  19.100         60.00	     8.485
  19.120         65.00	     8.832
  19.140         85.83	    10.149
  19.160         87.50	    10.247
  19.180         86.67	    10.198
  19.200         75.00	     9.487
  19.220         84.17	    10.050
  19.240         86.67	    10.198
  19.260         81.67	     9.899
  19.280         80.83	     9.849
  19.300         83.33	    10.000
  19.320         89.17	    10.344
  19.340         94.17	    10.630
  19.360         84.17	    10.050
  19.380         95.83	    10.724
  19.400         94.17	    10.630
  19.420         80.83	     9.849
  19.440         73.33	     9.381
  19.460         60.83	     8.544
  19.480         67.50	     9.000
  19.500         77.50	     9.644
  19.520         80.83	     9.849
  19.540         75.83	     9.539
  19.560         73.33	     9.381
  19.580         98.33	    10.863
  19.600         82.50	     9.950
  19.620         80.00	     9.798
  19.640        101.67	    11.045
  19.660        107.50	    11.358
  19.680         90.83	    10.440
  19.700         81.67	     9.899
  19.720         87.50	    10.247
  19.740         88.33	    10.296
  19.760         90.00	    10.392
  19.780         81.67	     9.899
  19.800         90.83	    10.440
  19.820         86.67	    10.198
  19.840        103.33	    11.136
  19.860        106.67	    11.314
  19.880         91.67	    10.488
  19.900        104.17	    11.180
  19.920        114.17	    11.705
  19.940         97.50	    10.817
  19.960         95.00	    10.677
  19.980         82.50	     9.950
  20.000         61.67	     8.602
  20.020         89.17	    10.344
  20.040         72.50	     9.327
  20.060         62.50	     8.660
  20.080         70.83	     9.220
  20.100         55.00	     8.124
  20.120         73.33	     9.381
  20.140         70.00	     9.165
  20.160         80.83	     9.849
  20.180         61.67	     8.602
  20.200         75.00	     9.487
  20.220         84.17	    10.050
  20.240         64.17	     8.775
  20.260         62.50	     8.660
  20.280         79.17	     9.747
  20.300         70.83	     9.220
  20.320         60.83	     8.544
  20.340         65.00	     8.832
  20.360         72.50	     9.327
  20.380         81.67	     9.899
  20.400         55.00	     8.124
  20.420         62.50	     8.660
  20.440         67.50	     9.000
  20.460         55.00	     8.124
  20.480         69.17	     9.110
  20.500         75.83	     9.539
  20.520         89.17	    10.344
  20.540         63.33	     8.718
  20.560         80.00	     9.798
  20.580         66.67	     8.944
  20.600         70.83	     9.220
  20.620         92.50	    10.536
  20.640         87.50	    10.247
  20.660         73.33	     9.381
  20.680         77.50	     9.644
  20.700         99.17	    10.909
  20.720         84.17	    10.050
  20.740         75.00	     9.487
  20.760         94.17	    10.630
  20.780        141.67	    13.038
  20.800        157.50	    13.748
  20.820        251.67	    17.378
  20.840        363.33	    20.881
  20.860        415.00	    22.316
  20.880        426.67	    22.627
  20.900        393.33	    21.726
  20.920        279.17	    18.303
  20.940        245.83	    17.176
  20.960        155.00	    13.638
  20.980        133.33	    12.649
  21.000         95.00	    10.677
  21.020        110.00	    11.489
  21.040         91.67	    10.488
  21.060         84.17	    10.050
  21.080         83.33	    10.000
  21.100         93.33	    10.583
  21.120         79.17	     9.747
  21.140         83.33	    10.000
  21.160         75.83	     9.539
  21.180         77.50	     9.644
  21.200         67.50	     9.000
  21.220         75.83	     9.539
  21.240         65.83	     8.888
  21.260         60.00	     8.485
  21.280         65.00	     8.832
  21.300         68.33	     9.055
  21.320         64.17	     8.775
  21.340         66.67	     8.944
  21.360         61.67	     8.602
  21.380         61.67	     8.602
  21.400         60.83	     8.544
  21.420         66.67	     8.944
  21.440         63.33	     8.718
  21.460         52.50	     7.937
  21.480         69.17	     9.110
  21.500         63.33	     8.718
  21.520         70.00	     9.165
  21.540         55.83	     8.185
  21.560         61.67	     8.602
  21.580         78.33	     9.695
  21.600         79.17	     9.747
  21.620         65.00	     8.832
  21.640         73.33	     9.381
  21.660         73.33	     9.381
  21.680         60.83	     8.544
  21.700         63.33	     8.718
  21.720         54.17	     8.062
  21.740         70.83	     9.220
  21.760         60.00	     8.485
  21.780         68.33	     9.055
  21.800         65.00	     8.832
  21.820         80.00	     9.798
  21.840         60.00	     8.485
  21.860         70.00	     9.165
  21.880         70.00	     9.165
  21.900         70.83	     9.220
  21.920         81.67	     9.899
  21.940         75.00	     9.487
  21.960         85.83	    10.149
  21.980         94.17	    10.630
  22.000        120.83	    12.042
  22.020        173.33	    14.422
  22.040        261.67	    17.720
  22.060        292.50	    18.735
  22.080        248.33	    17.263
  22.100        217.50	    16.155
  22.120        168.33	    14.213
  22.140        130.83	    12.530
  22.160        111.67	    11.576
  22.180         79.17	     9.747
  22.200         78.33	     9.695
  22.220         83.33	    10.000
  22.240         75.83	     9.539
  22.260         57.50	     8.307
  22.280         77.50	     9.644
  22.300         83.33	    10.000
  22.320         66.67	     8.944
  22.340         65.83	     8.888
  22.360         85.83	    10.149
  22.380         65.83	     8.888
  22.400         55.00	     8.124
  22.420         67.50	     9.000
  22.440         57.50	     8.307
  22.460         81.67	     9.899
  22.480         72.50	     9.327
  22.500         60.83	     8.544
  22.520         64.17	     8.775
  22.540         62.50	     8.660
  22.560         70.00	     9.165
  22.580         69.17	     9.110
  22.600         75.83	     9.539
  22.620         69.17	     9.110
  22.640         65.00	     8.832
  22.660         84.17	    10.050
  22.680         64.17	     8.775
  22.700         61.67	     8.602
  22.720         75.00	     9.487
  22.740         75.00	     9.487
  22.760         50.00	     7.746
  22.780         70.00	     9.165
  22.800         75.83	     9.539
  22.820         85.83	    10.149
  22.840         93.33	    10.583
  22.860         83.33	    10.000
  22.880         90.00	    10.392
  22.900         83.33	    10.000
  22.920         89.17	    10.344
  22.940         90.00	    10.392
  22.960         98.33	    10.863
  22.980         90.00	    10.392
  23.000         95.83	    10.724
  23.020        117.50	    11.874
  23.040         98.33	    10.863
  23.060         90.83	    10.440
  23.080        116.67	    11.832
  23.100        105.83	    11.269
  23.120         80.83	     9.849
  23.140         87.50	    10.247
  23.160         90.00	    10.392
  23.180        103.33	    11.136
  23.200        104.17	    11.180
  23.220         88.33	    10.296
  23.240         83.33	    10.000
  23.260         75.83	     9.539
  23.280         75.83	     9.539
  23.300         68.33	     9.055
  23.320         62.50	     8.660
  23.340         63.33	     8.718
  23.360         77.50	     9.644
  23.380         66.67	     8.944
  23.400         61.67	     8.602
  23.420         83.33	    10.000
  23.440         96.67	    10.770
  23.460         62.50	     8.660
  23.480         89.17	    10.344
  23.500        103.33	    11.136
  23.520        134.17	    12.689
  23.540        145.83	    13.229
  23.560        165.00	    14.071
  23.580        113.33	    11.662
  23.600        125.83	    12.288
  23.620        133.33	    12.649
  23.640        100.00	    10.954
  23.660        105.83	    11.269
  23.680         80.83	     9.849
  23.700         87.50	    10.247
  23.720         67.50	     9.000
  23.740        100.00	    10.954
  23.760         87.50	    10.247
  23.780         88.33	    10.296
  23.800        103.33	    11.136
  23.820         90.00	    10.392
  23.840        106.67	    11.314
  23.860         90.83	    10.440
  23.880         85.00	    10.100
  23.900         94.17	    10.630
  23.920         92.50	    10.536
  23.940         85.00	    10.100
  23.960         90.83	    10.440
  23.980        112.50	    11.619
  24.000        104.17	    11.180
  24.020        114.17	    11.705
  24.040        120.83	    12.042
  24.060        113.33	    11.662
  24.080        112.50	    11.619
  24.100        102.50	    11.091
  24.120        103.33	    11.136
  24.140        110.83	    11.533
  24.160        121.67	    12.083
  24.180        140.83	    13.000
  24.200        124.17	    12.207
  24.220        142.50	    13.077
  24.240        167.50	    14.177
  24.260        170.00	    14.283
  24.280        180.83	    14.731
  24.300        159.17	    13.820
  24.320        155.83	    13.675
  24.340        149.17	    13.379
  24.360        169.17	    14.248
  24.380        146.67	    13.266
  24.400        139.17	    12.923
  24.420        158.33	    13.784
  24.440        162.50	    13.964
  24.460        159.17	    13.820
  24.480        228.33	    16.553
  24.500        264.17	    17.804
  24.520        360.00	    20.785
  24.540        520.83	    25.000
  24.560        695.83	    28.896
  24.580        750.83	    30.017
  24.600        794.17	    30.871
  24.620        765.00	    30.299
  24.640        845.00	    31.843
  24.660        634.17	    27.586
  24.680        597.50	    26.777
  24.700        507.50	    24.678
  24.720        433.33	    22.804
  24.740        405.00	    22.045
  24.760        329.17	    19.875
  24.780        339.17	    20.174
  24.800        344.17	    20.322
  24.820        350.83	    20.518
  24.840        339.17	    20.174
  24.860        373.33	    21.166
  24.880        348.33	    20.445
  24.900        305.83	    19.157
  24.920        290.83	    18.682
  24.940        247.50	    17.234
  24.960        255.83	    17.521
  24.980        222.50	    16.340
  25.000        269.17	    17.972
  25.020        279.17	    18.303
  25.040        286.67	    18.547
  25.060        307.50	    19.209
  25.080        460.83	    23.516
  25.100        484.17	    24.104
  25.120        510.83	    24.759
  25.140        524.17	    25.080
  25.160        561.67	    25.962
  25.180        457.50	    23.431
  25.200        410.83	    22.204
  25.220        315.83	    19.468
  25.240        246.67	    17.205
  25.260        190.83	    15.133
  25.280        175.83	    14.526
  25.300        168.33	    14.213
  25.320        171.67	    14.353
  25.340        205.83	    15.716
  25.360        195.83	    15.330
  25.380        203.33	    15.620
  25.400        177.50	    14.595
  25.420        193.33	    15.232
  25.440        154.17	    13.601
  25.460        166.67	    14.142
  25.480        165.83	    14.107
  25.500        185.83	    14.933
  25.520        170.83	    14.318
  25.540        169.17	    14.248
  25.560        165.00	    14.071
  25.580        140.83	    13.000
  25.600        150.00	    13.416
  25.620        132.50	    12.610
  25.640        143.33	    13.115
  25.660        128.33	    12.410
  25.680        112.50	    11.619
  25.700        140.83	    13.000
  25.720        104.17	    11.180
  25.740        120.83	    12.042
  25.760         96.67	    10.770
  25.780        105.00	    11.225
  25.800         82.50	     9.950
  25.820         92.50	    10.536
  25.840         87.50	    10.247
  25.860         80.83	     9.849
  25.880         83.33	    10.000
  25.900         93.33	    10.583
  25.920         83.33	    10.000
  25.940         66.67	     8.944
  25.960         94.17	    10.630
  25.980        100.83	    11.000
  26.000         85.83	    10.149
  26.020         90.00	    10.392
  26.040         75.83	     9.539
  26.060         81.67	     9.899
  26.080         83.33	    10.000
  26.100         75.00	     9.487
  26.120         88.33	    10.296
  26.140         90.83	    10.440
  26.160         84.17	    10.050
  26.180        114.17	    11.705
  26.200        100.00	    10.954
  26.220         85.83	    10.149
  26.240        100.00	    10.954
  26.260        105.83	    11.269
  26.280        110.00	    11.489
  26.300        122.50	    12.124
  26.320        140.00	    12.961
  26.340        170.00	    14.283
  26.360        265.83	    17.861
  26.380        336.67	    20.100
  26.400        350.00	    20.494
  26.420        274.17	    18.138
  26.440        290.00	    18.655
  26.460        313.33	    19.391
  26.480        227.50	    16.523
  26.500        260.00	    17.664
  26.520        279.17	    18.303
  26.540        335.83	    20.075
  26.560        476.67	    23.917
  26.580        830.83	    31.575
  26.600       1382.50	    40.731
  26.620       1899.17	    47.739
  26.640       2187.50	    51.235
  26.660       1988.33	    48.847
  26.680       1679.17	    44.889
  26.700       1462.50	    41.893
  26.720       1127.50	    36.783
  26.740        823.33	    31.432
  26.760        634.17	    27.586
  26.780        611.67	    27.092
  26.800        714.17	    29.275
  26.820        830.83	    31.575
  26.840        918.33	    33.196
  26.860        932.50	    33.451
  26.880        843.33	    31.812
  26.900        794.17	    30.871
  26.920        726.67	    29.530
  26.940        583.33	    26.458
  26.960        426.67	    22.627
  26.980        351.67	    20.543
  27.000        282.50	    18.412
  27.020        245.83	    17.176
  27.040        191.67	    15.166
  27.060        186.67	    14.967
  27.080        150.83	    13.454
  27.100        134.17	    12.689
  27.120        128.33	    12.410
  27.140        120.00	    12.000
  27.160        116.67	    11.832
  27.180        110.00	    11.489
  27.200         89.17	    10.344
  27.220         85.00	    10.100
  27.240        101.67	    11.045
  27.260         88.33	    10.296
  27.280         92.50	    10.536
  27.300        105.83	    11.269
  27.320        105.00	    11.225
  27.340         89.17	    10.344
  27.360         95.83	    10.724
  27.380        115.00	    11.747
  27.400        114.17	    11.705
  27.420        132.50	    12.610
  27.440        146.67	    13.266
  27.460        142.50	    13.077
  27.480        163.33	    14.000
  27.500        249.17	    17.292
  27.520        289.17	    18.628
  27.540        247.50	    17.234
  27.560        224.17	    16.401
  27.580        213.33	    16.000
  27.600        197.50	    15.395
  27.620        164.17	    14.036
  27.640        141.67	    13.038
  27.660        147.50	    13.304
  27.680        187.50	    15.000
  27.700        205.00	    15.684
  27.720        277.50	    18.248
  27.740        390.83	    21.656
  27.760        491.67	    24.290
  27.780        508.33	    24.698
  27.800        411.67	    22.226
  27.820        354.17	    20.616
  27.840        406.67	    22.091
  27.860        394.17	    21.749
  27.880        484.17	    24.104
  27.900        678.33	    28.531
  27.920        742.50	    29.850
  27.940        715.83	    29.309
  27.960        579.17	    26.363
  27.980        521.67	    25.020
  28.000        478.33	    23.958
  28.020        345.00	    20.347
  28.040        249.17	    17.292
  28.060        198.33	    15.427
  28.080        174.17	    14.457
  28.100        162.50	    13.964
  28.120        164.17	    14.036
  28.140        147.50	    13.304
  28.160        120.00	    12.000
  28.180        113.33	    11.662
  28.200        103.33	    11.136
  28.220        112.50	    11.619
  28.240         90.00	    10.392
  28.260        101.67	    11.045
  28.280        131.67	    12.570
  28.300        125.00	    12.247
  28.320        106.67	    11.314
  28.340        107.50	    11.358
  28.360         88.33	    10.296
  28.380        113.33	    11.662
  28.400         90.83	    10.440
  28.420         83.33	    10.000
  28.440         93.33	    10.583
  28.460         85.83	    10.149
  28.480         93.33	    10.583
  28.500        105.00	    11.225
  28.520         90.83	    10.440
  28.540        133.33	    12.649
  28.560        167.50	    14.177
  28.580        185.00	    14.900
  28.600        177.50	    14.595
  28.620        175.83	    14.526
  28.640        199.17	    15.460
  28.660        194.17	    15.264
  28.680        194.17	    15.264
  28.700        165.00	    14.071
  28.720        149.17	    13.379
  28.740        134.17	    12.689
  28.760        130.00	    12.490
  28.780        105.83	    11.269
  28.800        106.67	    11.314
  28.820         91.67	    10.488
  28.840         80.83	     9.849
  28.860         80.00	     9.798
  28.880         70.83	     9.220
  28.900         70.83	     9.220
  28.920         46.67	     7.483
  28.940         70.83	     9.220
  28.960         67.50	     9.000
  28.980         62.50	     8.660
  29.000         59.17	     8.426
  29.020         61.67	     8.602
  29.040         58.33	     8.367
  29.060         58.33	     8.367
  29.080         66.67	     8.944
  29.100         55.00	     8.124
  29.120         63.33	     8.718
  29.140         66.67	     8.944
  29.160         63.33	     8.718
  29.180         54.17	     8.062
  29.200         54.17	     8.062
  29.220         53.33	     8.000
  29.240         51.67	     7.874
  29.260         57.50	     8.307
  29.280         51.67	     7.874
  29.300         60.83	     8.544
  29.320         62.50	     8.660
  29.340         72.50	     9.327
  29.360         71.67	     9.274
  29.380         62.50	     8.660
  29.400         56.67	     8.246
  29.420         48.33	     7.616
  29.440         45.83	     7.416
  29.460         55.00	     8.124
  29.480         68.33	     9.055
  29.500         69.17	     9.110
  29.520         58.33	     8.367
  29.540         61.67	     8.602
  29.560         72.50	     9.327
  29.580         69.17	     9.110
  29.600         59.17	     8.426
  29.620         58.33	     8.367
  29.640         56.67	     8.246
  29.660         48.33	     7.616
  29.680         59.17	     8.426
  29.700         68.33	     9.055
  29.720         66.67	     8.944
  29.740         84.17	    10.050
  29.760         77.50	     9.644
  29.780         75.83	     9.539
  29.800        100.00	    10.954
  29.820         99.17	    10.909
  29.840        134.17	    12.689
  29.860        140.00	    12.961
  29.880        160.00	    13.856
  29.900        158.33	    13.784
  29.920        133.33	    12.649
  29.940        126.67	    12.329
  29.960        116.67	    11.832
  29.980        107.50	    11.358
  30.000         89.17	    10.344
  30.020        116.67	    11.832
  30.040         97.50	    10.817
  30.060        137.50	    12.845
  30.080         85.83	    10.149
  30.100        108.33	    11.402
  30.120        107.50	    11.358
  30.140        105.00	    11.225
  30.160        124.17	    12.207
  30.180        144.17	    13.153
  30.200        160.00	    13.856
  30.220        198.33	    15.427
  30.240        169.17	    14.248
  30.260        214.17	    16.031
  30.280        147.50	    13.304
  30.300        158.33	    13.784
  30.320        135.83	    12.767
  30.340        119.17	    11.958
  30.360        118.33	    11.916
  30.380        122.50	    12.124
  30.400        134.17	    12.689
  30.420        197.50	    15.395
  30.440        305.00	    19.131
  30.460        260.83	    17.692
  30.480        159.17	    13.820
  30.500        166.67	    14.142
  30.520        208.33	    15.811
  30.540        159.17	    13.820
  30.560        104.17	    11.180
  30.580        105.83	    11.269
  30.600         85.83	    10.149
  30.620         80.00	     9.798
  30.640         75.83	     9.539
  30.660         66.67	     8.944
  30.680         50.83	     7.810
  30.700         72.50	     9.327
  30.720         51.67	     7.874
  30.740         59.17	     8.426
  30.760         72.50	     9.327
  30.780         78.33	     9.695
  30.800         90.83	    10.440
  30.820         94.17	    10.630
  30.840         91.67	    10.488
  30.860        118.33	    11.916
  30.880        277.50	    18.248
  30.900        429.17	    22.694
  30.920        246.67	    17.205
  30.940        162.50	    13.964
  30.960        235.00	    16.793
  30.980        256.67	    17.550
  31.000        160.83	    13.892
  31.020        100.00	    10.954
  31.040         85.00	    10.100
  31.060         78.33	     9.695
  31.080        104.17	    11.180
  31.100         94.17	    10.630
  31.120         93.33	    10.583
  31.140         91.67	    10.488
  31.160        120.83	    12.042
  31.180        137.50	    12.845
  31.200        132.50	    12.610
  31.220        140.83	    13.000
  31.240        165.00	    14.071
  31.260        149.17	    13.379
  31.280        143.33	    13.115
  31.300        120.83	    12.042
  31.320        125.00	    12.247
  31.340        119.17	    11.958
  31.360        114.17	    11.705
  31.380         87.50	    10.247
  31.400         86.67	    10.198
  31.420         93.33	    10.583
  31.440         90.83	    10.440
  31.460         87.50	    10.247
  31.480        104.17	    11.180
  31.500        116.67	    11.832
  31.520        127.50	    12.369
  31.540        135.00	    12.728
  31.560        137.50	    12.845
  31.580        155.83	    13.675
  31.600        128.33	    12.410
  31.620        115.00	    11.747
  31.640         97.50	    10.817
  31.660         90.00	    10.392
  31.680         91.67	    10.488
  31.700         72.50	     9.327
  31.720         60.83	     8.544
  31.740         60.83	     8.544
  31.760         52.50	     7.937
  31.780         58.33	     8.367
  31.800         67.50	     9.000
  31.820         75.00	     9.487
  31.840         57.50	     8.307
  31.860         65.83	     8.888
  31.880         62.50	     8.660
  31.900         63.33	     8.718
  31.920         65.83	     8.888
  31.940         63.33	     8.718
  31.960         62.50	     8.660
  31.980         78.33	     9.695
  32.000         86.67	    10.198
  32.020         85.83	    10.149
  32.040         95.00	    10.677
  32.060         82.50	     9.950
  32.080         87.50	    10.247
  32.100         83.33	    10.000
  32.120         90.00	    10.392
  32.140         88.33	    10.296
  32.160         86.67	    10.198
  32.180        112.50	    11.619
  32.200         81.67	     9.899
  32.220         59.17	     8.426
  32.240         74.17	     9.434
  32.260         69.17	     9.110
  32.280         80.00	     9.798
  32.300         81.67	     9.899
  32.320        100.83	    11.000
  32.340        255.00	    17.493
  32.360        245.83	    17.176
  32.380         98.33	    10.863
  32.400         73.33	     9.381
  32.420        124.17	    12.207
  32.440        138.33	    12.884
  32.460         94.17	    10.630
  32.480         60.83	     8.544
  32.500         55.00	     8.124
  32.520         46.67	     7.483
  32.540         51.67	     7.874
  32.560         56.67	     8.246
  32.580         41.67	     7.071
  32.600         45.83	     7.416
  32.620         40.83	     7.000
  32.640         50.00	     7.746
  32.660         38.33	     6.782
  32.680         41.67	     7.071
  32.700         45.00	     7.348
  32.720         47.50	     7.550
  32.740         59.17	     8.426
  32.760         46.67	     7.483
  32.780         54.17	     8.062
  32.800         49.17	     7.681
  32.820         50.83	     7.810
  32.840         55.00	     8.124
  32.860         51.67	     7.874
  32.880         64.17	     8.775
  32.900         50.00	     7.746
  32.920         59.17	     8.426
  32.940         70.83	     9.220
  32.960         56.67	     8.246
  32.980         67.50	     9.000
  33.000         97.50	    10.817
  33.020        133.33	    12.649
  33.040        130.83	    12.530
  33.060         82.50	     9.950
  33.080         80.00	     9.798
  33.100         90.83	    10.440
  33.120         81.67	     9.899
  33.140         80.83	     9.849
  33.160         61.67	     8.602
  33.180         51.67	     7.874
  33.200         65.00	     8.832
  33.220         53.33	     8.000
  33.240         51.67	     7.874
  33.260         48.33	     7.616
  33.280         60.83	     8.544
  33.300         66.67	     8.944
  33.320         52.50	     7.937
  33.340         59.17	     8.426
  33.360         50.83	     7.810
  33.380         55.83	     8.185
  33.400         61.67	     8.602
  33.420         50.83	     7.810
  33.440         60.00	     8.485
  33.460         60.00	     8.485
  33.480         53.33	     8.000
  33.500         56.67	     8.246
  33.520         54.17	     8.062
  33.540         50.83	     7.810
  33.560         60.83	     8.544
  33.580         44.17	     7.280
  33.600         63.33	     8.718
  33.620         54.17	     8.062
  33.640         45.83	     7.416
  33.660         57.50	     8.307
  33.680         45.83	     7.416
  33.700         48.33	     7.616
  33.720         32.50	     6.245
  33.740         49.17	     7.681
  33.760         43.33	     7.211
  33.780         54.17	     8.062
  33.800         52.50	     7.937
  33.820         55.83	     8.185
  33.840         45.00	     7.348
  33.860         59.17	     8.426
  33.880         45.00	     7.348
  33.900         60.83	     8.544
  33.920         66.67	     8.944
  33.940         55.83	     8.185
  33.960         67.50	     9.000
  33.980         65.83	     8.888
  34.000         53.33	     8.000
  34.020         62.50	     8.660
  34.040         55.00	     8.124
  34.060         58.33	     8.367
  34.080         63.33	     8.718
  34.100         57.50	     8.307
  34.120         64.17	     8.775
  34.140         63.33	     8.718
  34.160         71.67	     9.274
  34.180         58.33	     8.367
  34.200         61.67	     8.602
  34.220         95.83	    10.724
  34.240        108.33	    11.402
  34.260        165.83	    14.107
  34.280        161.67	    13.928
  34.300        131.67	    12.570
  34.320        110.83	    11.533
  34.340        160.83	    13.892
  34.360        153.33	    13.565
  34.380        122.50	    12.124
  34.400         95.83	    10.724
  34.420         97.50	    10.817
  34.440        115.83	    11.790
  34.460         94.17	    10.630
  34.480        108.33	    11.402
  34.500        107.50	    11.358
  34.520         96.67	    10.770
  34.540         97.50	    10.817
  34.560        113.33	    11.662
  34.580        107.50	    11.358
  34.600         88.33	    10.296
  34.620        108.33	    11.402
  34.640         88.33	    10.296
  34.660         91.67	    10.488
  34.680         75.00	     9.487
  34.700         97.50	    10.817
  34.720         90.83	    10.440
  34.740         81.67	     9.899
  34.760         70.83	     9.220
  34.780         70.83	     9.220
  34.800         84.17	    10.050
  34.820         83.33	    10.000
  34.840         76.67	     9.592
  34.860         85.83	    10.149
  34.880        110.83	    11.533
  34.900         97.50	    10.817
  34.920        126.67	    12.329
  34.940        105.83	    11.269
  34.960        123.33	    12.166
  34.980        128.33	    12.410
  35.000         99.17	    10.909
  35.020        122.50	    12.124
  35.040        108.33	    11.402
  35.060        105.83	    11.269
  35.080        124.17	    12.207
  35.100        103.33	    11.136
  35.120        116.67	    11.832
  35.140        110.00	    11.489
  35.160         98.33	    10.863
  35.180        100.83	    11.000
  35.200         95.83	    10.724
  35.220         84.17	    10.050
  35.240         88.33	    10.296
  35.260         82.50	     9.950
  35.280        101.67	    11.045
  35.300         98.33	    10.863
  35.320        100.83	    11.000
  35.340        100.00	    10.954
  35.360         99.17	    10.909
  35.380        120.83	    12.042
  35.400        135.83	    12.767
  35.420        135.83	    12.767
  35.440        166.67	    14.142
  35.460        173.33	    14.422
  35.480        171.67	    14.353
  35.500        226.67	    16.492
  35.520        259.17	    17.635
  35.540        230.83	    16.643
  35.560        235.83	    16.823
  35.580        235.83	    16.823
  35.600        198.33	    15.427
  35.620        211.67	    15.937
  35.640        194.17	    15.264
  35.660        184.17	    14.866
  35.680        139.17	    12.923
  35.700        127.50	    12.369
  35.720        131.67	    12.570
  35.740        104.17	    11.180
  35.760         95.83	    10.724
  35.780         90.00	    10.392
  35.800         95.00	    10.677
  35.820         91.67	    10.488
  35.840         73.33	     9.381
  35.860         63.33	     8.718
  35.880         81.67	     9.899
  35.900         59.17	     8.426
  35.920         65.00	     8.832
  35.940         53.33	     8.000
  35.960         77.50	     9.644
  35.980         81.67	     9.899
  36.000         81.67	     9.899
  36.020         93.33	    10.583
  36.040         86.67	    10.198
  36.060         90.83	    10.440
  36.080        103.33	    11.136
  36.100         98.33	    10.863
  36.120        104.17	    11.180
  36.140        105.83	    11.269
  36.160         86.67	    10.198
  36.180         81.67	     9.899
  36.200         75.83	     9.539
  36.220         65.83	     8.888
  36.240         59.17	     8.426
  36.260         59.17	     8.426
  36.280         61.67	     8.602
  36.300         53.33	     8.000
  36.320         51.67	     7.874
  36.340         69.17	     9.110
  36.360         80.83	     9.849
  36.380         65.83	     8.888
  36.400         74.17	     9.434
  36.420         85.00	    10.100
  36.440        100.00	    10.954
  36.460        100.83	    11.000
  36.480        120.00	    12.000
  36.500        164.17	    14.036
  36.520        191.67	    15.166
  36.540        169.17	    14.248
  36.560        179.17	    14.663
  36.580        151.67	    13.491
  36.600        132.50	    12.610
  36.620        154.17	    13.601
  36.640        126.67	    12.329
  36.660        130.00	    12.490
  36.680        128.33	    12.410
  36.700        106.67	    11.314
  36.720         94.17	    10.630
  36.740        110.83	    11.533
  36.760        113.33	    11.662
  36.780         95.00	    10.677
  36.800         71.67	     9.274
  36.820         92.50	    10.536
  36.840         83.33	    10.000
  36.860         73.33	     9.381
  36.880         67.50	     9.000
  36.900         65.83	     8.888
  36.920         60.00	     8.485
  36.940         78.33	     9.695
  36.960         70.83	     9.220
  36.980         71.67	     9.274
  37.000         70.00	     9.165
  37.020         54.17	     8.062
  37.040         54.17	     8.062
  37.060         65.83	     8.888
  37.080         71.67	     9.274
  37.100         85.83	    10.149
  37.120         85.00	    10.100
  37.140         80.00	     9.798
  37.160         77.50	     9.644
  37.180        102.50	    11.091
  37.200         76.67	     9.592
  37.220         92.50	    10.536
  37.240         74.17	     9.434
  37.260         90.00	    10.392
  37.280         83.33	    10.000
  37.300         73.33	     9.381
  37.320         85.00	    10.100
  37.340         80.83	     9.849
  37.360         77.50	     9.644
  37.380         87.50	    10.247
  37.400        100.00	    10.954
  37.420         93.33	    10.583
  37.440         80.83	     9.849
  37.460         79.17	     9.747
  37.480         79.17	     9.747
  37.500         95.00	    10.677
  37.520         86.67	    10.198
  37.540         76.67	     9.592
  37.560         78.33	     9.695
  37.580         73.33	     9.381
  37.600         94.17	    10.630
  37.620         78.33	     9.695
  37.640         87.50	    10.247
  37.660         76.67	     9.592
  37.680         95.00	    10.677
  37.700        103.33	    11.136
  37.720         88.33	    10.296
  37.740        100.83	    11.000
  37.760         86.67	    10.198
  37.780         81.67	     9.899
  37.800         75.83	     9.539
  37.820         73.33	     9.381
  37.840         55.83	     8.185
  37.860         67.50	     9.000
  37.880         65.00	     8.832
  37.900         53.33	     8.000
  37.920         51.67	     7.874
  37.940         51.67	     7.874
  37.960         47.50	     7.550
  37.980         54.17	     8.062
  38.000         50.83	     7.810
  38.020         40.83	     7.000
  38.040         44.17	     7.280
  38.060         42.50	     7.141
  38.080         40.00	     6.928
  38.100         45.83	     7.416
  38.120         36.67	     6.633
  38.140         40.83	     7.000
  38.160         43.33	     7.211
  38.180         37.50	     6.708
  38.200         46.67	     7.483
  38.220         50.00	     7.746
  38.240         57.50	     8.307
  38.260         56.67	     8.246
  38.280         47.50	     7.550
  38.300         50.83	     7.810
  38.320         38.33	     6.782
  38.340         40.83	     7.000
  38.360         57.50	     8.307
  38.380         50.00	     7.746
  38.400         35.00	     6.481
  38.420         42.50	     7.141
  38.440         55.83	     8.185
  38.460         47.50	     7.550
  38.480         51.67	     7.874
  38.500         60.00	     8.485
  38.520         54.17	     8.062
  38.540         51.67	     7.874
  38.560         54.17	     8.062
  38.580         54.17	     8.062
  38.600         48.33	     7.616
  38.620         47.50	     7.550
  38.640         57.50	     8.307
  38.660         42.50	     7.141
  38.680         51.67	     7.874
  38.700         45.00	     7.348
  38.720         53.33	     8.000
  38.740         53.33	     8.000
  38.760         55.83	     8.185
  38.780         55.00	     8.124
  38.800         62.50	     8.660
  38.820         53.33	     8.000
  38.840         65.00	     8.832
  38.860         53.33	     8.000
  38.880         55.83	     8.185
  38.900         41.67	     7.071
  38.920         53.33	     8.000
  38.940         63.33	     8.718
  38.960         55.00	     8.124
  38.980         61.67	     8.602
  39.000         50.00	     7.746
  39.020         51.67	     7.874
  39.040         66.67	     8.944
  39.060         55.00	     8.124
  39.080         61.67	     8.602
  39.100         72.50	     9.327
  39.120         48.33	     7.616
  39.140         45.00	     7.348
  39.160         42.50	     7.141
  39.180         57.50	     8.307
  39.200         49.17	     7.681
  39.220         40.00	     6.928
  39.240         45.83	     7.416
  39.260         56.67	     8.246
  39.280         59.17	     8.426
  39.300         38.33	     6.782
  39.320         49.17	     7.681
  39.340         39.17	     6.856
  39.360         69.17	     9.110
  39.380         52.50	     7.937
  39.400         67.50	     9.000
  39.420         79.17	     9.747
  39.440        101.67	    11.045
  39.460        106.67	    11.314
  39.480        101.67	    11.045
  39.500        105.83	    11.269
  39.520         90.00	    10.392
  39.540         96.67	    10.770
  39.560         95.00	    10.677
  39.580        100.83	    11.000
  39.600         95.00	    10.677
  39.620         69.17	     9.110
  39.640         75.83	     9.539
  39.660         58.33	     8.367
  39.680         66.67	     8.944
  39.700         60.83	     8.544
  39.720         69.17	     9.110
  39.740         52.50	     7.937
  39.760         52.50	     7.937
  39.780         53.33	     8.000
  39.800         60.00	     8.485
  39.820         60.00	     8.485
  39.840         56.67	     8.246
  39.860         46.67	     7.483
  39.880         55.00	     8.124
  39.900         52.50	     7.937
  39.920         58.33	     8.367
  39.940         79.17	     9.747
  39.960         72.50	     9.327
  39.980         57.50	     8.307
  40.000         59.17	     8.426
  40.020         60.00	     8.485
  40.040         57.50	     8.307
  40.060         49.17	     7.681
  40.080         60.83	     8.544
  40.100         50.00	     7.746
  40.120         46.67	     7.483
  40.140         55.00	     8.124
  40.160         41.67	     7.071
  40.180         54.17	     8.062
  40.200         57.50	     8.307
  40.220         60.00	     8.485
  40.240         76.67	     9.592
  40.260         75.83	     9.539
  40.280        101.67	    11.045
  40.300         90.00	    10.392
  40.320         95.00	    10.677
  40.340         74.17	     9.434
  40.360         66.67	     8.944
  40.380         85.83	    10.149
  40.400         70.00	     9.165
  40.420         66.67	     8.944
  40.440         55.83	     8.185
  40.460         76.67	     9.592
  40.480         71.67	     9.274
  40.500         61.67	     8.602
  40.520         64.17	     8.775
  40.540         51.67	     7.874
  40.560         53.33	     8.000
  40.580         55.00	     8.124
  40.600         59.17	     8.426
  40.620         49.17	     7.681
  40.640         62.50	     8.660
  40.660         51.67	     7.874
  40.680         45.83	     7.416
  40.700         55.00	     8.124
  40.720         56.67	     8.246
  40.740         61.67	     8.602
  40.760         51.67	     7.874
  40.780         55.00	     8.124
  40.800         50.83	     7.810
  40.820         63.33	     8.718
  40.840         58.33	     8.367
  40.860         68.33	     9.055
  40.880         53.33	     8.000
  40.900         55.83	     8.185
  40.920         60.83	     8.544
  40.940         60.00	     8.485
  40.960         75.83	     9.539
  40.980         68.33	     9.055
  41.000         44.17	     7.280
  41.020         64.17	     8.775
  41.040         65.83	     8.888
  41.060         64.17	     8.775
  41.080         50.00	     7.746
  41.100         42.50	     7.141
  41.120         60.83	     8.544
  41.140         65.83	     8.888
  41.160         65.00	     8.832
  41.180         77.50	     9.644
  41.200         72.50	     9.327
  41.220         61.67	     8.602
  41.240         69.17	     9.110
  41.260         62.50	     8.660
  41.280         63.33	     8.718
  41.300         64.17	     8.775
  41.320         60.00	     8.485
  41.340         61.67	     8.602
  41.360         58.33	     8.367
  41.380         70.00	     9.165
  41.400         49.17	     7.681
  41.420         54.17	     8.062
  41.440         60.00	     8.485
  41.460         69.17	     9.110
  41.480         53.33	     8.000
  41.500         69.17	     9.110
  41.520         59.17	     8.426
  41.540         82.50	     9.950
  41.560         61.67	     8.602
  41.580         78.33	     9.695
  41.600         87.50	    10.247
  41.620         93.33	    10.583
  41.640        118.33	    11.916
  41.660        117.50	    11.874
  41.680        118.33	    11.916
  41.700        127.50	    12.369
  41.720        105.83	    11.269
  41.740        100.83	    11.000
  41.760        117.50	    11.874
  41.780        100.83	    11.000
  41.800        100.83	    11.000
  41.820         98.33	    10.863
  41.840        101.67	    11.045
  41.860         92.50	    10.536
  41.880         90.83	    10.440
  41.900         95.83	    10.724
  41.920        103.33	    11.136
  41.940         99.17	    10.909
  41.960        103.33	    11.136
  41.980         99.17	    10.909
  42.000         99.17	    10.909
  42.020         75.83	     9.539
  42.040         81.67	     9.899
  42.060         83.33	    10.000
  42.080         80.83	     9.849
  42.100         85.83	    10.149
  42.120         67.50	     9.000
  42.140         78.33	     9.695
  42.160         73.33	     9.381
  42.180         63.33	     8.718
  42.200         70.83	     9.220
  42.220         73.33	     9.381
  42.240         75.83	     9.539
  42.260         60.83	     8.544
  42.280         72.50	     9.327
  42.300         69.17	     9.110
  42.320         84.17	    10.050
  42.340         81.67	     9.899
  42.360         94.17	    10.630
  42.380        100.83	    11.000
  42.400        149.17	    13.379
  42.420        181.67	    14.765
  42.440        218.33	    16.186
  42.460        212.50	    15.969
  42.480        168.33	    14.213
  42.500        151.67	    13.491
  42.520        153.33	    13.565
  42.540        157.50	    13.748
  42.560        142.50	    13.077
  42.580        115.00	    11.747
  42.600        112.50	    11.619
  42.620         85.83	    10.149
  42.640         75.83	     9.539
  42.660         61.67	     8.602
  42.680         78.33	     9.695
  42.700         66.67	     8.944
  42.720         72.50	     9.327
  42.740         62.50	     8.660
  42.760         65.83	     8.888
  42.780         70.83	     9.220
  42.800         65.83	     8.888
  42.820         58.33	     8.367
  42.840         75.83	     9.539
  42.860         75.00	     9.487
  42.880         55.83	     8.185
  42.900         93.33	    10.583
  42.920         79.17	     9.747
  42.940         80.83	     9.849
  42.960         89.17	    10.344
  42.980         74.17	     9.434
  43.000         93.33	    10.583
  43.020         68.33	     9.055
  43.040         99.17	    10.909
  43.060         75.83	     9.539
  43.080         89.17	    10.344
  43.100         91.67	    10.488
  43.120         99.17	    10.909
  43.140         83.33	    10.000
  43.160        100.00	    10.954
  43.180         97.50	    10.817
  43.200        120.83	    12.042
  43.220        130.00	    12.490
  43.240        125.83	    12.288
  43.260        130.00	    12.490
  43.280        130.00	    12.490
  43.300        145.83	    13.229
  43.320        146.67	    13.266
  43.340        156.67	    13.711
  43.360        160.00	    13.856
  43.380        150.83	    13.454
  43.400        182.50	    14.799
  43.420        181.67	    14.765
  43.440        191.67	    15.166
  43.460        230.00	    16.613
  43.480        175.83	    14.526
  43.500        200.00	    15.492
  43.520        220.00	    16.248
  43.540        206.67	    15.748
  43.560        190.00	    15.100
  43.580        189.17	    15.067
  43.600        197.50	    15.395
  43.620        213.33	    16.000
  43.640        191.67	    15.166
  43.660        179.17	    14.663
  43.680        186.67	    14.967
  43.700        145.00	    13.191
  43.720        147.50	    13.304
  43.740        140.00	    12.961
  43.760        149.17	    13.379
  43.780        125.00	    12.247
  43.800        118.33	    11.916
  43.820        110.83	    11.533
  43.840         98.33	    10.863
  43.860         93.33	    10.583
  43.880         90.83	    10.440
  43.900        104.17	    11.180
  43.920         85.83	    10.149
  43.940         99.17	    10.909
  43.960         91.67	    10.488
  43.980         89.17	    10.344
  44.000         62.50	     8.660
  44.020         84.17	    10.050
  44.040         68.33	     9.055
  44.060         75.83	     9.539
  44.080         56.67	     8.246
  44.100         66.67	     8.944
  44.120         60.83	     8.544
  44.140         62.50	     8.660
  44.160         85.00	    10.100
  44.180         80.00	     9.798
  44.200         81.67	     9.899
  44.220         74.17	     9.434
  44.240         78.33	     9.695
  44.260         65.00	     8.832
  44.280         77.50	     9.644
  44.300         95.83	    10.724
  44.320         82.50	     9.950
  44.340         76.67	     9.592
  44.360         72.50	     9.327
  44.380         64.17	     8.775
  44.400         78.33	     9.695
  44.420         77.50	     9.644
  44.440         70.00	     9.165
  44.460         69.17	     9.110
  44.480         55.83	     8.185
  44.500         60.00	     8.485
  44.520         58.33	     8.367
  44.540         53.33	     8.000
  44.560         56.67	     8.246
  44.580         58.33	     8.367
  44.600         66.67	     8.944
  44.620         51.67	     7.874
  44.640         54.17	     8.062
  44.660         49.17	     7.681
  44.680         62.50	     8.660
  44.700         55.00	     8.124
  44.720         65.00	     8.832
  44.740         58.33	     8.367
  44.760         62.50	     8.660
  44.780         69.17	     9.110
  44.800         52.50	     7.937
  44.820         67.50	     9.000
  44.840         64.17	     8.775
  44.860         68.33	     9.055
  44.880         70.83	     9.220
  44.900         64.17	     8.775
  44.920         80.00	     9.798
  44.940         80.83	     9.849
  44.960         68.33	     9.055
  44.980         85.00	    10.100
  45.000         83.33	    10.000
  45.020         70.83	     9.220
  45.040         78.33	     9.695
  45.060         62.50	     8.660
  45.080         66.67	     8.944
  45.100         74.17	     9.434
  45.120         82.50	     9.950
  45.140         80.83	     9.849
  45.160         76.67	     9.592
  45.180         81.67	     9.899
  45.200         67.50	     9.000
  45.220         82.50	     9.950
  45.240         57.50	     8.307
  45.260         77.50	     9.644
  45.280         66.67	     8.944
  45.300         84.17	    10.050
  45.320         74.17	     9.434
  45.340         76.67	     9.592
  45.360         85.83	    10.149
  45.380         86.67	    10.198
  45.400        103.33	    11.136
  45.420        124.17	    12.207
  45.440        136.67	    12.806
  45.460        161.67	    13.928
  45.480        199.17	    15.460
  45.500        207.50	    15.780
  45.520        240.00	    16.971
  45.540        275.83	    18.193
  45.560        280.00	    18.330
  45.580        222.50	    16.340
  45.600        241.67	    17.029
  45.620        265.00	    17.833
  45.640        264.17	    17.804
  45.660        268.33	    17.944
  45.680        257.50	    17.578
  45.700        189.17	    15.067
  45.720        185.83	    14.933
  45.740        200.83	    15.524
  45.760        178.33	    14.629
  45.780        225.00	    16.432
  45.800        289.17	    18.628
  45.820        247.50	    17.234
  45.840        180.83	    14.731
  45.860        126.67	    12.329
  45.880        102.50	    11.091
  45.900        131.67	    12.570
  45.920        140.00	    12.961
  45.940        155.00	    13.638
  45.960        118.33	    11.916
  45.980         77.50	     9.644
  46.000         61.67	     8.602
  46.020         65.83	     8.888
  46.040         56.67	     8.246
  46.060         55.83	     8.185
  46.080         57.50	     8.307
  46.100         60.83	     8.544
  46.120         47.50	     7.550
  46.140         54.17	     8.062
  46.160         56.67	     8.246
  46.180         44.17	     7.280
  46.200         45.83	     7.416
  46.220         45.83	     7.416
  46.240         44.17	     7.280
  46.260         40.83	     7.000
  46.280         48.33	     7.616
  46.300         38.33	     6.782
  46.320         55.83	     8.185
  46.340         43.33	     7.211
  46.360         38.33	     6.782
  46.380         41.67	     7.071
  46.400         41.67	     7.071
  46.420         40.00	     6.928
  46.440         37.50	     6.708
  46.460         50.00	     7.746
  46.480         45.00	     7.348
  46.500         46.67	     7.483
  46.520         48.33	     7.616
  46.540         47.50	     7.550
  46.560         46.67	     7.483
  46.580         51.67	     7.874
  46.600         44.17	     7.280
  46.620         57.50	     8.307
  46.640         40.00	     6.928
  46.660         40.83	     7.000
  46.680         55.00	     8.124
  46.700         47.50	     7.550
  46.720         45.00	     7.348
  46.740         40.00	     6.928
  46.760         43.33	     7.211
  46.780         38.33	     6.782
  46.800         50.00	     7.746
  46.820         45.00	     7.348
  46.840         55.83	     8.185
  46.860         40.83	     7.000
  46.880         34.17	     6.403
  46.900         40.00	     6.928
  46.920         35.83	     6.557
  46.940         34.17	     6.403
  46.960         41.67	     7.071
  46.980         51.67	     7.874
  47.000         46.67	     7.483
  47.020         56.67	     8.246
  47.040         50.83	     7.810
  47.060         49.17	     7.681
  47.080         58.33	     8.367
  47.100         49.17	     7.681
  47.120         73.33	     9.381
  47.140         75.00	     9.487
  47.160         64.17	     8.775
  47.180         70.00	     9.165
  47.200         58.33	     8.367
  47.220         63.33	     8.718
  47.240         46.67	     7.483
  47.260         72.50	     9.327
  47.280         50.00	     7.746
  47.300         44.17	     7.280
  47.320         50.83	     7.810
  47.340         34.17	     6.403
  47.360         43.33	     7.211
  47.380         52.50	     7.937
  47.400         59.17	     8.426
  47.420         42.50	     7.141
  47.440         39.17	     6.856
  47.460         28.33	     5.831
  47.480         39.17	     6.856
  47.500         50.83	     7.810
  47.520         40.00	     6.928
  47.540         40.83	     7.000
  47.560         30.83	     6.083
  47.580         37.50	     6.708
  47.600         38.33	     6.782
  47.620         37.50	     6.708
  47.640         40.83	     7.000
  47.660         38.33	     6.782
  47.680         29.17	     5.916
  47.700         38.33	     6.782
  47.720         25.83	     5.568
  47.740         37.50	     6.708
  47.760         37.50	     6.708
  47.780         32.50	     6.245
  47.800         38.33	     6.782
  47.820         33.33	     6.325
  47.840         51.67	     7.874
  47.860         36.67	     6.633
  47.880         43.33	     7.211
  47.900         40.00	     6.928
  47.920         53.33	     8.000
  47.940         44.17	     7.280
  47.960         40.83	     7.000
  47.980         48.33	     7.616
  48.000         47.50	     7.550
  48.020         41.67	     7.071
  48.040         51.67	     7.874
  48.060         61.67	     8.602
  48.080         51.67	     7.874
  48.100         56.67	     8.246
  48.120         58.33	     8.367
  48.140         63.33	     8.718
  48.160         74.17	     9.434
  48.180         74.17	     9.434
  48.200         56.67	     8.246
  48.220         53.33	     8.000
  48.240         57.50	     8.307
  48.260         58.33	     8.367
  48.280         45.00	     7.348
  48.300         54.17	     8.062
  48.320         67.50	     9.000
  48.340         45.00	     7.348
  48.360         47.50	     7.550
  48.380         40.00	     6.928
  48.400         59.17	     8.426
  48.420         56.67	     8.246
  48.440         51.67	     7.874
  48.460         64.17	     8.775
  48.480         54.17	     8.062
  48.500         55.00	     8.124
  48.520         46.67	     7.483
  48.540         33.33	     6.325
  48.560         54.17	     8.062
  48.580         43.33	     7.211
  48.600         43.33	     7.211
  48.620         50.83	     7.810
  48.640         68.33	     9.055
  48.660         55.00	     8.124
  48.680         48.33	     7.616
  48.700         54.17	     8.062
  48.720         60.83	     8.544
  48.740         41.67	     7.071
  48.760         50.83	     7.810
  48.780         48.33	     7.616
  48.800         45.00	     7.348
  48.820         35.00	     6.481
  48.840         57.50	     8.307
  48.860         52.50	     7.937
  48.880         50.83	     7.810
  48.900         44.17	     7.280
  48.920         46.67	     7.483
  48.940         45.83	     7.416
  48.960         42.50	     7.141
  48.980         40.00	     6.928
  49.000         50.83	     7.810
  49.020         49.17	     7.681
  49.040         41.67	     7.071
  49.060         54.17	     8.062
  49.080         48.33	     7.616
  49.100         54.17	     8.062
  49.120         53.33	     8.000
  49.140         81.67	     9.899
  49.160         84.17	    10.050
  49.180         85.00	    10.100
  49.200         61.67	     8.602
  49.220         70.83	     9.220
  49.240         87.50	    10.247
  49.260         73.33	     9.381
  49.280         75.83	     9.539
  49.300         68.33	     9.055
  49.320         80.83	     9.849
  49.340         65.83	     8.888
  49.360         44.17	     7.280
  49.380         51.67	     7.874
  49.400         55.83	     8.185
  49.420         60.83	     8.544
  49.440         52.50	     7.937
  49.460         46.67	     7.483
  49.480         45.00	     7.348
  49.500         51.67	     7.874
  49.520         70.00	     9.165
  49.540         75.83	     9.539
  49.560         78.33	     9.695
  49.580        114.17	    11.705
  49.600        108.33	    11.402
  49.620        105.00	    11.225
  49.640         72.50	     9.327
  49.660         61.67	     8.602
  49.680         79.17	     9.747
  49.700         85.83	    10.149
  49.720         84.17	    10.050
  49.740         96.67	    10.770
  49.760         86.67	    10.198
  49.780         67.50	     9.000
  49.800         73.33	     9.381
  49.820         73.33	     9.381
  49.840         95.00	    10.677
  49.860        100.83	    11.000
  49.880         93.33	    10.583
  49.900         96.67	    10.770
  49.920        127.50	    12.369
  49.940        136.67	    12.806
  49.960        142.50	    13.077
  49.980        118.33	    11.916
  50.000        115.83	    11.790
  50.020        128.33	    12.410
  50.040        113.33	    11.662
  50.060        175.83	    14.526
  50.080        199.17	    15.460
  50.100        239.17	    16.941
  50.120        239.17	    16.941
  50.140        288.33	    18.601
  50.160        221.67	    16.310
  50.180        184.17	    14.866
  50.200        176.67	    14.560
  50.220        151.67	    13.491
  50.240        194.17	    15.264
  50.260        180.83	    14.731
  50.280        173.33	    14.422
  50.300        133.33	    12.649
  50.320        130.83	    12.530
  50.340        102.50	    11.091
  50.360         85.00	    10.100
  50.380         91.67	    10.488
  50.400         82.50	     9.950
  50.420         94.17	    10.630
  50.440         75.83	     9.539
  50.460         81.67	     9.899
  50.480         85.83	    10.149
  50.500         75.00	     9.487
  50.520         75.00	     9.487
  50.540         80.83	     9.849
  50.560         95.83	    10.724
  50.580         85.00	    10.100
  50.600        110.83	    11.533
  50.620         89.17	    10.344
  50.640         92.50	    10.536
  50.660         74.17	     9.434
  50.680         85.00	    10.100
  50.700         69.17	     9.110
  50.720         64.17	     8.775
  50.740         69.17	     9.110
  50.760         60.00	     8.485
  50.780         69.17	     9.110
  50.800         64.17	     8.775
  50.820         62.50	     8.660
  50.840         63.33	     8.718
  50.860         55.00	     8.124
  50.880         57.50	     8.307
  50.900         57.50	     8.307
  50.920         45.00	     7.348
  50.940         45.00	     7.348
  50.960         49.17	     7.681
  50.980         48.33	     7.616
  51.000         49.17	     7.681
  51.020         53.33	     8.000
  51.040         61.67	     8.602
  51.060         55.00	     8.124
  51.080         58.33	     8.367
  51.100         60.83	     8.544
  51.120         71.67	     9.274
  51.140         70.83	     9.220
  51.160         85.83	    10.149
  51.180         67.50	     9.000
  51.200         82.50	     9.950
  51.220         68.33	     9.055
  51.240         74.17	     9.434
  51.260         72.50	     9.327
  51.280         73.33	     9.381
  51.300         57.50	     8.307
  51.320         56.67	     8.246
  51.340         60.00	     8.485
  51.360         62.50	     8.660
  51.380         55.83	     8.185
  51.400         65.83	     8.888
  51.420         49.17	     7.681
  51.440         55.00	     8.124
  51.460         51.67	     7.874
  51.480         60.00	     8.485
  51.500         49.17	     7.681
  51.520         43.33	     7.211
  51.540         52.50	     7.937
  51.560         37.50	     6.708
  51.580         40.00	     6.928
  51.600         38.33	     6.782
  51.620         43.33	     7.211
  51.640         36.67	     6.633
  51.660         38.33	     6.782
  51.680         35.00	     6.481
  51.700         35.00	     6.481
  51.720         33.33	     6.325
  51.740         44.17	     7.280
  51.760         38.33	     6.782
  51.780         34.17	     6.403
  51.800         36.67	     6.633
  51.820         39.17	     6.856
  51.840         30.83	     6.083
  51.860         40.83	     7.000
  51.880         38.33	     6.782
  51.900         35.83	     6.557
  51.920         35.00	     6.481
  51.940         43.33	     7.211
  51.960         46.67	     7.483
  51.980         40.83	     7.000
  52.000         42.50	     7.141
  52.020         43.33	     7.211
  52.040         47.50	     7.550
  52.060         59.17	     8.426
  52.080         72.50	     9.327
  52.100         47.50	     7.550
  52.120         80.83	     9.849
  52.140         81.67	     9.899
  52.160        118.33	    11.916
  52.180        130.83	    12.530
  52.200        107.50	    11.358
  52.220         77.50	     9.644
  52.240         61.67	     8.602
  52.260         64.17	     8.775
  52.280         78.33	     9.695
  52.300         76.67	     9.592
  52.320         68.33	     9.055
  52.340         71.67	     9.274
  52.360         83.33	    10.000
  52.380         55.83	     8.185
  52.400         72.50	     9.327
  52.420         60.83	     8.544
  52.440         52.50	     7.937
  52.460         42.50	     7.141
  52.480         59.17	     8.426
  52.500         60.83	     8.544
  52.520         45.00	     7.348
  52.540         59.17	     8.426
  52.560         57.50	     8.307
  52.580         60.83	     8.544
  52.600         53.33	     8.000
  52.620         56.67	     8.246
  52.640         55.83	     8.185
  52.660         60.00	     8.485
  52.680         58.33	     8.367
  52.700         51.67	     7.874
  52.720         40.83	     7.000
  52.740         50.83	     7.810
  52.760         45.83	     7.416
  52.780         50.83	     7.810
  52.800         40.83	     7.000
  52.820         40.83	     7.000
  52.840         51.67	     7.874
  52.860         35.00	     6.481
  52.880         53.33	     8.000
  52.900         46.67	     7.483
  52.920         48.33	     7.616
  52.940         46.67	     7.483
  52.960         55.83	     8.185
  52.980         48.33	     7.616
  53.000         76.67	     9.592
  53.020         55.00	     8.124
  53.040         59.17	     8.426
  53.060         53.33	     8.000
  53.080         59.17	     8.426
  53.100         45.00	     7.348
  53.120         50.00	     7.746
  53.140         60.83	     8.544
  53.160         45.00	     7.348
  53.180         50.00	     7.746
  53.200         51.67	     7.874
  53.220         49.17	     7.681
  53.240         48.33	     7.616
  53.260         45.83	     7.416
  53.280         45.00	     7.348
  53.300         58.33	     8.367
  53.320         57.50	     8.307
  53.340         45.83	     7.416
  53.360         40.83	     7.000
  53.380         45.00	     7.348
  53.400         45.83	     7.416
  53.420         50.00	     7.746
  53.440         54.17	     8.062
  53.460         45.83	     7.416
  53.480         40.83	     7.000
  53.500         40.83	     7.000
  53.520         45.00	     7.348
  53.540         44.17	     7.280
  53.560         32.50	     6.245
  53.580         34.17	     6.403
  53.600         38.33	     6.782
  53.620         39.17	     6.856
  53.640         47.50	     7.550
  53.660         30.83	     6.083
  53.680         53.33	     8.000
  53.700         50.83	     7.810
  53.720         44.17	     7.280
  53.740         45.00	     7.348
  53.760         41.67	     7.071
  53.780         47.50	     7.550
  53.800         41.67	     7.071
  53.820         36.67	     6.633
  53.840         50.83	     7.810
  53.860         40.83	     7.000
  53.880         50.83	     7.810
  53.900         55.83	     8.185
  53.920         42.50	     7.141
  53.940         50.00	     7.746
  53.960         31.67	     6.164
  53.980         44.17	     7.280
  54.000         42.50	     7.141
  54.020         47.50	     7.550
  54.040         40.00	     6.928
  54.060         37.50	     6.708
  54.080         32.50	     6.245
  54.100         45.00	     7.348
  54.120         51.67	     7.874
  54.140         35.83	     6.557
  54.160         40.00	     6.928
  54.180         40.00	     6.928
  54.200         39.17	     6.856
  54.220         34.17	     6.403
  54.240         43.33	     7.211
  54.260         42.50	     7.141
  54.280         47.50	     7.550
  54.300         49.17	     7.681
  54.320         46.67	     7.483
  54.340         55.00	     8.124
  54.360         43.33	     7.211
  54.380         55.00	     8.124
  54.400         41.67	     7.071
  54.420         45.83	     7.416
  54.440         45.00	     7.348
  54.460         45.00	     7.348
  54.480         56.67	     8.246
  54.500         37.50	     6.708
  54.520         36.67	     6.633
  54.540         37.50	     6.708
  54.560         53.33	     8.000
  54.580         38.33	     6.782
  54.600         43.33	     7.211
  54.620         50.00	     7.746
  54.640         57.50	     8.307
  54.660         51.67	     7.874
  54.680         45.00	     7.348
  54.700         53.33	     8.000
  54.720         49.17	     7.681
  54.740         55.83	     8.185
  54.760         65.83	     8.888
  54.780         67.50	     9.000
  54.800         71.67	     9.274
  54.820         92.50	    10.536
  54.840        119.17	    11.958
  54.860        117.50	    11.874
  54.880        125.00	    12.247
  54.900        147.50	    13.304
  54.920        174.17	    14.457
  54.940        186.67	    14.967
  54.960        197.50	    15.395
  54.980        172.50	    14.387
  55.000        134.17	    12.689
  55.020        115.83	    11.790
  55.040        114.17	    11.705
  55.060        119.17	    11.958
  55.080        122.50	    12.124
  55.100        117.50	    11.874
  55.120        102.50	    11.091
  55.140         90.83	    10.440
  55.160         70.00	     9.165
  55.180         78.33	     9.695
  55.200         67.50	     9.000
  55.220         65.00	     8.832
  55.240         68.33	     9.055
  55.260         60.83	     8.544
  55.280         61.67	     8.602
  55.300         69.17	     9.110
  55.320         61.67	     8.602
  55.340         58.33	     8.367
  55.360         61.67	     8.602
  55.380         60.00	     8.485
  55.400         49.17	     7.681
  55.420         54.17	     8.062
  55.440         50.83	     7.810
  55.460         48.33	     7.616
  55.480         51.67	     7.874
  55.500         54.17	     8.062
  55.520         43.33	     7.211
  55.540         43.33	     7.211
  55.560         55.00	     8.124
  55.580         58.33	     8.367
  55.600         68.33	     9.055
  55.620         61.67	     8.602
  55.640         54.17	     8.062
  55.660         65.00	     8.832
  55.680         78.33	     9.695
  55.700         85.00	    10.100
  55.720        101.67	    11.045
  55.740        117.50	    11.874
  55.760        125.00	    12.247
  55.780         99.17	    10.909
  55.800         80.00	     9.798
  55.820         83.33	    10.000
  55.840         99.17	    10.909
  55.860         97.50	    10.817
  55.880        115.83	    11.790
  55.900        116.67	    11.832
  55.920         95.83	    10.724
  55.940         75.83	     9.539
  55.960         76.67	     9.592
  55.980         80.83	     9.849
  56.000         81.67	     9.899
  56.020         66.67	     8.944
  56.040         77.50	     9.644
  56.060         58.33	     8.367
  56.080         46.67	     7.483
  56.100         45.00	     7.348
  56.120         58.33	     8.367
  56.140         53.33	     8.000
  56.160         55.00	     8.124
  56.180         56.67	     8.246
  56.200         50.83	     7.810
  56.220         47.50	     7.550
  56.240         43.33	     7.211
  56.260         45.83	     7.416
  56.280         53.33	     8.000
  56.300         47.50	     7.550
  56.320         40.83	     7.000
  56.340         40.83	     7.000
  56.360         36.67	     6.633
  56.380         41.67	     7.071
  56.400         35.00	     6.481
  56.420         38.33	     6.782
  56.440         33.33	     6.325
  56.460         36.67	     6.633
  56.480         35.00	     6.481
  56.500         34.17	     6.403
  56.520         55.00	     8.124
  56.540         44.17	     7.280
  56.560         45.00	     7.348
  56.580         50.00	     7.746
  56.600         45.00	     7.348
  56.620         51.67	     7.874
  56.640         39.17	     6.856
  56.660         42.50	     7.141
  56.680         50.83	     7.810
  56.700         47.50	     7.550
  56.720         49.17	     7.681
  56.740         38.33	     6.782
  56.760         55.00	     8.124
  56.780         39.17	     6.856
  56.800         55.00	     8.124
  56.820         47.50	     7.550
  56.840         47.50	     7.550
  56.860         42.50	     7.141
  56.880         45.00	     7.348
  56.900         42.50	     7.141
  56.920         54.17	     8.062
  56.940         52.50	     7.937
  56.960         47.50	     7.550
  56.980         39.17	     6.856
  57.000         50.83	     7.810
  57.020         43.33	     7.211
  57.040         50.83	     7.810
  57.060         45.83	     7.416
  57.080         40.00	     6.928
  57.100         35.00	     6.481
  57.120         46.67	     7.483
  57.140         33.33	     6.325
  57.160         47.50	     7.550
  57.180         48.33	     7.616
  57.200         42.50	     7.141
  57.220         40.83	     7.000
  57.240         36.67	     6.633
  57.260         48.33	     7.616
  57.280         35.83	     6.557
  57.300         43.33	     7.211
  57.320         34.17	     6.403
  57.340         35.83	     6.557
  57.360         42.50	     7.141
  57.380         41.67	     7.071
  57.400         33.33	     6.325
  57.420         35.00	     6.481
  57.440         36.67	     6.633
  57.460         46.67	     7.483
  57.480         44.17	     7.280
  57.500         37.50	     6.708
  57.520         35.83	     6.557
  57.540         37.50	     6.708
  57.560         37.50	     6.708
  57.580         32.50	     6.245
  57.600         40.83	     7.000
  57.620         41.67	     7.071
  57.640         49.17	     7.681
  57.660         47.50	     7.550
  57.680         31.67	     6.164
  57.700         40.00	     6.928
  57.720         41.67	     7.071
  57.740         33.33	     6.325
  57.760         43.33	     7.211
  57.780         44.17	     7.280
  57.800         48.33	     7.616
  57.820         50.00	     7.746
  57.840         50.83	     7.810
  57.860         53.33	     8.000
  57.880         35.00	     6.481
  57.900         50.00	     7.746
  57.920         30.00	     6.000
  57.940         31.67	     6.164
  57.960         43.33	     7.211
  57.980         38.33	     6.782
  58.000         44.17	     7.280
  58.020         49.17	     7.681
  58.040         43.33	     7.211
  58.060         34.17	     6.403
  58.080         30.83	     6.083
  58.100         40.83	     7.000
  58.120         46.67	     7.483
  58.140         42.50	     7.141
  58.160         41.67	     7.071
  58.180         54.17	     8.062
  58.200         40.83	     7.000
  58.220         46.67	     7.483
  58.240         40.83	     7.000
  58.260         41.67	     7.071
  58.280         56.67	     8.246
  58.300         56.67	     8.246
  58.320         60.00	     8.485
  58.340         61.67	     8.602
  58.360         60.83	     8.544
  58.380         52.50	     7.937
  58.400         54.17	     8.062
  58.420         51.67	     7.874
  58.440         57.50	     8.307
  58.460         55.00	     8.124
  58.480         58.33	     8.367
  58.500         61.67	     8.602
  58.520         60.00	     8.485
  58.540         78.33	     9.695
  58.560         58.33	     8.367
  58.580         62.50	     8.660
  58.600         58.33	     8.367
  58.620         59.17	     8.426
  58.640         59.17	     8.426
  58.660         72.50	     9.327
  58.680         60.00	     8.485
  58.700         50.83	     7.810
  58.720         58.33	     8.367
  58.740         63.33	     8.718
  58.760         62.50	     8.660
  58.780         50.83	     7.810
  58.800         54.17	     8.062
  58.820         59.17	     8.426
  58.840         57.50	     8.307
  58.860         64.17	     8.775
  58.880         75.00	     9.487
  58.900         64.17	     8.775
  58.920         59.17	     8.426
  58.940         59.17	     8.426
  58.960         59.17	     8.426
  58.980         66.67	     8.944
  59.000         55.00	     8.124
  59.020         78.33	     9.695
  59.040         69.17	     9.110
  59.060         67.50	     9.000
  59.080         52.50	     7.937
  59.100         74.17	     9.434
  59.120         71.67	     9.274
  59.140         79.17	     9.747
  59.160         79.17	     9.747
  59.180         80.00	     9.798
  59.200         64.17	     8.775
  59.220         57.50	     8.307
  59.240         80.00	     9.798
  59.260         64.17	     8.775
  59.280         58.33	     8.367
  59.300         68.33	     9.055
  59.320         60.00	     8.485
  59.340         56.67	     8.246
  59.360         65.83	     8.888
  59.380         64.17	     8.775
  59.400         63.33	     8.718
  59.420         66.67	     8.944
  59.440         66.67	     8.944
  59.460         75.83	     9.539
  59.480         75.83	     9.539
  59.500         65.00	     8.832
  59.520         52.50	     7.937
  59.540         55.00	     8.124
  59.560         51.67	     7.874
  59.580         65.00	     8.832
  59.600         59.17	     8.426
  59.620         75.00	     9.487
  59.640         50.83	     7.810
  59.660         52.50	     7.937
  59.680         45.00	     7.348
  59.700         54.17	     8.062
  59.720         49.17	     7.681
  59.740         52.50	     7.937
  59.760         50.00	     7.746
  59.780         58.33	     8.367
  59.800         81.67	     9.899
  59.820         82.50	     9.950
  59.840        100.83	    11.000
  59.860         98.33	    10.863
  59.880         99.17	    10.909
  59.900        130.83	    12.530
  59.920        148.33	    13.342
  59.940        205.83	    15.716
  59.960        201.67	    15.556
  59.980        206.67	    15.748
  60.000        178.33	    14.629
  60.020        134.17	    12.689
  60.040        120.83	    12.042
  60.060        128.33	    12.410
  60.080        105.00	    11.225
  60.100        111.67	    11.576
  60.120        115.83	    11.790
  60.140        125.83	    12.288
  60.160        105.83	    11.269
  60.180         97.50	    10.817
  60.200         91.67	    10.488
  60.220         68.33	     9.055
  60.240         75.00	     9.487
  60.260         66.67	     8.944
  60.280         63.33	     8.718
  60.300         65.00	     8.832
  60.320         49.17	     7.681
  60.340         51.67	     7.874
  60.360         46.67	     7.483
  60.380         64.17	     8.775
  60.400         65.83	     8.888
  60.420         58.33	     8.367
  60.440         59.17	     8.426
  60.460         65.83	     8.888
  60.480         62.50	     8.660
  60.500         57.50	     8.307
  60.520         65.83	     8.888
  60.540         54.17	     8.062
  60.560         59.17	     8.426
  60.580         56.67	     8.246
  60.600         70.00	     9.165
  60.620         57.50	     8.307
  60.640         65.00	     8.832
  60.660         80.83	     9.849
  60.680         73.33	     9.381
  60.700         62.50	     8.660
  60.720         84.17	    10.050
  60.740         75.00	     9.487
  60.760         76.67	     9.592
  60.780         69.17	     9.110
  60.800         65.83	     8.888
  60.820         83.33	    10.000
  60.840         79.17	     9.747
  60.860         73.33	     9.381
  60.880         69.17	     9.110
  60.900         75.00	     9.487
  60.920         85.83	    10.149
  60.940         89.17	    10.344
  60.960         90.83	    10.440
  60.980         85.83	    10.149
  61.000         70.83	     9.220
  61.020         61.67	     8.602
  61.040         85.83	    10.149
  61.060         80.83	     9.849
  61.080         86.67	    10.198
  61.100         73.33	     9.381
  61.120         77.50	     9.644
  61.140         73.33	     9.381
  61.160         52.50	     7.937
  61.180         51.67	     7.874
  61.200         71.67	     9.274
  61.220         55.00	     8.124
  61.240         56.67	     8.246
  61.260         69.17	     9.110
  61.280         73.33	     9.381
  61.300         67.50	     9.000
  61.320         66.67	     8.944
  61.340         58.33	     8.367
  61.360         70.83	     9.220
  61.380         70.83	     9.220
  61.400         84.17	    10.050
  61.420         81.67	     9.899
  61.440         90.00	    10.392
  61.460         81.67	     9.899
  61.480         91.67	    10.488
  61.500        102.50	    11.091
  61.520         72.50	     9.327
  61.540         76.67	     9.592
  61.560         76.67	     9.592
  61.580         75.83	     9.539
  61.600         79.17	     9.747
  61.620         68.33	     9.055
  61.640         77.50	     9.644
  61.660         80.00	     9.798
  61.680         67.50	     9.000
  61.700         80.00	     9.798
  61.720         56.67	     8.246
  61.740         60.83	     8.544
  61.760         72.50	     9.327
  61.780         64.17	     8.775
  61.800         75.83	     9.539
  61.820         61.67	     8.602
  61.840         57.50	     8.307
  61.860         83.33	    10.000
  61.880         70.00	     9.165
  61.900         75.83	     9.539
  61.920         64.17	     8.775
  61.940         69.17	     9.110
  61.960         67.50	     9.000
  61.980         72.50	     9.327
  62.000         67.50	     9.000
  62.020         71.67	     9.274
  62.040         72.50	     9.327
  62.060         68.33	     9.055
  62.080         54.17	     8.062
  62.100         60.00	     8.485
  62.120         61.67	     8.602
  62.140         53.33	     8.000
  62.160         51.67	     7.874
  62.180         52.50	     7.937
  62.200         43.33	     7.211
  62.220         40.00	     6.928
  62.240         44.17	     7.280
  62.260         45.83	     7.416
  62.280         52.50	     7.937
  62.300         35.00	     6.481
  62.320         45.00	     7.348
  62.340         42.50	     7.141
  62.360         47.50	     7.550
  62.380         40.83	     7.000
  62.400         49.17	     7.681
  62.420         40.83	     7.000
  62.440         53.33	     8.000
  62.460         39.17	     6.856
  62.480         53.33	     8.000
  62.500         49.17	     7.681
  62.520         40.83	     7.000
  62.540         46.67	     7.483
  62.560         37.50	     6.708
  62.580         47.50	     7.550
  62.600         37.50	     6.708
  62.620         46.67	     7.483
  62.640         54.17	     8.062
  62.660         45.00	     7.348
  62.680         49.17	     7.681
  62.700         56.67	     8.246
  62.720         57.50	     8.307
  62.740         58.33	     8.367
  62.760         60.00	     8.485
  62.780         53.33	     8.000
  62.800         58.33	     8.367
  62.820         65.83	     8.888
  62.840         65.00	     8.832
  62.860         60.00	     8.485
  62.880         55.00	     8.124
  62.900         64.17	     8.775
  62.920         65.83	     8.888
  62.940         50.00	     7.746
  62.960         50.83	     7.810
  62.980         50.00	     7.746
  63.000         46.67	     7.483
  63.020         48.33	     7.616
  63.040         45.00	     7.348
  63.060         41.67	     7.071
  63.080         46.67	     7.483
  63.100         40.83	     7.000
  63.120         41.67	     7.071
  63.140         43.33	     7.211
  63.160         51.67	     7.874
  63.180         40.83	     7.000
  63.200         53.33	     8.000
  63.220         45.83	     7.416
  63.240         52.50	     7.937
  63.260         48.33	     7.616
  63.280         49.17	     7.681
  63.300         37.50	     6.708
  63.320         49.17	     7.681
  63.340         43.33	     7.211
  63.360         65.00	     8.832
  63.380         50.83	     7.810
  63.400         60.83	     8.544
  63.420         61.67	     8.602
  63.440         48.33	     7.616
  63.460         55.00	     8.124
  63.480         42.50	     7.141
  63.500         48.33	     7.616
  63.520         45.83	     7.416
  63.540         42.50	     7.141
  63.560         54.17	     8.062
  63.580         50.83	     7.810
  63.600         52.50	     7.937
  63.620         48.33	     7.616
  63.640         40.00	     6.928
  63.660         45.83	     7.416
  63.680         48.33	     7.616
  63.700         57.50	     8.307
  63.720         54.17	     8.062
  63.740         56.67	     8.246
  63.760         52.50	     7.937
  63.780         51.67	     7.874
  63.800         46.67	     7.483
  63.820         47.50	     7.550
  63.840         40.83	     7.000
  63.860         46.67	     7.483
  63.880         62.50	     8.660
  63.900         55.83	     8.185
  63.920         62.50	     8.660
  63.940         52.50	     7.937
  63.960         66.67	     8.944
  63.980         85.00	    10.100
  64.000         70.00	     9.165
  64.020         77.50	     9.644
  64.040         59.17	     8.426
  64.060         87.50	    10.247
  64.080         80.00	     9.798
  64.100         70.83	     9.220
  64.120         55.83	     8.185
  64.140         64.17	     8.775
  64.160         65.00	     8.832
  64.180         56.67	     8.246
  64.200         54.17	     8.062
  64.220         77.50	     9.644
  64.240         70.00	     9.165
  64.260         62.50	     8.660
  64.280         53.33	     8.000
  64.300         64.17	     8.775
  64.320         68.33	     9.055
  64.340         56.67	     8.246
  64.360         53.33	     8.000
  64.380         57.50	     8.307
  64.400         51.67	     7.874
  64.420         49.17	     7.681
  64.440         50.00	     7.746
  64.460         45.00	     7.348
  64.480         43.33	     7.211
  64.500         50.83	     7.810
  64.520         52.50	     7.937
  64.540         46.67	     7.483
  64.560         45.00	     7.348
  64.580         43.33	     7.211
  64.600         53.33	     8.000
  64.620         61.67	     8.602
  64.640         55.83	     8.185
  64.660         51.67	     7.874
  64.680         50.83	     7.810
  64.700         47.50	     7.550
  64.720         55.00	     8.124
  64.740         56.67	     8.246
  64.760         47.50	     7.550
  64.780         50.83	     7.810
  64.800         47.50	     7.550
  64.820         51.67	     7.874
  64.840         64.17	     8.775
  64.860         62.50	     8.660
  64.880         66.67	     8.944
  64.900        105.00	    11.225
  64.920        185.00	    14.900
  64.940        313.33	    19.391
  64.960        317.50	    19.519
  64.980        247.50	    17.234
  65.000        165.83	    14.107
