
Filename:
	C:\Program Files\Thermo Electron\WinXRD\Datafiles\F_HERMAN\GEO\G77_RT.raw

File Created:
	February 20, 2020 - 03:04 AM

Specimen Id:
	G77_RT

Specimen Name:
	

Specimen Description:
	

Comment:
Scan Type: 2Theta Scan
Start Angle: 3 deg.
Stop Angle: 65 deg.
Num Points: 3101
Step Size: 0.02 deg.
Scan Rate: 1.000000
Scan Mode: Continuous
Wavelength: 1.540562
\Kalpha1: 1.540562	\Kalpha2: 1.544390	\Kbeta: 1.392218

Optics:
		Detector:
			 Type: Fixed Slits
		Tube: 
			 Type: Fixed Slits


Datas:
 Pos [deg]       Rate [CPS]      ESD [-]

Range 1 ---> Iteration 1
   3.000        485.83	    24.145
   3.020        436.67	    22.891
   3.040        454.17	    23.345
   3.060        435.83	    22.869
   3.080        430.00	    22.716
   3.100        441.67	    23.022
   3.120        437.50	    22.913
   3.140        416.67	    22.361
   3.160        434.17	    22.825
   3.180        405.83	    22.068
   3.200        387.50	    21.564
   3.220        420.83	    22.472
   3.240        421.67	    22.494
   3.260        426.67	    22.627
   3.280        393.33	    21.726
   3.300        385.83	    21.517
   3.320        397.50	    21.840
   3.340        415.83	    22.338
   3.360        375.00	    21.213
   3.380        392.50	    21.703
   3.400        380.00	    21.354
   3.420        385.83	    21.517
   3.440        405.00	    22.045
   3.460        361.67	    20.833
   3.480        360.00	    20.785
   3.500        373.33	    21.166
   3.520        354.17	    20.616
   3.540        350.00	    20.494
   3.560        316.67	    19.494
   3.580        335.83	    20.075
   3.600        363.33	    20.881
   3.620        332.50	    19.975
   3.640        382.50	    21.424
   3.660        385.83	    21.517
   3.680        338.33	    20.149
   3.700        360.83	    20.809
   3.720        335.00	    20.050
   3.740        306.67	    19.183
   3.760        345.00	    20.347
   3.780        333.33	    20.000
   3.800        338.33	    20.149
   3.820        319.17	    19.570
   3.840        325.83	    19.774
   3.860        345.00	    20.347
   3.880        315.00	    19.442
   3.900        312.50	    19.365
   3.920        309.17	    19.261
   3.940        311.67	    19.339
   3.960        317.50	    19.519
   3.980        296.67	    18.868
   4.000        344.17	    20.322
   4.020        349.17	    20.469
   4.040        317.50	    19.519
   4.060        315.83	    19.468
   4.080        316.67	    19.494
   4.100        275.83	    18.193
   4.120        305.83	    19.157
   4.140        322.50	    19.672
   4.160        290.83	    18.682
   4.180        308.33	    19.235
   4.200        286.67	    18.547
   4.220        290.83	    18.682
   4.240        318.33	    19.545
   4.260        296.67	    18.868
   4.280        275.00	    18.166
   4.300        300.00	    18.974
   4.320        281.67	    18.385
   4.340        268.33	    17.944
   4.360        274.17	    18.138
   4.380        279.17	    18.303
   4.400        278.33	    18.276
   4.420        290.83	    18.682
   4.440        285.00	    18.493
   4.460        292.50	    18.735
   4.480        275.00	    18.166
   4.500        268.33	    17.944
   4.520        265.83	    17.861
   4.540        276.67	    18.221
   4.560        274.17	    18.138
   4.580        268.33	    17.944
   4.600        289.17	    18.628
   4.620        280.00	    18.330
   4.640        263.33	    17.776
   4.660        260.83	    17.692
   4.680        275.00	    18.166
   4.700        253.33	    17.436
   4.720        269.17	    17.972
   4.740        268.33	    17.944
   4.760        253.33	    17.436
   4.780        247.50	    17.234
   4.800        254.17	    17.464
   4.820        238.33	    16.912
   4.840        254.17	    17.464
   4.860        254.17	    17.464
   4.880        240.83	    17.000
   4.900        255.83	    17.521
   4.920        239.17	    16.941
   4.940        244.17	    17.117
   4.960        238.33	    16.912
   4.980        244.17	    17.117
   5.000        216.67	    16.125
   5.020        243.33	    17.088
   5.040        247.50	    17.234
   5.060        253.33	    17.436
   5.080        217.50	    16.155
   5.100        211.67	    15.937
   5.120        245.83	    17.176
   5.140        249.17	    17.292
   5.160        228.33	    16.553
   5.180        217.50	    16.155
   5.200        240.83	    17.000
   5.220        225.83	    16.462
   5.240        199.17	    15.460
   5.260        232.50	    16.703
   5.280        245.00	    17.146
   5.300        240.83	    17.000
   5.320        235.83	    16.823
   5.340        233.33	    16.733
   5.360        224.17	    16.401
   5.380        211.67	    15.937
   5.400        224.17	    16.401
   5.420        241.67	    17.029
   5.440        218.33	    16.186
   5.460        218.33	    16.186
   5.480        216.67	    16.125
   5.500        208.33	    15.811
   5.520        212.50	    15.969
   5.540        205.00	    15.684
   5.560        210.83	    15.906
   5.580        209.17	    15.843
   5.600        245.83	    17.176
   5.620        221.67	    16.310
   5.640        210.00	    15.875
   5.660        234.17	    16.763
   5.680        229.17	    16.583
   5.700        220.00	    16.248
   5.720        201.67	    15.556
   5.740        236.67	    16.852
   5.760        205.83	    15.716
   5.780        199.17	    15.460
   5.800        195.83	    15.330
   5.820        236.67	    16.852
   5.840        197.50	    15.395
   5.860        213.33	    16.000
   5.880        200.83	    15.524
   5.900        225.00	    16.432
   5.920        205.00	    15.684
   5.940        205.00	    15.684
   5.960        260.83	    17.692
   5.980        225.00	    16.432
   6.000        230.00	    16.613
   6.020        242.50	    17.059
   6.040        235.83	    16.823
   6.060        217.50	    16.155
   6.080        265.83	    17.861
   6.100        245.00	    17.146
   6.120        266.67	    17.889
   6.140        251.67	    17.378
   6.160        278.33	    18.276
   6.180        264.17	    17.804
   6.200        225.83	    16.462
   6.220        213.33	    16.000
   6.240        206.67	    15.748
   6.260        190.83	    15.133
   6.280        197.50	    15.395
   6.300        193.33	    15.232
   6.320        197.50	    15.395
   6.340        198.33	    15.427
   6.360        220.83	    16.279
   6.380        176.67	    14.560
   6.400        187.50	    15.000
   6.420        184.17	    14.866
   6.440        175.00	    14.491
   6.460        181.67	    14.765
   6.480        167.50	    14.177
   6.500        190.83	    15.133
   6.520        190.00	    15.100
   6.540        189.17	    15.067
   6.560        188.33	    15.033
   6.580        185.00	    14.900
   6.600        176.67	    14.560
   6.620        175.83	    14.526
   6.640        185.00	    14.900
   6.660        165.00	    14.071
   6.680        175.00	    14.491
   6.700        170.83	    14.318
   6.720        179.17	    14.663
   6.740        175.83	    14.526
   6.760        162.50	    13.964
   6.780        170.00	    14.283
   6.800        180.83	    14.731
   6.820        180.83	    14.731
   6.840        169.17	    14.248
   6.860        178.33	    14.629
   6.880        188.33	    15.033
   6.900        180.00	    14.697
   6.920        173.33	    14.422
   6.940        182.50	    14.799
   6.960        166.67	    14.142
   6.980        183.33	    14.832
   7.000        156.67	    13.711
   7.020        177.50	    14.595
   7.040        151.67	    13.491
   7.060        158.33	    13.784
   7.080        163.33	    14.000
   7.100        172.50	    14.387
   7.120        145.83	    13.229
   7.140        171.67	    14.353
   7.160        182.50	    14.799
   7.180        174.17	    14.457
   7.200        155.00	    13.638
   7.220        175.83	    14.526
   7.240        139.17	    12.923
   7.260        172.50	    14.387
   7.280        155.83	    13.675
   7.300        143.33	    13.115
   7.320        163.33	    14.000
   7.340        159.17	    13.820
   7.360        166.67	    14.142
   7.380        171.67	    14.353
   7.400        144.17	    13.153
   7.420        141.67	    13.038
   7.440        140.83	    13.000
   7.460        153.33	    13.565
   7.480        155.00	    13.638
   7.500        162.50	    13.964
   7.520        157.50	    13.748
   7.540        150.83	    13.454
   7.560        155.83	    13.675
   7.580        140.00	    12.961
   7.600        154.17	    13.601
   7.620        157.50	    13.748
   7.640        155.00	    13.638
   7.660        145.00	    13.191
   7.680        150.83	    13.454
   7.700        154.17	    13.601
   7.720        151.67	    13.491
   7.740        136.67	    12.806
   7.760        156.67	    13.711
   7.780        146.67	    13.266
   7.800        140.00	    12.961
   7.820        144.17	    13.153
   7.840        151.67	    13.491
   7.860        150.00	    13.416
   7.880        160.83	    13.892
   7.900        149.17	    13.379
   7.920        154.17	    13.601
   7.940        158.33	    13.784
   7.960        135.00	    12.728
   7.980        144.17	    13.153
   8.000        138.33	    12.884
   8.020        135.83	    12.767
   8.040        128.33	    12.410
   8.060        144.17	    13.153
   8.080        123.33	    12.166
   8.100        150.83	    13.454
   8.120        135.83	    12.767
   8.140        155.83	    13.675
   8.160        126.67	    12.329
   8.180        138.33	    12.884
   8.200        134.17	    12.689
   8.220        152.50	    13.528
   8.240        151.67	    13.491
   8.260        145.00	    13.191
   8.280        155.83	    13.675
   8.300        165.83	    14.107
   8.320        146.67	    13.266
   8.340        148.33	    13.342
   8.360        159.17	    13.820
   8.380        140.00	    12.961
   8.400        148.33	    13.342
   8.420        156.67	    13.711
   8.440        157.50	    13.748
   8.460        130.00	    12.490
   8.480        162.50	    13.964
   8.500        165.83	    14.107
   8.520        149.17	    13.379
   8.540        173.33	    14.422
   8.560        174.17	    14.457
   8.580        195.00	    15.297
   8.600        207.50	    15.780
   8.620        233.33	    16.733
   8.640        253.33	    17.436
   8.660        311.67	    19.339
   8.680        310.00	    19.287
   8.700        334.17	    20.025
   8.720        335.83	    20.075
   8.740        361.67	    20.833
   8.760        409.17	    22.159
   8.780        545.00	    25.573
   8.800        617.50	    27.221
   8.820        500.83	    24.515
   8.840        305.83	    19.157
   8.860        209.17	    15.843
   8.880        162.50	    13.964
   8.900        154.17	    13.601
   8.920        141.67	    13.038
   8.940        149.17	    13.379
   8.960        128.33	    12.410
   8.980        140.00	    12.961
   9.000        154.17	    13.601
   9.020        145.00	    13.191
   9.040        150.83	    13.454
   9.060        165.00	    14.071
   9.080        146.67	    13.266
   9.100        150.83	    13.454
   9.120        150.00	    13.416
   9.140        129.17	    12.450
   9.160        125.00	    12.247
   9.180        123.33	    12.166
   9.200        115.83	    11.790
   9.220        118.33	    11.916
   9.240        134.17	    12.689
   9.260        120.83	    12.042
   9.280        139.17	    12.923
   9.300        135.00	    12.728
   9.320        118.33	    11.916
   9.340        135.83	    12.767
   9.360        131.67	    12.570
   9.380        123.33	    12.166
   9.400        132.50	    12.610
   9.420        149.17	    13.379
   9.440        101.67	    11.045
   9.460        116.67	    11.832
   9.480        123.33	    12.166
   9.500        127.50	    12.369
   9.520        119.17	    11.958
   9.540        122.50	    12.124
   9.560        105.83	    11.269
   9.580        115.00	    11.747
   9.600        116.67	    11.832
   9.620        110.83	    11.533
   9.640        110.00	    11.489
   9.660        111.67	    11.576
   9.680        116.67	    11.832
   9.700        126.67	    12.329
   9.720        100.83	    11.000
   9.740        114.17	    11.705
   9.760        106.67	    11.314
   9.780        110.83	    11.533
   9.800        107.50	    11.358
   9.820        110.83	    11.533
   9.840        110.83	    11.533
   9.860        107.50	    11.358
   9.880         98.33	    10.863
   9.900        118.33	    11.916
   9.920        122.50	    12.124
   9.940        110.00	    11.489
   9.960         99.17	    10.909
   9.980         96.67	    10.770
  10.000         88.33	    10.296
  10.020        109.17	    11.446
  10.040        113.33	    11.662
  10.060         96.67	    10.770
  10.080        100.00	    10.954
  10.100        123.33	    12.166
  10.120        103.33	    11.136
  10.140        100.00	    10.954
  10.160         99.17	    10.909
  10.180        116.67	    11.832
  10.200        109.17	    11.446
  10.220        100.00	    10.954
  10.240        103.33	    11.136
  10.260        102.50	    11.091
  10.280        105.83	    11.269
  10.300        110.83	    11.533
  10.320        125.00	    12.247
  10.340        113.33	    11.662
  10.360        118.33	    11.916
  10.380        127.50	    12.369
  10.400        127.50	    12.369
  10.420        135.83	    12.767
  10.440        174.17	    14.457
  10.460        139.17	    12.923
  10.480        113.33	    11.662
  10.500        110.83	    11.533
  10.520         90.83	    10.440
  10.540        115.00	    11.747
  10.560        100.00	    10.954
  10.580        123.33	    12.166
  10.600         95.00	    10.677
  10.620         98.33	    10.863
  10.640         99.17	    10.909
  10.660         97.50	    10.817
  10.680         99.17	    10.909
  10.700        100.83	    11.000
  10.720        100.00	    10.954
  10.740        107.50	    11.358
  10.760        100.00	    10.954
  10.780         94.17	    10.630
  10.800         85.00	    10.100
  10.820         90.83	    10.440
  10.840        108.33	    11.402
  10.860        101.67	    11.045
  10.880         94.17	    10.630
  10.900        108.33	    11.402
  10.920        101.67	    11.045
  10.940         94.17	    10.630
  10.960         99.17	    10.909
  10.980         99.17	    10.909
  11.000        108.33	    11.402
  11.020        110.83	    11.533
  11.040        100.83	    11.000
  11.060        107.50	    11.358
  11.080         96.67	    10.770
  11.100         90.00	    10.392
  11.120         90.83	    10.440
  11.140         85.00	    10.100
  11.160         86.67	    10.198
  11.180         91.67	    10.488
  11.200        103.33	    11.136
  11.220        101.67	    11.045
  11.240         83.33	    10.000
  11.260         82.50	     9.950
  11.280        110.83	    11.533
  11.300         95.83	    10.724
  11.320         93.33	    10.583
  11.340         91.67	    10.488
  11.360         94.17	    10.630
  11.380         94.17	    10.630
  11.400        107.50	    11.358
  11.420         93.33	    10.583
  11.440        100.00	    10.954
  11.460         95.00	    10.677
  11.480        102.50	    11.091
  11.500         86.67	    10.198
  11.520         90.00	    10.392
  11.540        111.67	    11.576
  11.560        106.67	    11.314
  11.580         85.00	    10.100
  11.600         87.50	    10.247
  11.620        101.67	    11.045
  11.640        105.00	    11.225
  11.660         98.33	    10.863
  11.680         90.00	    10.392
  11.700         87.50	    10.247
  11.720         90.83	    10.440
  11.740        103.33	    11.136
  11.760         80.00	     9.798
  11.780         90.83	    10.440
  11.800         93.33	    10.583
  11.820         95.83	    10.724
  11.840        108.33	    11.402
  11.860        103.33	    11.136
  11.880        111.67	    11.576
  11.900        107.50	    11.358
  11.920        123.33	    12.166
  11.940        113.33	    11.662
  11.960        105.83	    11.269
  11.980        130.83	    12.530
  12.000        131.67	    12.570
  12.020        150.83	    13.454
  12.040        201.67	    15.556
  12.060        290.00	    18.655
  12.080        426.67	    22.627
  12.100        530.00	    25.219
  12.120        494.17	    24.352
  12.140        345.00	    20.347
  12.160        228.33	    16.553
  12.180        187.50	    15.000
  12.200        179.17	    14.663
  12.220        175.83	    14.526
  12.240        173.33	    14.422
  12.260        176.67	    14.560
  12.280        172.50	    14.387
  12.300        178.33	    14.629
  12.320        161.67	    13.928
  12.340        181.67	    14.765
  12.360        191.67	    15.166
  12.380        222.50	    16.340
  12.400        249.17	    17.292
  12.420        250.00	    17.321
  12.440        224.17	    16.401
  12.460        153.33	    13.565
  12.480        122.50	    12.124
  12.500        103.33	    11.136
  12.520        102.50	    11.091
  12.540         90.83	    10.440
  12.560         90.83	    10.440
  12.580         98.33	    10.863
  12.600         95.83	    10.724
  12.620         83.33	    10.000
  12.640         96.67	    10.770
  12.660         78.33	     9.695
  12.680         89.17	    10.344
  12.700         85.83	    10.149
  12.720         90.00	    10.392
  12.740         84.17	    10.050
  12.760         65.00	     8.832
  12.780         80.00	     9.798
  12.800         90.00	    10.392
  12.820         99.17	    10.909
  12.840         60.83	     8.544
  12.860         78.33	     9.695
  12.880         85.00	    10.100
  12.900         82.50	     9.950
  12.920         80.00	     9.798
  12.940         64.17	     8.775
  12.960         73.33	     9.381
  12.980         92.50	    10.536
  13.000         88.33	    10.296
  13.020        103.33	    11.136
  13.040         80.83	     9.849
  13.060         82.50	     9.950
  13.080         86.67	    10.198
  13.100         88.33	    10.296
  13.120         88.33	    10.296
  13.140         72.50	     9.327
  13.160         62.50	     8.660
  13.180         70.00	     9.165
  13.200         75.00	     9.487
  13.220         76.67	     9.592
  13.240         72.50	     9.327
  13.260         87.50	    10.247
  13.280         75.83	     9.539
  13.300         90.00	    10.392
  13.320         89.17	    10.344
  13.340         61.67	     8.602
  13.360         86.67	    10.198
  13.380        103.33	    11.136
  13.400         85.00	    10.100
  13.420         75.00	     9.487
  13.440         75.83	     9.539
  13.460         75.00	     9.487
  13.480         77.50	     9.644
  13.500         71.67	     9.274
  13.520         70.00	     9.165
  13.540         80.83	     9.849
  13.560         83.33	    10.000
  13.580         82.50	     9.950
  13.600         85.00	    10.100
  13.620         83.33	    10.000
  13.640         82.50	     9.950
  13.660         60.83	     8.544
  13.680         69.17	     9.110
  13.700         78.33	     9.695
  13.720         76.67	     9.592
  13.740        104.17	    11.180
  13.760        127.50	    12.369
  13.780        127.50	    12.369
  13.800        111.67	    11.576
  13.820        105.83	    11.269
  13.840         81.67	     9.899
  13.860         67.50	     9.000
  13.880         98.33	    10.863
  13.900         66.67	     8.944
  13.920         80.83	     9.849
  13.940         73.33	     9.381
  13.960         71.67	     9.274
  13.980         79.17	     9.747
  14.000         78.33	     9.695
  14.020         65.83	     8.888
  14.040         73.33	     9.381
  14.060         65.00	     8.832
  14.080         72.50	     9.327
  14.100         52.50	     7.937
  14.120         65.00	     8.832
  14.140         77.50	     9.644
  14.160         70.00	     9.165
  14.180         70.83	     9.220
  14.200         87.50	    10.247
  14.220         76.67	     9.592
  14.240         65.00	     8.832
  14.260         71.67	     9.274
  14.280         70.83	     9.220
  14.300         75.83	     9.539
  14.320         67.50	     9.000
  14.340         76.67	     9.592
  14.360         62.50	     8.660
  14.380         71.67	     9.274
  14.400         64.17	     8.775
  14.420         70.00	     9.165
  14.440         57.50	     8.307
  14.460         74.17	     9.434
  14.480         76.67	     9.592
  14.500         58.33	     8.367
  14.520         65.00	     8.832
  14.540         65.00	     8.832
  14.560         55.83	     8.185
  14.580         66.67	     8.944
  14.600         69.17	     9.110
  14.620         70.00	     9.165
  14.640         60.00	     8.485
  14.660         67.50	     9.000
  14.680         59.17	     8.426
  14.700         63.33	     8.718
  14.720         65.83	     8.888
  14.740         80.83	     9.849
  14.760         79.17	     9.747
  14.780         70.00	     9.165
  14.800         71.67	     9.274
  14.820         77.50	     9.644
  14.840         69.17	     9.110
  14.860         80.00	     9.798
  14.880         76.67	     9.592
  14.900         62.50	     8.660
  14.920         81.67	     9.899
  14.940         86.67	    10.198
  14.960         75.83	     9.539
  14.980         71.67	     9.274
  15.000         73.33	     9.381
  15.020         68.33	     9.055
  15.040         68.33	     9.055
  15.060         64.17	     8.775
  15.080         61.67	     8.602
  15.100         73.33	     9.381
  15.120         62.50	     8.660
  15.140         55.00	     8.124
  15.160         70.00	     9.165
  15.180         71.67	     9.274
  15.200         51.67	     7.874
  15.220         69.17	     9.110
  15.240         70.83	     9.220
  15.260         65.83	     8.888
  15.280         69.17	     9.110
  15.300         63.33	     8.718
  15.320         53.33	     8.000
  15.340         76.67	     9.592
  15.360         70.83	     9.220
  15.380         70.00	     9.165
  15.400         70.83	     9.220
  15.420         62.50	     8.660
  15.440         75.00	     9.487
  15.460         69.17	     9.110
  15.480         60.00	     8.485
  15.500         54.17	     8.062
  15.520         65.83	     8.888
  15.540         72.50	     9.327
  15.560         70.00	     9.165
  15.580         80.00	     9.798
  15.600         68.33	     9.055
  15.620         58.33	     8.367
  15.640         60.00	     8.485
  15.660         74.17	     9.434
  15.680         66.67	     8.944
  15.700         69.17	     9.110
  15.720         72.50	     9.327
  15.740         68.33	     9.055
  15.760         54.17	     8.062
  15.780         66.67	     8.944
  15.800         80.00	     9.798
  15.820         65.00	     8.832
  15.840         70.00	     9.165
  15.860         66.67	     8.944
  15.880         60.83	     8.544
  15.900         57.50	     8.307
  15.920         58.33	     8.367
  15.940         67.50	     9.000
  15.960         51.67	     7.874
  15.980         65.00	     8.832
  16.000         75.83	     9.539
  16.020         58.33	     8.367
  16.040         48.33	     7.616
  16.060         63.33	     8.718
  16.080         65.00	     8.832
  16.100         54.17	     8.062
  16.120         55.83	     8.185
  16.140         60.83	     8.544
  16.160         73.33	     9.381
  16.180         63.33	     8.718
  16.200         50.00	     7.746
  16.220         65.00	     8.832
  16.240         70.83	     9.220
  16.260         60.00	     8.485
  16.280         57.50	     8.307
  16.300         58.33	     8.367
  16.320         80.00	     9.798
  16.340         55.83	     8.185
  16.360         70.00	     9.165
  16.380         55.83	     8.185
  16.400         60.00	     8.485
  16.420         65.00	     8.832
  16.440         54.17	     8.062
  16.460         62.50	     8.660
  16.480         77.50	     9.644
  16.500         69.17	     9.110
  16.520         61.67	     8.602
  16.540         59.17	     8.426
  16.560         54.17	     8.062
  16.580         60.00	     8.485
  16.600         55.83	     8.185
  16.620         65.00	     8.832
  16.640         65.83	     8.888
  16.660         60.83	     8.544
  16.680         55.00	     8.124
  16.700         56.67	     8.246
  16.720         59.17	     8.426
  16.740         67.50	     9.000
  16.760         62.50	     8.660
  16.780         65.83	     8.888
  16.800         64.17	     8.775
  16.820         55.83	     8.185
  16.840         57.50	     8.307
  16.860         61.67	     8.602
  16.880         63.33	     8.718
  16.900         67.50	     9.000
  16.920         59.17	     8.426
  16.940         59.17	     8.426
  16.960         57.50	     8.307
  16.980         70.83	     9.220
  17.000         69.17	     9.110
  17.020         62.50	     8.660
  17.040         74.17	     9.434
  17.060         70.83	     9.220
  17.080         71.67	     9.274
  17.100         70.00	     9.165
  17.120         57.50	     8.307
  17.140         61.67	     8.602
  17.160         65.00	     8.832
  17.180         56.67	     8.246
  17.200         66.67	     8.944
  17.220         75.83	     9.539
  17.240         76.67	     9.592
  17.260         75.00	     9.487
  17.280         56.67	     8.246
  17.300         61.67	     8.602
  17.320         69.17	     9.110
  17.340         67.50	     9.000
  17.360         65.00	     8.832
  17.380         62.50	     8.660
  17.400         65.00	     8.832
  17.420         69.17	     9.110
  17.440         71.67	     9.274
  17.460         70.00	     9.165
  17.480         69.17	     9.110
  17.500         68.33	     9.055
  17.520         81.67	     9.899
  17.540         80.83	     9.849
  17.560         51.67	     7.874
  17.580         62.50	     8.660
  17.600         77.50	     9.644
  17.620         85.83	    10.149
  17.640         89.17	    10.344
  17.660        100.83	    11.000
  17.680        150.00	    13.416
  17.700        143.33	    13.115
  17.720        175.00	    14.491
  17.740        181.67	    14.765
  17.760        195.00	    15.297
  17.780        147.50	    13.304
  17.800        132.50	    12.610
  17.820         95.83	    10.724
  17.840         65.00	     8.832
  17.860         71.67	     9.274
  17.880         63.33	     8.718
  17.900         65.00	     8.832
  17.920         60.83	     8.544
  17.940         63.33	     8.718
  17.960         57.50	     8.307
  17.980         65.00	     8.832
  18.000         57.50	     8.307
  18.020         66.67	     8.944
  18.040         51.67	     7.874
  18.060         61.67	     8.602
  18.080         69.17	     9.110
  18.100         51.67	     7.874
  18.120         60.83	     8.544
  18.140         56.67	     8.246
  18.160         62.50	     8.660
  18.180         57.50	     8.307
  18.200         56.67	     8.246
  18.220         46.67	     7.483
  18.240         63.33	     8.718
  18.260         70.00	     9.165
  18.280         75.83	     9.539
  18.300         80.00	     9.798
  18.320         82.50	     9.950
  18.340         70.00	     9.165
  18.360         68.33	     9.055
  18.380         79.17	     9.747
  18.400         80.00	     9.798
  18.420         68.33	     9.055
  18.440         78.33	     9.695
  18.460         92.50	    10.536
  18.480         90.83	    10.440
  18.500         83.33	    10.000
  18.520         96.67	    10.770
  18.540         74.17	     9.434
  18.560         67.50	     9.000
  18.580         81.67	     9.899
  18.600         72.50	     9.327
  18.620         85.00	    10.100
  18.640         79.17	     9.747
  18.660         98.33	    10.863
  18.680        121.67	    12.083
  18.700        121.67	    12.083
  18.720        115.00	    11.747
  18.740        110.83	    11.533
  18.760         74.17	     9.434
  18.780         82.50	     9.950
  18.800         58.33	     8.367
  18.820         75.00	     9.487
  18.840         60.83	     8.544
  18.860         65.00	     8.832
  18.880         71.67	     9.274
  18.900         54.17	     8.062
  18.920         57.50	     8.307
  18.940         51.67	     7.874
  18.960         55.83	     8.185
  18.980         64.17	     8.775
  19.000         67.50	     9.000
  19.020         69.17	     9.110
  19.040         63.33	     8.718
  19.060         65.00	     8.832
  19.080         70.00	     9.165
  19.100         65.83	     8.888
  19.120         83.33	    10.000
  19.140         69.17	     9.110
  19.160         73.33	     9.381
  19.180         68.33	     9.055
  19.200         69.17	     9.110
  19.220         65.00	     8.832
  19.240         53.33	     8.000
  19.260         53.33	     8.000
  19.280         52.50	     7.937
  19.300         58.33	     8.367
  19.320         52.50	     7.937
  19.340         83.33	    10.000
  19.360         69.17	     9.110
  19.380         58.33	     8.367
  19.400         59.17	     8.426
  19.420         70.00	     9.165
  19.440         54.17	     8.062
  19.460         70.00	     9.165
  19.480         62.50	     8.660
  19.500         50.83	     7.810
  19.520         75.00	     9.487
  19.540         83.33	    10.000
  19.560         79.17	     9.747
  19.580         70.00	     9.165
  19.600         70.83	     9.220
  19.620         71.67	     9.274
  19.640         70.83	     9.220
  19.660         86.67	    10.198
  19.680         88.33	    10.296
  19.700         85.00	    10.100
  19.720         86.67	    10.198
  19.740         88.33	    10.296
  19.760         91.67	    10.488
  19.780         80.83	     9.849
  19.800         88.33	    10.296
  19.820         63.33	     8.718
  19.840         69.17	     9.110
  19.860         78.33	     9.695
  19.880         66.67	     8.944
  19.900         61.67	     8.602
  19.920         70.00	     9.165
  19.940         67.50	     9.000
  19.960         65.83	     8.888
  19.980         71.67	     9.274
  20.000         56.67	     8.246
  20.020         74.17	     9.434
  20.040         62.50	     8.660
  20.060         60.00	     8.485
  20.080         59.17	     8.426
  20.100         59.17	     8.426
  20.120         55.00	     8.124
  20.140         58.33	     8.367
  20.160         59.17	     8.426
  20.180         57.50	     8.307
  20.200         66.67	     8.944
  20.220         46.67	     7.483
  20.240         51.67	     7.874
  20.260         53.33	     8.000
  20.280         61.67	     8.602
  20.300         49.17	     7.681
  20.320         49.17	     7.681
  20.340         62.50	     8.660
  20.360         67.50	     9.000
  20.380         53.33	     8.000
  20.400         57.50	     8.307
  20.420         65.83	     8.888
  20.440         57.50	     8.307
  20.460         63.33	     8.718
  20.480         67.50	     9.000
  20.500         62.50	     8.660
  20.520         75.00	     9.487
  20.540         55.00	     8.124
  20.560         65.00	     8.832
  20.580         61.67	     8.602
  20.600         79.17	     9.747
  20.620         70.83	     9.220
  20.640         87.50	    10.247
  20.660         87.50	    10.247
  20.680        117.50	    11.874
  20.700        136.67	    12.806
  20.720        272.50	    18.083
  20.740        482.50	    24.062
  20.760        580.00	    26.382
  20.780        508.33	    24.698
  20.800        354.17	    20.616
  20.820        312.50	    19.365
  20.840        190.00	    15.100
  20.860        115.83	    11.790
  20.880        100.83	    11.000
  20.900         91.67	    10.488
  20.920         75.83	     9.539
  20.940         89.17	    10.344
  20.960         80.83	     9.849
  20.980         84.17	    10.050
  21.000         77.50	     9.644
  21.020         77.50	     9.644
  21.040         74.17	     9.434
  21.060         70.83	     9.220
  21.080         65.00	     8.832
  21.100         61.67	     8.602
  21.120         58.33	     8.367
  21.140         61.67	     8.602
  21.160         55.00	     8.124
  21.180         48.33	     7.616
  21.200         45.83	     7.416
  21.220         65.00	     8.832
  21.240         60.83	     8.544
  21.260         65.83	     8.888
  21.280         48.33	     7.616
  21.300         54.17	     8.062
  21.320         48.33	     7.616
  21.340         54.17	     8.062
  21.360         67.50	     9.000
  21.380         66.67	     8.944
  21.400         56.67	     8.246
  21.420         63.33	     8.718
  21.440         74.17	     9.434
  21.460         67.50	     9.000
  21.480         60.00	     8.485
  21.500         59.17	     8.426
  21.520         50.83	     7.810
  21.540         59.17	     8.426
  21.560         54.17	     8.062
  21.580         60.00	     8.485
  21.600         52.50	     7.937
  21.620         55.00	     8.124
  21.640         68.33	     9.055
  21.660         55.00	     8.124
  21.680         57.50	     8.307
  21.700         48.33	     7.616
  21.720         61.67	     8.602
  21.740         61.67	     8.602
  21.760         54.17	     8.062
  21.780         65.83	     8.888
  21.800         65.83	     8.888
  21.820         46.67	     7.483
  21.840         66.67	     8.944
  21.860         76.67	     9.592
  21.880         94.17	    10.630
  21.900        114.17	    11.705
  21.920        167.50	    14.177
  21.940        186.67	    14.967
  21.960        198.33	    15.427
  21.980        180.83	    14.731
  22.000        152.50	    13.528
  22.020        113.33	    11.662
  22.040        100.83	    11.000
  22.060         68.33	     9.055
  22.080         64.17	     8.775
  22.100         70.83	     9.220
  22.120         59.17	     8.426
  22.140         59.17	     8.426
  22.160         61.67	     8.602
  22.180         59.17	     8.426
  22.200         65.00	     8.832
  22.220         56.67	     8.246
  22.240         56.67	     8.246
  22.260         44.17	     7.280
  22.280         62.50	     8.660
  22.300         66.67	     8.944
  22.320         67.50	     9.000
  22.340         44.17	     7.280
  22.360         60.00	     8.485
  22.380         59.17	     8.426
  22.400         56.67	     8.246
  22.420         50.00	     7.746
  22.440         56.67	     8.246
  22.460         54.17	     8.062
  22.480         60.83	     8.544
  22.500         64.17	     8.775
  22.520         57.50	     8.307
  22.540         54.17	     8.062
  22.560         50.83	     7.810
  22.580         52.50	     7.937
  22.600         57.50	     8.307
  22.620         65.00	     8.832
  22.640         53.33	     8.000
  22.660         50.00	     7.746
  22.680         50.00	     7.746
  22.700         65.83	     8.888
  22.720         70.83	     9.220
  22.740         62.50	     8.660
  22.760         78.33	     9.695
  22.780         88.33	    10.296
  22.800         85.00	    10.100
  22.820         80.00	     9.798
  22.840         85.00	    10.100
  22.860         95.00	    10.677
  22.880         65.83	     8.888
  22.900         86.67	    10.198
  22.920         92.50	    10.536
  22.940        100.00	    10.954
  22.960         82.50	     9.950
  22.980         67.50	     9.000
  23.000         80.83	     9.849
  23.020         79.17	     9.747
  23.040         65.00	     8.832
  23.060         60.00	     8.485
  23.080         52.50	     7.937
  23.100         63.33	     8.718
  23.120         66.67	     8.944
  23.140         50.00	     7.746
  23.160         54.17	     8.062
  23.180         66.67	     8.944
  23.200         62.50	     8.660
  23.220         58.33	     8.367
  23.240         70.00	     9.165
  23.260         59.17	     8.426
  23.280         55.83	     8.185
  23.300         42.50	     7.141
  23.320         50.83	     7.810
  23.340         64.17	     8.775
  23.360         55.00	     8.124
  23.380         73.33	     9.381
  23.400         80.00	     9.798
  23.420        120.83	    12.042
  23.440        152.50	    13.528
  23.460        147.50	    13.304
  23.480        126.67	    12.329
  23.500        104.17	    11.180
  23.520         98.33	    10.863
  23.540         86.67	    10.198
  23.560         65.83	     8.888
  23.580         69.17	     9.110
  23.600         71.67	     9.274
  23.620         56.67	     8.246
  23.640         73.33	     9.381
  23.660         80.00	     9.798
  23.680        102.50	    11.091
  23.700         98.33	    10.863
  23.720         89.17	    10.344
  23.740         91.67	    10.488
  23.760         88.33	    10.296
  23.780         95.00	    10.677
  23.800         84.17	    10.050
  23.820         69.17	     9.110
  23.840         52.50	     7.937
  23.860         80.00	     9.798
  23.880         62.50	     8.660
  23.900         62.50	     8.660
  23.920         80.00	     9.798
  23.940         90.00	    10.392
  23.960         79.17	     9.747
  23.980         95.00	    10.677
  24.000         69.17	     9.110
  24.020         87.50	    10.247
  24.040        104.17	    11.180
  24.060        112.50	    11.619
  24.080        101.67	    11.045
  24.100        108.33	    11.402
  24.120         90.00	    10.392
  24.140        105.00	    11.225
  24.160        106.67	    11.314
  24.180        161.67	    13.928
  24.200        113.33	    11.662
  24.220         96.67	    10.770
  24.240         96.67	    10.770
  24.260         92.50	    10.536
  24.280         80.83	     9.849
  24.300         80.00	     9.798
  24.320         84.17	    10.050
  24.340         87.50	    10.247
  24.360         71.67	     9.274
  24.380         93.33	    10.583
  24.400         94.17	    10.630
  24.420        160.83	    13.892
  24.440        197.50	    15.395
  24.460        271.67	    18.055
  24.480        290.00	    18.655
  24.500        275.00	    18.166
  24.520        307.50	    19.209
  24.540        309.17	    19.261
  24.560        264.17	    17.804
  24.580        238.33	    16.912
  24.600        170.00	    14.283
  24.620        195.00	    15.297
  24.640        155.83	    13.675
  24.660        129.17	    12.450
  24.680        128.33	    12.410
  24.700        120.00	    12.000
  24.720        115.83	    11.790
  24.740        109.17	    11.446
  24.760        105.00	    11.225
  24.780        116.67	    11.832
  24.800        119.17	    11.958
  24.820        116.67	    11.832
  24.840         83.33	    10.000
  24.860         96.67	    10.770
  24.880         93.33	    10.583
  24.900         96.67	    10.770
  24.920         85.00	    10.100
  24.940        100.83	    11.000
  24.960        112.50	    11.619
  24.980        120.83	    12.042
  25.000        149.17	    13.379
  25.020        153.33	    13.565
  25.040        178.33	    14.629
  25.060        206.67	    15.748
  25.080        203.33	    15.620
  25.100        202.50	    15.588
  25.120        146.67	    13.266
  25.140        110.83	    11.533
  25.160        111.67	    11.576
  25.180         97.50	    10.817
  25.200         82.50	     9.950
  25.220         84.17	    10.050
  25.240         98.33	    10.863
  25.260         85.00	    10.100
  25.280         90.00	    10.392
  25.300         95.00	    10.677
  25.320        105.83	    11.269
  25.340        101.67	    11.045
  25.360        113.33	    11.662
  25.380        109.17	    11.446
  25.400        155.00	    13.638
  25.420        151.67	    13.491
  25.440        151.67	    13.491
  25.460        171.67	    14.353
  25.480        150.83	    13.454
  25.500        130.83	    12.530
  25.520        155.00	    13.638
  25.540        148.33	    13.342
  25.560        148.33	    13.342
  25.580        108.33	    11.402
  25.600         91.67	    10.488
  25.620         96.67	    10.770
  25.640         88.33	    10.296
  25.660         84.17	    10.050
  25.680         65.00	     8.832
  25.700         55.83	     8.185
  25.720         72.50	     9.327
  25.740         65.83	     8.888
  25.760         75.00	     9.487
  25.780         48.33	     7.616
  25.800         59.17	     8.426
  25.820         69.17	     9.110
  25.840         58.33	     8.367
  25.860         56.67	     8.246
  25.880         65.00	     8.832
  25.900         60.83	     8.544
  25.920         61.67	     8.602
  25.940         52.50	     7.937
  25.960         65.00	     8.832
  25.980         63.33	     8.718
  26.000         59.17	     8.426
  26.020         72.50	     9.327
  26.040         63.33	     8.718
  26.060         60.00	     8.485
  26.080         79.17	     9.747
  26.100         68.33	     9.055
  26.120         79.17	     9.747
  26.140         89.17	    10.344
  26.160         88.33	    10.296
  26.180         76.67	     9.592
  26.200         83.33	    10.000
  26.220        104.17	    11.180
  26.240         81.67	     9.899
  26.260        105.83	    11.269
  26.280        120.83	    12.042
  26.300        142.50	    13.077
  26.320        167.50	    14.177
  26.340        150.00	    13.416
  26.360        172.50	    14.387
  26.380        206.67	    15.748
  26.400        247.50	    17.234
  26.420        260.83	    17.692
  26.440        300.00	    18.974
  26.460        347.50	    20.421
  26.480        560.00	    25.923
  26.500       1000.83	    34.655
  26.520       1730.83	    45.574
  26.540       2301.67	    52.555
  26.560       2001.67	    49.010
  26.580       1465.00	    41.929
  26.600       1320.83	    39.812
  26.620       1195.00	    37.868
  26.640        761.67	    30.232
  26.660        413.33	    22.271
  26.680        324.17	    19.723
  26.700        280.00	    18.330
  26.720        332.50	    19.975
  26.740        414.17	    22.293
  26.760        449.17	    23.216
  26.780        481.67	    24.042
  26.800        484.17	    24.104
  26.820        463.33	    23.580
  26.840        399.17	    21.886
  26.860        324.17	    19.723
  26.880        286.67	    18.547
  26.900        197.50	    15.395
  26.920        166.67	    14.142
  26.940        155.83	    13.675
  26.960        125.83	    12.288
  26.980        100.83	    11.000
  27.000         98.33	    10.863
  27.020        120.83	    12.042
  27.040         90.00	    10.392
  27.060         78.33	     9.695
  27.080         75.00	     9.487
  27.100        108.33	    11.402
  27.120        109.17	    11.446
  27.140         87.50	    10.247
  27.160         73.33	     9.381
  27.180        107.50	    11.358
  27.200         68.33	     9.055
  27.220         78.33	     9.695
  27.240         66.67	     8.944
  27.260         74.17	     9.434
  27.280         66.67	     8.944
  27.300         86.67	    10.198
  27.320         91.67	    10.488
  27.340         78.33	     9.695
  27.360         99.17	    10.909
  27.380        117.50	    11.874
  27.400        145.00	    13.191
  27.420        157.50	    13.748
  27.440        136.67	    12.806
  27.460        111.67	    11.576
  27.480        125.00	    12.247
  27.500        116.67	    11.832
  27.520        114.17	    11.705
  27.540        118.33	    11.916
  27.560        132.50	    12.610
  27.580        127.50	    12.369
  27.600        161.67	    13.928
  27.620        210.00	    15.875
  27.640        250.00	    17.321
  27.660        224.17	    16.401
  27.680        211.67	    15.937
  27.700        230.83	    16.643
  27.720        235.00	    16.793
  27.740        227.50	    16.523
  27.760        245.00	    17.146
  27.780        310.83	    19.313
  27.800        415.00	    22.316
  27.820        510.83	    24.759
  27.840        497.50	    24.434
  27.860        421.67	    22.494
  27.880        394.17	    21.749
  27.900        306.67	    19.183
  27.920        222.50	    16.340
  27.940        179.17	    14.663
  27.960        147.50	    13.304
  27.980        125.83	    12.288
  28.000        131.67	    12.570
  28.020        138.33	    12.884
  28.040        140.00	    12.961
  28.060        130.83	    12.530
  28.080        130.00	    12.490
  28.100        105.00	    11.225
  28.120        120.00	    12.000
  28.140        111.67	    11.576
  28.160        101.67	    11.045
  28.180        114.17	    11.705
  28.200        107.50	    11.358
  28.220        100.00	    10.954
  28.240        112.50	    11.619
  28.260         76.67	     9.592
  28.280         76.67	     9.592
  28.300         80.00	     9.798
  28.320         65.00	     8.832
  28.340         67.50	     9.000
  28.360         56.67	     8.246
  28.380         63.33	     8.718
  28.400         65.83	     8.888
  28.420         61.67	     8.602
  28.440         70.83	     9.220
  28.460         69.17	     9.110
  28.480         70.83	     9.220
  28.500         82.50	     9.950
  28.520         86.67	    10.198
  28.540        104.17	    11.180
  28.560        120.83	    12.042
  28.580        118.33	    11.916
  28.600        103.33	    11.136
  28.620        103.33	    11.136
  28.640         98.33	    10.863
  28.660         90.00	    10.392
  28.680         84.17	    10.050
  28.700         68.33	     9.055
  28.720         66.67	     8.944
  28.740         84.17	    10.050
  28.760         57.50	     8.307
  28.780         55.83	     8.185
  28.800         55.83	     8.185
  28.820         70.00	     9.165
  28.840         65.00	     8.832
  28.860         51.67	     7.874
  28.880         60.83	     8.544
  28.900         49.17	     7.681
  28.920         57.50	     8.307
  28.940         50.83	     7.810
  28.960         50.83	     7.810
  28.980         50.00	     7.746
  29.000         51.67	     7.874
  29.020         48.33	     7.616
  29.040         59.17	     8.426
  29.060         48.33	     7.616
  29.080         47.50	     7.550
  29.100         48.33	     7.616
  29.120         50.83	     7.810
  29.140         50.00	     7.746
  29.160         45.00	     7.348
  29.180         52.50	     7.937
  29.200         46.67	     7.483
  29.220         48.33	     7.616
  29.240         51.67	     7.874
  29.260         55.00	     8.124
  29.280         48.33	     7.616
  29.300         48.33	     7.616
  29.320         59.17	     8.426
  29.340         49.17	     7.681
  29.360         42.50	     7.141
  29.380         70.00	     9.165
  29.400         64.17	     8.775
  29.420         60.00	     8.485
  29.440         81.67	     9.899
  29.460         52.50	     7.937
  29.480         63.33	     8.718
  29.500         50.83	     7.810
  29.520         49.17	     7.681
  29.540         50.00	     7.746
  29.560         43.33	     7.211
  29.580         63.33	     8.718
  29.600         61.67	     8.602
  29.620         60.83	     8.544
  29.640         69.17	     9.110
  29.660         86.67	    10.198
  29.680         79.17	     9.747
  29.700         81.67	     9.899
  29.720         99.17	    10.909
  29.740         95.83	    10.724
  29.760        104.17	    11.180
  29.780        111.67	    11.576
  29.800        125.00	    12.247
  29.820        114.17	    11.705
  29.840         99.17	    10.909
  29.860         96.67	    10.770
  29.880         80.83	     9.849
  29.900         91.67	    10.488
  29.920         77.50	     9.644
  29.940         80.83	     9.849
  29.960         89.17	    10.344
  29.980        101.67	    11.045
  30.000        129.17	    12.450
  30.020        136.67	    12.806
  30.040        125.83	    12.288
  30.060        105.00	    11.225
  30.080        105.00	    11.225
  30.100        121.67	    12.083
  30.120        121.67	    12.083
  30.140         98.33	    10.863
  30.160        100.00	    10.954
  30.180         79.17	     9.747
  30.200         86.67	    10.198
  30.220         70.00	     9.165
  30.240         87.50	    10.247
  30.260         95.00	    10.677
  30.280        101.67	    11.045
  30.300        106.67	    11.314
  30.320         93.33	    10.583
  30.340        105.83	    11.269
  30.360         98.33	    10.863
  30.380        153.33	    13.565
  30.400        123.33	    12.166
  30.420        105.00	    11.225
  30.440         89.17	    10.344
  30.460         94.17	    10.630
  30.480         77.50	     9.644
  30.500         69.17	     9.110
  30.520         72.50	     9.327
  30.540         76.67	     9.592
  30.560         64.17	     8.775
  30.580         61.67	     8.602
  30.600         84.17	    10.050
  30.620         97.50	    10.817
  30.640        101.67	    11.045
  30.660         75.00	     9.487
  30.680        109.17	    11.446
  30.700        160.00	    13.856
  30.720        373.33	    21.166
  30.740        498.33	    24.454
  30.760        451.67	    23.281
  30.780        295.83	    18.841
  30.800        282.50	    18.412
  30.820        325.83	    19.774
  30.840        293.33	    18.762
  30.860        175.83	    14.526
  30.880        107.50	    11.358
  30.900         82.50	     9.950
  30.920         69.17	     9.110
  30.940         63.33	     8.718
  30.960         85.00	    10.100
  30.980         65.00	     8.832
  31.000         60.83	     8.544
  31.020         74.17	     9.434
  31.040         86.67	    10.198
  31.060         85.00	    10.100
  31.080         84.17	    10.050
  31.100        107.50	    11.358
  31.120        100.83	    11.000
  31.140        106.67	    11.314
  31.160        113.33	    11.662
  31.180         95.00	    10.677
  31.200        106.67	    11.314
  31.220         98.33	    10.863
  31.240         90.00	    10.392
  31.260         75.00	     9.487
  31.280         54.17	     8.062
  31.300         67.50	     9.000
  31.320         53.33	     8.000
  31.340         53.33	     8.000
  31.360         51.67	     7.874
  31.380         65.00	     8.832
  31.400         61.67	     8.602
  31.420         49.17	     7.681
  31.440         60.83	     8.544
  31.460         72.50	     9.327
  31.480         71.67	     9.274
  31.500         77.50	     9.644
  31.520         68.33	     9.055
  31.540         58.33	     8.367
  31.560         65.00	     8.832
  31.580         60.83	     8.544
  31.600         55.00	     8.124
  31.620         55.00	     8.124
  31.640         45.00	     7.348
  31.660         58.33	     8.367
  31.680         50.83	     7.810
  31.700         56.67	     8.246
  31.720         57.50	     8.307
  31.740         54.17	     8.062
  31.760         65.00	     8.832
  31.780         48.33	     7.616
  31.800         73.33	     9.381
  31.820         71.67	     9.274
  31.840         79.17	     9.747
  31.860         67.50	     9.000
  31.880         56.67	     8.246
  31.900         70.83	     9.220
  31.920         90.00	    10.392
  31.940         70.83	     9.220
  31.960         67.50	     9.000
  31.980         73.33	     9.381
  32.000         71.67	     9.274
  32.020         71.67	     9.274
  32.040         66.67	     8.944
  32.060         71.67	     9.274
  32.080         77.50	     9.644
  32.100         76.67	     9.592
  32.120         85.00	    10.100
  32.140        120.83	    12.042
  32.160        134.17	    12.689
  32.180        135.83	    12.767
  32.200         90.83	    10.440
  32.220         96.67	    10.770
  32.240        121.67	    12.083
  32.260        104.17	    11.180
  32.280         73.33	     9.381
  32.300         58.33	     8.367
  32.320         50.00	     7.746
  32.340         45.00	     7.348
  32.360         52.50	     7.937
  32.380         40.83	     7.000
  32.400         41.67	     7.071
  32.420         30.00	     6.000
  32.440         60.00	     8.485
  32.460         45.83	     7.416
  32.480         51.67	     7.874
  32.500         49.17	     7.681
  32.520         40.83	     7.000
  32.540         46.67	     7.483
  32.560         49.17	     7.681
  32.580         47.50	     7.550
  32.600         40.00	     6.928
  32.620         59.17	     8.426
  32.640         43.33	     7.211
  32.660         44.17	     7.280
  32.680         53.33	     8.000
  32.700         52.50	     7.937
  32.720         42.50	     7.141
  32.740         44.17	     7.280
  32.760         63.33	     8.718
  32.780         59.17	     8.426
  32.800         60.00	     8.485
  32.820         51.67	     7.874
  32.840         55.83	     8.185
  32.860         71.67	     9.274
  32.880         70.00	     9.165
  32.900         68.33	     9.055
  32.920         64.17	     8.775
  32.940         75.00	     9.487
  32.960         73.33	     9.381
  32.980         75.83	     9.539
  33.000         58.33	     8.367
  33.020         56.67	     8.246
  33.040         70.00	     9.165
  33.060         67.50	     9.000
  33.080         51.67	     7.874
  33.100         48.33	     7.616
  33.120         40.83	     7.000
  33.140         36.67	     6.633
  33.160         44.17	     7.280
  33.180         45.83	     7.416
  33.200         44.17	     7.280
  33.220         48.33	     7.616
  33.240         43.33	     7.211
  33.260         55.00	     8.124
  33.280         55.00	     8.124
  33.300         48.33	     7.616
  33.320         49.17	     7.681
  33.340         50.00	     7.746
  33.360         38.33	     6.782
  33.380         48.33	     7.616
  33.400         40.83	     7.000
  33.420         50.83	     7.810
  33.440         46.67	     7.483
  33.460         40.00	     6.928
  33.480         49.17	     7.681
  33.500         47.50	     7.550
  33.520         45.00	     7.348
  33.540         56.67	     8.246
  33.560         45.83	     7.416
  33.580         44.17	     7.280
  33.600         42.50	     7.141
  33.620         46.67	     7.483
  33.640         51.67	     7.874
  33.660         45.83	     7.416
  33.680         51.67	     7.874
  33.700         41.67	     7.071
  33.720         40.00	     6.928
  33.740         47.50	     7.550
  33.760         54.17	     8.062
  33.780         55.83	     8.185
  33.800         63.33	     8.718
  33.820         60.00	     8.485
  33.840         63.33	     8.718
  33.860         69.17	     9.110
  33.880         65.83	     8.888
  33.900         64.17	     8.775
  33.920         60.83	     8.544
  33.940         68.33	     9.055
  33.960         65.00	     8.832
  33.980         65.83	     8.888
  34.000         60.00	     8.485
  34.020         52.50	     7.937
  34.040         79.17	     9.747
  34.060         88.33	    10.296
  34.080         79.17	     9.747
  34.100         68.33	     9.055
  34.120         69.17	     9.110
  34.140         93.33	    10.583
  34.160         72.50	     9.327
  34.180         72.50	     9.327
  34.200        107.50	    11.358
  34.220        110.00	    11.489
  34.240         78.33	     9.695
  34.260         80.83	     9.849
  34.280         90.83	    10.440
  34.300        111.67	    11.576
  34.320         87.50	    10.247
  34.340         85.83	    10.149
  34.360         85.83	    10.149
  34.380         85.83	    10.149
  34.400         93.33	    10.583
  34.420        105.00	    11.225
  34.440         90.83	    10.440
  34.460         97.50	    10.817
  34.480        100.00	    10.954
  34.500         75.83	     9.539
  34.520         95.00	    10.677
  34.540         91.67	    10.488
  34.560         82.50	     9.950
  34.580         79.17	     9.747
  34.600         78.33	     9.695
  34.620         80.83	     9.849
  34.640         66.67	     8.944
  34.660         85.00	    10.100
  34.680         85.83	    10.149
  34.700         71.67	     9.274
  34.720         78.33	     9.695
  34.740         98.33	    10.863
  34.760         97.50	    10.817
  34.780        106.67	    11.314
  34.800        129.17	    12.450
  34.820        137.50	    12.845
  34.840        127.50	    12.369
  34.860        120.00	    12.000
  34.880        112.50	    11.619
  34.900        135.00	    12.728
  34.920        160.00	    13.856
  34.940        118.33	    11.916
  34.960        103.33	    11.136
  34.980        110.83	    11.533
  35.000         93.33	    10.583
  35.020        119.17	    11.958
  35.040         82.50	     9.950
  35.060         84.17	    10.050
  35.080         65.00	     8.832
  35.100         79.17	     9.747
  35.120         89.17	    10.344
  35.140         65.00	     8.832
  35.160         67.50	     9.000
  35.180         70.00	     9.165
  35.200         66.67	     8.944
  35.220         85.83	    10.149
  35.240         65.00	     8.832
  35.260         80.00	     9.798
  35.280         73.33	     9.381
  35.300         76.67	     9.592
  35.320         83.33	    10.000
  35.340        103.33	    11.136
  35.360        113.33	    11.662
  35.380        114.17	    11.705
  35.400        106.67	    11.314
  35.420        120.00	    12.000
  35.440        140.00	    12.961
  35.460        148.33	    13.342
  35.480        138.33	    12.884
  35.500        135.00	    12.728
  35.520        152.50	    13.528
  35.540        135.00	    12.728
  35.560        107.50	    11.358
  35.580        116.67	    11.832
  35.600         95.83	    10.724
  35.620         95.00	    10.677
  35.640         71.67	     9.274
  35.660         69.17	     9.110
  35.680         77.50	     9.644
  35.700         76.67	     9.592
  35.720         64.17	     8.775
  35.740         48.33	     7.616
  35.760         64.17	     8.775
  35.780         60.00	     8.485
  35.800         67.50	     9.000
  35.820         54.17	     8.062
  35.840         69.17	     9.110
  35.860         58.33	     8.367
  35.880         66.67	     8.944
  35.900         57.50	     8.307
  35.920         62.50	     8.660
  35.940         64.17	     8.775
  35.960         84.17	    10.050
  35.980         69.17	     9.110
  36.000         81.67	     9.899
  36.020         77.50	     9.644
  36.040         77.50	     9.644
  36.060         82.50	     9.950
  36.080         65.83	     8.888
  36.100         75.83	     9.539
  36.120         73.33	     9.381
  36.140         76.67	     9.592
  36.160         56.67	     8.246
  36.180         60.83	     8.544
  36.200         53.33	     8.000
  36.220         68.33	     9.055
  36.240         74.17	     9.434
  36.260         63.33	     8.718
  36.280         64.17	     8.775
  36.300         87.50	    10.247
  36.320        115.83	    11.790
  36.340        195.83	    15.330
  36.360        450.00	    23.238
  36.380        910.00	    33.045
  36.400        716.67	    29.326
  36.420        450.00	    23.238
  36.440        445.00	    23.108
  36.460        627.50	    27.441
  36.480        630.83	    27.514
  36.500        376.67	    21.260
  36.520        282.50	    18.412
  36.540        246.67	    17.205
  36.560        200.83	    15.524
  36.580        147.50	    13.304
  36.600        121.67	    12.083
  36.620        145.00	    13.191
  36.640        155.00	    13.638
  36.660        175.83	    14.526
  36.680        136.67	    12.806
  36.700         88.33	    10.296
  36.720        105.83	    11.269
  36.740        118.33	    11.916
  36.760        109.17	    11.446
  36.780         69.17	     9.110
  36.800         57.50	     8.307
  36.820         57.50	     8.307
  36.840         54.17	     8.062
  36.860         69.17	     9.110
  36.880         59.17	     8.426
  36.900         58.33	     8.367
  36.920         60.00	     8.485
  36.940         59.17	     8.426
  36.960         52.50	     7.937
  36.980         74.17	     9.434
  37.000         49.17	     7.681
  37.020         49.17	     7.681
  37.040         62.50	     8.660
  37.060         66.67	     8.944
  37.080         60.83	     8.544
  37.100         63.33	     8.718
  37.120         65.83	     8.888
  37.140         65.83	     8.888
  37.160         55.00	     8.124
  37.180         66.67	     8.944
  37.200         65.83	     8.888
  37.220         55.83	     8.185
  37.240         62.50	     8.660
  37.260         58.33	     8.367
  37.280         64.17	     8.775
  37.300         63.33	     8.718
  37.320         63.33	     8.718
  37.340         65.00	     8.832
  37.360         70.83	     9.220
  37.380         80.83	     9.849
  37.400         78.33	     9.695
  37.420         72.50	     9.327
  37.440         71.67	     9.274
  37.460         73.33	     9.381
  37.480         69.17	     9.110
  37.500         76.67	     9.592
  37.520         88.33	    10.296
  37.540         93.33	    10.583
  37.560         81.67	     9.899
  37.580         75.00	     9.487
  37.600         70.83	     9.220
  37.620         76.67	     9.592
  37.640         77.50	     9.644
  37.660         70.83	     9.220
  37.680         69.17	     9.110
  37.700         57.50	     8.307
  37.720         57.50	     8.307
  37.740         60.83	     8.544
  37.760         59.17	     8.426
  37.780         40.00	     6.928
  37.800         55.00	     8.124
  37.820         47.50	     7.550
  37.840         49.17	     7.681
  37.860         46.67	     7.483
  37.880         41.67	     7.071
  37.900         40.83	     7.000
  37.920         34.17	     6.403
  37.940         28.33	     5.831
  37.960         45.00	     7.348
  37.980         37.50	     6.708
  38.000         47.50	     7.550
  38.020         41.67	     7.071
  38.040         27.50	     5.745
  38.060         34.17	     6.403
  38.080         45.00	     7.348
  38.100         29.17	     5.916
  38.120         42.50	     7.141
  38.140         40.00	     6.928
  38.160         37.50	     6.708
  38.180         39.17	     6.856
  38.200         35.83	     6.557
  38.220         50.83	     7.810
  38.240         36.67	     6.633
  38.260         49.17	     7.681
  38.280         33.33	     6.325
  38.300         41.67	     7.071
  38.320         49.17	     7.681
  38.340         48.33	     7.616
  38.360         50.83	     7.810
  38.380         50.83	     7.810
  38.400         45.00	     7.348
  38.420         49.17	     7.681
  38.440         46.67	     7.483
  38.460         65.00	     8.832
  38.480         68.33	     9.055
  38.500         70.00	     9.165
  38.520         75.83	     9.539
  38.540         76.67	     9.592
  38.560         64.17	     8.775
  38.580         71.67	     9.274
  38.600         55.00	     8.124
  38.620         48.33	     7.616
  38.640         75.83	     9.539
  38.660         54.17	     8.062
  38.680         71.67	     9.274
  38.700         57.50	     8.307
  38.720         50.83	     7.810
  38.740         62.50	     8.660
  38.760         45.83	     7.416
  38.780         48.33	     7.616
  38.800         53.33	     8.000
  38.820         68.33	     9.055
  38.840         36.67	     6.633
  38.860         51.67	     7.874
  38.880         45.83	     7.416
  38.900         45.83	     7.416
  38.920         48.33	     7.616
  38.940         56.67	     8.246
  38.960         49.17	     7.681
  38.980         50.00	     7.746
  39.000         68.33	     9.055
  39.020         70.83	     9.220
  39.040         60.83	     8.544
  39.060         64.17	     8.775
  39.080         70.00	     9.165
  39.100         82.50	     9.950
  39.120         93.33	    10.583
  39.140         97.50	    10.817
  39.160         86.67	    10.198
  39.180         69.17	     9.110
  39.200         63.33	     8.718
  39.220         66.67	     8.944
  39.240         70.83	     9.220
  39.260         65.00	     8.832
  39.280         73.33	     9.381
  39.300         75.00	     9.487
  39.320        104.17	    11.180
  39.340        143.33	    13.115
  39.360        166.67	    14.142
  39.380        185.83	    14.933
  39.400        130.00	    12.490
  39.420        100.00	    10.954
  39.440        110.00	    11.489
  39.460        101.67	    11.045
  39.480        134.17	    12.689
  39.500         96.67	    10.770
  39.520         71.67	     9.274
  39.540         58.33	     8.367
  39.560         67.50	     9.000
  39.580         55.00	     8.124
  39.600         51.67	     7.874
  39.620         64.17	     8.775
  39.640         52.50	     7.937
  39.660         45.83	     7.416
  39.680         50.00	     7.746
  39.700         42.50	     7.141
  39.720         42.50	     7.141
  39.740         52.50	     7.937
  39.760         38.33	     6.782
  39.780         57.50	     8.307
  39.800         50.83	     7.810
  39.820         53.33	     8.000
  39.840         54.17	     8.062
  39.860         47.50	     7.550
  39.880         50.00	     7.746
  39.900         52.50	     7.937
  39.920         60.83	     8.544
  39.940         60.83	     8.544
  39.960         60.00	     8.485
  39.980         58.33	     8.367
  40.000         49.17	     7.681
  40.020         53.33	     8.000
  40.040         48.33	     7.616
  40.060         42.50	     7.141
  40.080         63.33	     8.718
  40.100         45.83	     7.416
  40.120         65.00	     8.832
  40.140         84.17	    10.050
  40.160         91.67	    10.488
  40.180        122.50	    12.124
  40.200        137.50	    12.845
  40.220        106.67	    11.314
  40.240         82.50	     9.950
  40.260         72.50	     9.327
  40.280         80.00	     9.798
  40.300        100.00	    10.954
  40.320         99.17	    10.909
  40.340         57.50	     8.307
  40.360         60.00	     8.485
  40.380         60.00	     8.485
  40.400         53.33	     8.000
  40.420         48.33	     7.616
  40.440         45.83	     7.416
  40.460         46.67	     7.483
  40.480         47.50	     7.550
  40.500         39.17	     6.856
  40.520         42.50	     7.141
  40.540         39.17	     6.856
  40.560         41.67	     7.071
  40.580         33.33	     6.325
  40.600         45.00	     7.348
  40.620         43.33	     7.211
  40.640         50.83	     7.810
  40.660         41.67	     7.071
  40.680         44.17	     7.280
  40.700         51.67	     7.874
  40.720         51.67	     7.874
  40.740         49.17	     7.681
  40.760         53.33	     8.000
  40.780         43.33	     7.211
  40.800         50.83	     7.810
  40.820         47.50	     7.550
  40.840         50.00	     7.746
  40.860         51.67	     7.874
  40.880         47.50	     7.550
  40.900         54.17	     8.062
  40.920         46.67	     7.483
  40.940         50.83	     7.810
  40.960         39.17	     6.856
  40.980         40.83	     7.000
  41.000         41.67	     7.071
  41.020         44.17	     7.280
  41.040         56.67	     8.246
  41.060         51.67	     7.874
  41.080         50.83	     7.810
  41.100         61.67	     8.602
  41.120         83.33	    10.000
  41.140         67.50	     9.000
  41.160         66.67	     8.944
  41.180         55.00	     8.124
  41.200         39.17	     6.856
  41.220         78.33	     9.695
  41.240         56.67	     8.246
  41.260         47.50	     7.550
  41.280         54.17	     8.062
  41.300         60.00	     8.485
  41.320         48.33	     7.616
  41.340         34.17	     6.403
  41.360         42.50	     7.141
  41.380         55.83	     8.185
  41.400         41.67	     7.071
  41.420         41.67	     7.071
  41.440         50.00	     7.746
  41.460         40.83	     7.000
  41.480         55.83	     8.185
  41.500         65.83	     8.888
  41.520         59.17	     8.426
  41.540         66.67	     8.944
  41.560         80.83	     9.849
  41.580         60.83	     8.544
  41.600         66.67	     8.944
  41.620         80.83	     9.849
  41.640         85.00	    10.100
  41.660         92.50	    10.536
  41.680         74.17	     9.434
  41.700         70.83	     9.220
  41.720         70.00	     9.165
  41.740         65.83	     8.888
  41.760         75.00	     9.487
  41.780         56.67	     8.246
  41.800         80.83	     9.849
  41.820         74.17	     9.434
  41.840         70.00	     9.165
  41.860         64.17	     8.775
  41.880         72.50	     9.327
  41.900         68.33	     9.055
  41.920         70.00	     9.165
  41.940         63.33	     8.718
  41.960         63.33	     8.718
  41.980         66.67	     8.944
  42.000         60.00	     8.485
  42.020         54.17	     8.062
  42.040         44.17	     7.280
  42.060         50.00	     7.746
  42.080         57.50	     8.307
  42.100         55.00	     8.124
  42.120         55.83	     8.185
  42.140         53.33	     8.000
  42.160         59.17	     8.426
  42.180         59.17	     8.426
  42.200         66.67	     8.944
  42.220         70.83	     9.220
  42.240         75.00	     9.487
  42.260         73.33	     9.381
  42.280         82.50	     9.950
  42.300        118.33	    11.916
  42.320        133.33	    12.649
  42.340        149.17	    13.379
  42.360        189.17	    15.067
  42.380        142.50	    13.077
  42.400        124.17	    12.207
  42.420        105.00	    11.225
  42.440        116.67	    11.832
  42.460        113.33	    11.662
  42.480        113.33	    11.662
  42.500         84.17	    10.050
  42.520         83.33	    10.000
  42.540         68.33	     9.055
  42.560         79.17	     9.747
  42.580         72.50	     9.327
  42.600         65.00	     8.832
  42.620         64.17	     8.775
  42.640         65.00	     8.832
  42.660         58.33	     8.367
  42.680         67.50	     9.000
  42.700         69.17	     9.110
  42.720         62.50	     8.660
  42.740         75.83	     9.539
  42.760         67.50	     9.000
  42.780         61.67	     8.602
  42.800         68.33	     9.055
  42.820         58.33	     8.367
  42.840         55.83	     8.185
  42.860         54.17	     8.062
  42.880         75.00	     9.487
  42.900         39.17	     6.856
  42.920         50.00	     7.746
  42.940         49.17	     7.681
  42.960         47.50	     7.550
  42.980         55.00	     8.124
  43.000         54.17	     8.062
  43.020         45.00	     7.348
  43.040         47.50	     7.550
  43.060         55.00	     8.124
  43.080         61.67	     8.602
  43.100         46.67	     7.483
  43.120         48.33	     7.616
  43.140         57.50	     8.307
  43.160         64.17	     8.775
  43.180         76.67	     9.592
  43.200         63.33	     8.718
  43.220         65.83	     8.888
  43.240         51.67	     7.874
  43.260         72.50	     9.327
  43.280         82.50	     9.950
  43.300         64.17	     8.775
  43.320         78.33	     9.695
  43.340         82.50	     9.950
  43.360         75.83	     9.539
  43.380         79.17	     9.747
  43.400         87.50	    10.247
  43.420         90.00	    10.392
  43.440        109.17	    11.446
  43.460        108.33	    11.402
  43.480        100.00	    10.954
  43.500        111.67	    11.576
  43.520        106.67	    11.314
  43.540        113.33	    11.662
  43.560        109.17	    11.446
  43.580        110.83	    11.533
  43.600        111.67	    11.576
  43.620        129.17	    12.450
  43.640        134.17	    12.689
  43.660        116.67	    11.832
  43.680        118.33	    11.916
  43.700        124.17	    12.207
  43.720        118.33	    11.916
  43.740        103.33	    11.136
  43.760         97.50	    10.817
  43.780        101.67	    11.045
  43.800        117.50	    11.874
  43.820        110.00	    11.489
  43.840        120.00	    12.000
  43.860        108.33	    11.402
  43.880         91.67	    10.488
  43.900        109.17	    11.446
  43.920         89.17	    10.344
  43.940        103.33	    11.136
  43.960        130.83	    12.530
  43.980        105.00	    11.225
  44.000        106.67	    11.314
  44.020        114.17	    11.705
  44.040        100.83	    11.000
  44.060        129.17	    12.450
  44.080        111.67	    11.576
  44.100        135.83	    12.767
  44.120        127.50	    12.369
  44.140        128.33	    12.410
  44.160        155.00	    13.638
  44.180        155.83	    13.675
  44.200        162.50	    13.964
  44.220        159.17	    13.820
  44.240        188.33	    15.033
  44.260        211.67	    15.937
  44.280        223.33	    16.371
  44.300        248.33	    17.263
  44.320        263.33	    17.776
  44.340        252.50	    17.407
  44.360        241.67	    17.029
  44.380        270.83	    18.028
  44.400        266.67	    17.889
  44.420        248.33	    17.263
  44.440        276.67	    18.221
  44.460        264.17	    17.804
  44.480        267.50	    17.916
  44.500        269.17	    17.972
  44.520        245.00	    17.146
  44.540        236.67	    16.852
  44.560        231.67	    16.673
  44.580        201.67	    15.556
  44.600        210.83	    15.906
  44.620        210.83	    15.906
  44.640        181.67	    14.765
  44.660        179.17	    14.663
  44.680        165.00	    14.071
  44.700        151.67	    13.491
  44.720        135.83	    12.767
  44.740        140.00	    12.961
  44.760        140.00	    12.961
  44.780        125.00	    12.247
  44.800        123.33	    12.166
  44.820        125.00	    12.247
  44.840        125.83	    12.288
  44.860        137.50	    12.845
  44.880        109.17	    11.446
  44.900        128.33	    12.410
  44.920        104.17	    11.180
  44.940        103.33	    11.136
  44.960         96.67	    10.770
  44.980         89.17	    10.344
  45.000         68.33	     9.055
  45.020         86.67	    10.198
  45.040         89.17	    10.344
  45.060         82.50	     9.950
  45.080         66.67	     8.944
  45.100         75.83	     9.539
  45.120         94.17	    10.630
  45.140         80.00	     9.798
  45.160         80.83	     9.849
  45.180         60.83	     8.544
  45.200         70.83	     9.220
  45.220         88.33	    10.296
  45.240         77.50	     9.644
  45.260         80.83	     9.849
  45.280         97.50	    10.817
  45.300        103.33	    11.136
  45.320        105.00	    11.225
  45.340         93.33	    10.583
  45.360        113.33	    11.662
  45.380        135.83	    12.767
  45.400        128.33	    12.410
  45.420        129.17	    12.450
  45.440        155.00	    13.638
  45.460        174.17	    14.457
  45.480        199.17	    15.460
  45.500        196.67	    15.362
  45.520        172.50	    14.387
  45.540        173.33	    14.422
  45.560        122.50	    12.124
  45.580        130.00	    12.490
  45.600        140.00	    12.961
  45.620        127.50	    12.369
  45.640        154.17	    13.601
  45.660        185.83	    14.933
  45.680        230.00	    16.613
  45.700        207.50	    15.780
  45.720        163.33	    14.000
  45.740        122.50	    12.124
  45.760         91.67	    10.488
  45.780        100.83	    11.000
  45.800        135.83	    12.767
  45.820        112.50	    11.619
  45.840        106.67	    11.314
  45.860         85.00	    10.100
  45.880         65.00	     8.832
  45.900         59.17	     8.426
  45.920         47.50	     7.550
  45.940         57.50	     8.307
  45.960         53.33	     8.000
  45.980         52.50	     7.937
  46.000         50.00	     7.746
  46.020         44.17	     7.280
  46.040         45.83	     7.416
  46.060         49.17	     7.681
  46.080         40.00	     6.928
  46.100         40.00	     6.928
  46.120         39.17	     6.856
  46.140         35.00	     6.481
  46.160         51.67	     7.874
  46.180         38.33	     6.782
  46.200         32.50	     6.245
  46.220         31.67	     6.164
  46.240         45.83	     7.416
  46.260         40.00	     6.928
  46.280         39.17	     6.856
  46.300         22.50	     5.196
  46.320         26.67	     5.657
  46.340         51.67	     7.874
  46.360         29.17	     5.916
  46.380         40.83	     7.000
  46.400         35.83	     6.557
  46.420         45.83	     7.416
  46.440         31.67	     6.164
  46.460         51.67	     7.874
  46.480         38.33	     6.782
  46.500         53.33	     8.000
  46.520         34.17	     6.403
  46.540         36.67	     6.633
  46.560         40.83	     7.000
  46.580         33.33	     6.325
  46.600         47.50	     7.550
  46.620         33.33	     6.325
  46.640         31.67	     6.164
  46.660         38.33	     6.782
  46.680         39.17	     6.856
  46.700         27.50	     5.745
  46.720         40.83	     7.000
  46.740         58.33	     8.367
  46.760         46.67	     7.483
  46.780         36.67	     6.633
  46.800         41.67	     7.071
  46.820         48.33	     7.616
  46.840         39.17	     6.856
  46.860         44.17	     7.280
  46.880         55.00	     8.124
  46.900         54.17	     8.062
  46.920         54.17	     8.062
  46.940         58.33	     8.367
  46.960         55.83	     8.185
  46.980         87.50	    10.247
  47.000        104.17	    11.180
  47.020         92.50	    10.536
  47.040        111.67	    11.576
  47.060         97.50	    10.817
  47.080         75.00	     9.487
  47.100         83.33	    10.000
  47.120         70.83	     9.220
  47.140         77.50	     9.644
  47.160         82.50	     9.950
  47.180         80.83	     9.849
  47.200         59.17	     8.426
  47.220         55.83	     8.185
  47.240         40.00	     6.928
  47.260         45.00	     7.348
  47.280         46.67	     7.483
  47.300         48.33	     7.616
  47.320         40.83	     7.000
  47.340         41.67	     7.071
  47.360         44.17	     7.280
  47.380         41.67	     7.071
  47.400         36.67	     6.633
  47.420         37.50	     6.708
  47.440         35.83	     6.557
  47.460         28.33	     5.831
  47.480         46.67	     7.483
  47.500         30.83	     6.083
  47.520         42.50	     7.141
  47.540         37.50	     6.708
  47.560         36.67	     6.633
  47.580         31.67	     6.164
  47.600         35.00	     6.481
  47.620         30.00	     6.000
  47.640         35.00	     6.481
  47.660         39.17	     6.856
  47.680         28.33	     5.831
  47.700         30.00	     6.000
  47.720         31.67	     6.164
  47.740         39.17	     6.856
  47.760         39.17	     6.856
  47.780         35.00	     6.481
  47.800         44.17	     7.280
  47.820         59.17	     8.426
  47.840         40.83	     7.000
  47.860         30.00	     6.000
  47.880         55.00	     8.124
  47.900         59.17	     8.426
  47.920         42.50	     7.141
  47.940         41.67	     7.071
  47.960         39.17	     6.856
  47.980         36.67	     6.633
  48.000         41.67	     7.071
  48.020         56.67	     8.246
  48.040         61.67	     8.602
  48.060         51.67	     7.874
  48.080         59.17	     8.426
  48.100         60.00	     8.485
  48.120         64.17	     8.775
  48.140         59.17	     8.426
  48.160         63.33	     8.718
  48.180         56.67	     8.246
  48.200         47.50	     7.550
  48.220         46.67	     7.483
  48.240         60.00	     8.485
  48.260         49.17	     7.681
  48.280         50.83	     7.810
  48.300         51.67	     7.874
  48.320         45.83	     7.416
  48.340         47.50	     7.550
  48.360         48.33	     7.616
  48.380         47.50	     7.550
  48.400         34.17	     6.403
  48.420         45.00	     7.348
  48.440         58.33	     8.367
  48.460         45.00	     7.348
  48.480         41.67	     7.071
  48.500         36.67	     6.633
  48.520         58.33	     8.367
  48.540         47.50	     7.550
  48.560         55.83	     8.185
  48.580         45.00	     7.348
  48.600         42.50	     7.141
  48.620         47.50	     7.550
  48.640         49.17	     7.681
  48.660         35.00	     6.481
  48.680         50.83	     7.810
  48.700         45.83	     7.416
  48.720         47.50	     7.550
  48.740         45.83	     7.416
  48.760         45.83	     7.416
  48.780         50.83	     7.810
  48.800         37.50	     6.708
  48.820         44.17	     7.280
  48.840         50.00	     7.746
  48.860         45.00	     7.348
  48.880         46.67	     7.483
  48.900         37.50	     6.708
  48.920         47.50	     7.550
  48.940         35.83	     6.557
  48.960         49.17	     7.681
  48.980         48.33	     7.616
  49.000         35.83	     6.557
  49.020         56.67	     8.246
  49.040         46.67	     7.483
  49.060         58.33	     8.367
  49.080         51.67	     7.874
  49.100         68.33	     9.055
  49.120         57.50	     8.307
  49.140         64.17	     8.775
  49.160         51.67	     7.874
  49.180         40.83	     7.000
  49.200         40.00	     6.928
  49.220         47.50	     7.550
  49.240         40.83	     7.000
  49.260         58.33	     8.367
  49.280         49.17	     7.681
  49.300         56.67	     8.246
  49.320         44.17	     7.280
  49.340         50.83	     7.810
  49.360         49.17	     7.681
  49.380         45.83	     7.416
  49.400         40.00	     6.928
  49.420         54.17	     8.062
  49.440         53.33	     8.000
  49.460         44.17	     7.280
  49.480         50.00	     7.746
  49.500         57.50	     8.307
  49.520         39.17	     6.856
  49.540         54.17	     8.062
  49.560         50.83	     7.810
  49.580         50.83	     7.810
  49.600         39.17	     6.856
  49.620         41.67	     7.071
  49.640         31.67	     6.164
  49.660         63.33	     8.718
  49.680         56.67	     8.246
  49.700         60.83	     8.544
  49.720         60.83	     8.544
  49.740         58.33	     8.367
  49.760         67.50	     9.000
  49.780         70.83	     9.220
  49.800         79.17	     9.747
  49.820         95.00	    10.677
  49.840         69.17	     9.110
  49.860         71.67	     9.274
  49.880         69.17	     9.110
  49.900         66.67	     8.944
  49.920         69.17	     9.110
  49.940         90.83	    10.440
  49.960        121.67	    12.083
  49.980        164.17	    14.036
  50.000        217.50	    16.155
  50.020        372.50	    21.142
  50.040        423.33	    22.539
  50.060        367.50	    21.000
  50.080        240.00	    16.971
  50.100        170.83	    14.318
  50.120        164.17	    14.036
  50.140        183.33	    14.832
  50.160        245.00	    17.146
  50.180        231.67	    16.673
  50.200        220.83	    16.279
  50.220        135.00	    12.728
  50.240         95.83	    10.724
  50.260         68.33	     9.055
  50.280         62.50	     8.660
  50.300         60.83	     8.544
  50.320         58.33	     8.367
  50.340         59.17	     8.426
  50.360         77.50	     9.644
  50.380         66.67	     8.944
  50.400         75.00	     9.487
  50.420         61.67	     8.602
  50.440         64.17	     8.775
  50.460         75.83	     9.539
  50.480         68.33	     9.055
  50.500         96.67	    10.770
  50.520         83.33	    10.000
  50.540         70.83	     9.220
  50.560         70.83	     9.220
  50.580         58.33	     8.367
  50.600         71.67	     9.274
  50.620         55.00	     8.124
  50.640         72.50	     9.327
  50.660         70.83	     9.220
  50.680         59.17	     8.426
  50.700         48.33	     7.616
  50.720         50.00	     7.746
  50.740         37.50	     6.708
  50.760         54.17	     8.062
  50.780         50.00	     7.746
  50.800         36.67	     6.633
  50.820         39.17	     6.856
  50.840         38.33	     6.782
  50.860         44.17	     7.280
  50.880         40.00	     6.928
  50.900         44.17	     7.280
  50.920         42.50	     7.141
  50.940         57.50	     8.307
  50.960         51.67	     7.874
  50.980         60.83	     8.544
  51.000         61.67	     8.602
  51.020         60.83	     8.544
  51.040         73.33	     9.381
  51.060         61.67	     8.602
  51.080         80.00	     9.798
  51.100         61.67	     8.602
  51.120         54.17	     8.062
  51.140         56.67	     8.246
  51.160         68.33	     9.055
  51.180         52.50	     7.937
  51.200         59.17	     8.426
  51.220         55.00	     8.124
  51.240         50.83	     7.810
  51.260         49.17	     7.681
  51.280         48.33	     7.616
  51.300         40.00	     6.928
  51.320         35.83	     6.557
  51.340         53.33	     8.000
  51.360         44.17	     7.280
  51.380         50.83	     7.810
  51.400         45.00	     7.348
  51.420         51.67	     7.874
  51.440         45.00	     7.348
  51.460         35.00	     6.481
  51.480         30.00	     6.000
  51.500         37.50	     6.708
  51.520         44.17	     7.280
  51.540         36.67	     6.633
  51.560         40.00	     6.928
  51.580         35.83	     6.557
  51.600         29.17	     5.916
  51.620         30.83	     6.083
  51.640         38.33	     6.782
  51.660         33.33	     6.325
  51.680         30.83	     6.083
  51.700         33.33	     6.325
  51.720         25.83	     5.568
  51.740         25.83	     5.568
  51.760         20.83	     5.000
  51.780         33.33	     6.325
  51.800         20.00	     4.899
  51.820         35.00	     6.481
  51.840         30.00	     6.000
  51.860         39.17	     6.856
  51.880         32.50	     6.245
  51.900         33.33	     6.325
  51.920         35.00	     6.481
  51.940         29.17	     5.916
  51.960         32.50	     6.245
  51.980         40.83	     7.000
  52.000         49.17	     7.681
  52.020         44.17	     7.280
  52.040         47.50	     7.550
  52.060         43.33	     7.211
  52.080         52.50	     7.937
  52.100         28.33	     5.831
  52.120         38.33	     6.782
  52.140         63.33	     8.718
  52.160         40.83	     7.000
  52.180         45.83	     7.416
  52.200         54.17	     8.062
  52.220         45.00	     7.348
  52.240         55.83	     8.185
  52.260         36.67	     6.633
  52.280         41.67	     7.071
  52.300         46.67	     7.483
  52.320         53.33	     8.000
  52.340         50.83	     7.810
  52.360         55.83	     8.185
  52.380         51.67	     7.874
  52.400         58.33	     8.367
  52.420         43.33	     7.211
  52.440         54.17	     8.062
  52.460         56.67	     8.246
  52.480         40.83	     7.000
  52.500         34.17	     6.403
  52.520         36.67	     6.633
  52.540         44.17	     7.280
  52.560         45.00	     7.348
  52.580         48.33	     7.616
  52.600         50.83	     7.810
  52.620         58.33	     8.367
  52.640         64.17	     8.775
  52.660         56.67	     8.246
  52.680         45.83	     7.416
  52.700         34.17	     6.403
  52.720         50.83	     7.810
  52.740         46.67	     7.483
  52.760         50.83	     7.810
  52.780         50.83	     7.810
  52.800         53.33	     8.000
  52.820         44.17	     7.280
  52.840         47.50	     7.550
  52.860         50.83	     7.810
  52.880         40.00	     6.928
  52.900         53.33	     8.000
  52.920         38.33	     6.782
  52.940         39.17	     6.856
  52.960         45.83	     7.416
  52.980         51.67	     7.874
  53.000         47.50	     7.550
  53.020         45.83	     7.416
  53.040         42.50	     7.141
  53.060         54.17	     8.062
  53.080         51.67	     7.874
  53.100         52.50	     7.937
  53.120         59.17	     8.426
  53.140         67.50	     9.000
  53.160         46.67	     7.483
  53.180         54.17	     8.062
  53.200         35.83	     6.557
  53.220         59.17	     8.426
  53.240         50.00	     7.746
  53.260         53.33	     8.000
  53.280         35.00	     6.481
  53.300         44.17	     7.280
  53.320         43.33	     7.211
  53.340         35.83	     6.557
  53.360         32.50	     6.245
  53.380         29.17	     5.916
  53.400         45.00	     7.348
  53.420         33.33	     6.325
  53.440         33.33	     6.325
  53.460         31.67	     6.164
  53.480         39.17	     6.856
  53.500         33.33	     6.325
  53.520         35.83	     6.557
  53.540         24.17	     5.385
  53.560         43.33	     7.211
  53.580         43.33	     7.211
  53.600         39.17	     6.856
  53.620         28.33	     5.831
  53.640         42.50	     7.141
  53.660         35.00	     6.481
  53.680         37.50	     6.708
  53.700         33.33	     6.325
  53.720         37.50	     6.708
  53.740         39.17	     6.856
  53.760         37.50	     6.708
  53.780         39.17	     6.856
  53.800         35.00	     6.481
  53.820         40.00	     6.928
  53.840         35.00	     6.481
  53.860         27.50	     5.745
  53.880         27.50	     5.745
  53.900         30.83	     6.083
  53.920         31.67	     6.164
  53.940         33.33	     6.325
  53.960         30.00	     6.000
  53.980         42.50	     7.141
  54.000         30.83	     6.083
  54.020         37.50	     6.708
  54.040         36.67	     6.633
  54.060         33.33	     6.325
  54.080         26.67	     5.657
  54.100         37.50	     6.708
  54.120         43.33	     7.211
  54.140         26.67	     5.657
  54.160         43.33	     7.211
  54.180         39.17	     6.856
  54.200         48.33	     7.616
  54.220         34.17	     6.403
  54.240         36.67	     6.633
  54.260         37.50	     6.708
  54.280         45.83	     7.416
  54.300         46.67	     7.483
  54.320         41.67	     7.071
  54.340         45.83	     7.416
  54.360         48.33	     7.616
  54.380         35.00	     6.481
  54.400         41.67	     7.071
  54.420         44.17	     7.280
  54.440         50.83	     7.810
  54.460         45.83	     7.416
  54.480         43.33	     7.211
  54.500         50.00	     7.746
  54.520         51.67	     7.874
  54.540         37.50	     6.708
  54.560         39.17	     6.856
  54.580         40.00	     6.928
  54.600         45.00	     7.348
  54.620         40.83	     7.000
  54.640         45.83	     7.416
  54.660         56.67	     8.246
  54.680         54.17	     8.062
  54.700         60.00	     8.485
  54.720         80.00	     9.798
  54.740         91.67	    10.488
  54.760        120.00	    12.000
  54.780        175.00	    14.491
  54.800        155.00	    13.638
  54.820        103.33	    11.136
  54.840         56.67	     8.246
  54.860         72.50	     9.327
  54.880         80.83	     9.849
  54.900         82.50	     9.950
  54.920        111.67	    11.576
  54.940        110.00	    11.489
  54.960         95.83	    10.724
  54.980         60.83	     8.544
  55.000         49.17	     7.681
  55.020         39.17	     6.856
  55.040         50.00	     7.746
  55.060         39.17	     6.856
  55.080         60.00	     8.485
  55.100         51.67	     7.874
  55.120         42.50	     7.141
  55.140         50.00	     7.746
  55.160         55.83	     8.185
  55.180         55.00	     8.124
  55.200         60.00	     8.485
  55.220         71.67	     9.274
  55.240         62.50	     8.660
  55.260         53.33	     8.000
  55.280         55.83	     8.185
  55.300         54.17	     8.062
  55.320         50.83	     7.810
  55.340         52.50	     7.937
  55.360         65.83	     8.888
  55.380         74.17	     9.434
  55.400         59.17	     8.426
  55.420         47.50	     7.550
  55.440         58.33	     8.367
  55.460         50.00	     7.746
  55.480         50.00	     7.746
  55.500         62.50	     8.660
  55.520         47.50	     7.550
  55.540         62.50	     8.660
  55.560         53.33	     8.000
  55.580         46.67	     7.483
  55.600         45.83	     7.416
  55.620         52.50	     7.937
  55.640         65.00	     8.832
  55.660         64.17	     8.775
  55.680         65.00	     8.832
  55.700         54.17	     8.062
  55.720         62.50	     8.660
  55.740         58.33	     8.367
  55.760         47.50	     7.550
  55.780         50.00	     7.746
  55.800         73.33	     9.381
  55.820         70.83	     9.220
  55.840         67.50	     9.000
  55.860         63.33	     8.718
  55.880         70.00	     9.165
  55.900         60.00	     8.485
  55.920         54.17	     8.062
  55.940         51.67	     7.874
  55.960         53.33	     8.000
  55.980         41.67	     7.071
  56.000         47.50	     7.550
  56.020         50.83	     7.810
  56.040         68.33	     9.055
  56.060         58.33	     8.367
  56.080         56.67	     8.246
  56.100         36.67	     6.633
  56.120         45.00	     7.348
  56.140         50.00	     7.746
  56.160         37.50	     6.708
  56.180         26.67	     5.657
  56.200         45.83	     7.416
  56.220         35.83	     6.557
  56.240         35.83	     6.557
  56.260         30.00	     6.000
  56.280         32.50	     6.245
  56.300         39.17	     6.856
  56.320         36.67	     6.633
  56.340         45.00	     7.348
  56.360         40.83	     7.000
  56.380         25.00	     5.477
  56.400         45.00	     7.348
  56.420         38.33	     6.782
  56.440         30.00	     6.000
  56.460         44.17	     7.280
  56.480         38.33	     6.782
  56.500         47.50	     7.550
  56.520         40.83	     7.000
  56.540         42.50	     7.141
  56.560         31.67	     6.164
  56.580         42.50	     7.141
  56.600         30.83	     6.083
  56.620         36.67	     6.633
  56.640         37.50	     6.708
  56.660         45.83	     7.416
  56.680         40.00	     6.928
  56.700         26.67	     5.657
  56.720         42.50	     7.141
  56.740         33.33	     6.325
  56.760         45.83	     7.416
  56.780         30.00	     6.000
  56.800         35.83	     6.557
  56.820         36.67	     6.633
  56.840         49.17	     7.681
  56.860         40.00	     6.928
  56.880         41.67	     7.071
  56.900         39.17	     6.856
  56.920         49.17	     7.681
  56.940         30.00	     6.000
  56.960         40.00	     6.928
  56.980         42.50	     7.141
  57.000         41.67	     7.071
  57.020         40.00	     6.928
  57.040         42.50	     7.141
  57.060         38.33	     6.782
  57.080         37.50	     6.708
  57.100         48.33	     7.616
  57.120         35.83	     6.557
  57.140         48.33	     7.616
  57.160         44.17	     7.280
  57.180         38.33	     6.782
  57.200         43.33	     7.211
  57.220         43.33	     7.211
  57.240         58.33	     8.367
  57.260         32.50	     6.245
  57.280         30.00	     6.000
  57.300         36.67	     6.633
  57.320         43.33	     7.211
  57.340         41.67	     7.071
  57.360         37.50	     6.708
  57.380         36.67	     6.633
  57.400         29.17	     5.916
  57.420         33.33	     6.325
  57.440         27.50	     5.745
  57.460         40.83	     7.000
  57.480         35.00	     6.481
  57.500         25.83	     5.568
  57.520         28.33	     5.831
  57.540         29.17	     5.916
  57.560         46.67	     7.483
  57.580         40.00	     6.928
  57.600         44.17	     7.280
  57.620         40.83	     7.000
  57.640         25.83	     5.568
  57.660         30.00	     6.000
  57.680         35.00	     6.481
  57.700         43.33	     7.211
  57.720         39.17	     6.856
  57.740         33.33	     6.325
  57.760         24.17	     5.385
  57.780         32.50	     6.245
  57.800         30.00	     6.000
  57.820         30.83	     6.083
  57.840         40.00	     6.928
  57.860         36.67	     6.633
  57.880         38.33	     6.782
  57.900         32.50	     6.245
  57.920         39.17	     6.856
  57.940         39.17	     6.856
  57.960         42.50	     7.141
  57.980         44.17	     7.280
  58.000         45.00	     7.348
  58.020         53.33	     8.000
  58.040         50.00	     7.746
  58.060         49.17	     7.681
  58.080         53.33	     8.000
  58.100         47.50	     7.550
  58.120         54.17	     8.062
  58.140         52.50	     7.937
  58.160         50.83	     7.810
  58.180         41.67	     7.071
  58.200         36.67	     6.633
  58.220         48.33	     7.616
  58.240         51.67	     7.874
  58.260         55.00	     8.124
  58.280         41.67	     7.071
  58.300         45.00	     7.348
  58.320         45.83	     7.416
  58.340         52.50	     7.937
  58.360         46.67	     7.483
  58.380         51.67	     7.874
  58.400         57.50	     8.307
  58.420         66.67	     8.944
  58.440        103.33	    11.136
  58.460        140.00	    12.961
  58.480        214.17	    16.031
  58.500        198.33	    15.427
  58.520        145.00	    13.191
  58.540         95.83	    10.724
  58.560         92.50	    10.536
  58.580         83.33	    10.000
  58.600         89.17	    10.344
  58.620         92.50	    10.536
  58.640        135.83	    12.767
  58.660        136.67	    12.806
  58.680        108.33	    11.402
  58.700         47.50	     7.550
  58.720         71.67	     9.274
  58.740         68.33	     9.055
  58.760         52.50	     7.937
  58.780         49.17	     7.681
  58.800         60.83	     8.544
  58.820         63.33	     8.718
  58.840         71.67	     9.274
  58.860         52.50	     7.937
  58.880         55.83	     8.185
  58.900         47.50	     7.550
  58.920         60.00	     8.485
  58.940         46.67	     7.483
  58.960         53.33	     8.000
  58.980         50.83	     7.810
  59.000         61.67	     8.602
  59.020         64.17	     8.775
  59.040         73.33	     9.381
  59.060         61.67	     8.602
  59.080         81.67	     9.899
  59.100         65.83	     8.888
  59.120         54.17	     8.062
  59.140         54.17	     8.062
  59.160         69.17	     9.110
  59.180         52.50	     7.937
  59.200         41.67	     7.071
  59.220         51.67	     7.874
  59.240         57.50	     8.307
  59.260         63.33	     8.718
  59.280         55.83	     8.185
  59.300         54.17	     8.062
  59.320         52.50	     7.937
  59.340         55.00	     8.124
  59.360         43.33	     7.211
  59.380         50.00	     7.746
  59.400         39.17	     6.856
  59.420         50.00	     7.746
  59.440         50.00	     7.746
  59.460         39.17	     6.856
  59.480         54.17	     8.062
  59.500         50.83	     7.810
  59.520         41.67	     7.071
  59.540         52.50	     7.937
  59.560         57.50	     8.307
  59.580         49.17	     7.681
  59.600         58.33	     8.367
  59.620         42.50	     7.141
  59.640         50.00	     7.746
  59.660         65.83	     8.888
  59.680         61.67	     8.602
  59.700         70.83	     9.220
  59.720         72.50	     9.327
  59.740         70.83	     9.220
  59.760         87.50	    10.247
  59.780        113.33	    11.662
  59.800        151.67	    13.491
  59.820        199.17	    15.460
  59.840        310.83	    19.313
  59.860        350.00	    20.494
  59.880        361.67	    20.833
  59.900        253.33	    17.436
  59.920        157.50	    13.748
  59.940        130.83	    12.530
  59.960        130.00	    12.490
  59.980        141.67	    13.038
  60.000        181.67	    14.765
  60.020        201.67	    15.556
  60.040        216.67	    16.125
  60.060        166.67	    14.142
  60.080        116.67	    11.832
  60.100         85.83	    10.149
  60.120         78.33	     9.695
  60.140         76.67	     9.592
  60.160         85.00	    10.100
  60.180         90.83	    10.440
  60.200         80.00	     9.798
  60.220         80.00	     9.798
  60.240         82.50	     9.950
  60.260         71.67	     9.274
  60.280         72.50	     9.327
  60.300         72.50	     9.327
  60.320         69.17	     9.110
  60.340         87.50	    10.247
  60.360         83.33	    10.000
  60.380         94.17	    10.630
  60.400         87.50	    10.247
  60.420         85.00	    10.100
  60.440         75.00	     9.487
  60.460         84.17	    10.050
  60.480         83.33	    10.000
  60.500         97.50	    10.817
  60.520         90.00	    10.392
  60.540         82.50	     9.950
  60.560         72.50	     9.327
  60.580         71.67	     9.274
  60.600         70.83	     9.220
  60.620         68.33	     9.055
  60.640         64.17	     8.775
  60.660         74.17	     9.434
  60.680         75.00	     9.487
  60.700         60.83	     8.544
  60.720         69.17	     9.110
  60.740         71.67	     9.274
  60.760         78.33	     9.695
  60.780         64.17	     8.775
  60.800        103.33	    11.136
  60.820         80.00	     9.798
  60.840         90.00	    10.392
  60.860         90.00	    10.392
  60.880         99.17	    10.909
  60.900         99.17	    10.909
  60.920        100.83	    11.000
  60.940         87.50	    10.247
  60.960         70.00	     9.165
  60.980         78.33	     9.695
  61.000         70.83	     9.220
  61.020         81.67	     9.899
  61.040         92.50	    10.536
  61.060         85.83	    10.149
  61.080         67.50	     9.000
  61.100         61.67	     8.602
  61.120         54.17	     8.062
  61.140         51.67	     7.874
  61.160         53.33	     8.000
  61.180         54.17	     8.062
  61.200         44.17	     7.280
  61.220         51.67	     7.874
  61.240         70.00	     9.165
  61.260         61.67	     8.602
  61.280         48.33	     7.616
  61.300         44.17	     7.280
  61.320         58.33	     8.367
  61.340         49.17	     7.681
  61.360         64.17	     8.775
  61.380         80.00	     9.798
  61.400         70.83	     9.220
  61.420         73.33	     9.381
  61.440         65.00	     8.832
  61.460         80.83	     9.849
  61.480         73.33	     9.381
  61.500         86.67	    10.198
  61.520         58.33	     8.367
  61.540         67.50	     9.000
  61.560         69.17	     9.110
  61.580         78.33	     9.695
  61.600         72.50	     9.327
  61.620         81.67	     9.899
  61.640         60.00	     8.485
  61.660         75.83	     9.539
  61.680         69.17	     9.110
  61.700         65.83	     8.888
  61.720         72.50	     9.327
  61.740         68.33	     9.055
  61.760         75.83	     9.539
  61.780         74.17	     9.434
  61.800         85.00	    10.100
  61.820         92.50	    10.536
  61.840         77.50	     9.644
  61.860         73.33	     9.381
  61.880         53.33	     8.000
  61.900         68.33	     9.055
  61.920         72.50	     9.327
  61.940         75.83	     9.539
  61.960         74.17	     9.434
  61.980         80.00	     9.798
  62.000         66.67	     8.944
  62.020         61.67	     8.602
  62.040         65.00	     8.832
  62.060         59.17	     8.426
  62.080         46.67	     7.483
  62.100         52.50	     7.937
  62.120         55.00	     8.124
  62.140         59.17	     8.426
  62.160         40.00	     6.928
  62.180         45.83	     7.416
  62.200         49.17	     7.681
  62.220         58.33	     8.367
  62.240         46.67	     7.483
  62.260         50.00	     7.746
  62.280         40.83	     7.000
  62.300         44.17	     7.280
  62.320         46.67	     7.483
  62.340         52.50	     7.937
  62.360         35.83	     6.557
  62.380         44.17	     7.280
  62.400         45.83	     7.416
  62.420         50.00	     7.746
  62.440         46.67	     7.483
  62.460         53.33	     8.000
  62.480         45.83	     7.416
  62.500         51.67	     7.874
  62.520         46.67	     7.483
  62.540         53.33	     8.000
  62.560         57.50	     8.307
  62.580         52.50	     7.937
  62.600         42.50	     7.141
  62.620         64.17	     8.775
  62.640         41.67	     7.071
  62.660         65.83	     8.888
  62.680         40.00	     6.928
  62.700         41.67	     7.071
  62.720         44.17	     7.280
  62.740         42.50	     7.141
  62.760         50.83	     7.810
  62.780         41.67	     7.071
  62.800         31.67	     6.164
  62.820         39.17	     6.856
  62.840         33.33	     6.325
  62.860         30.00	     6.000
  62.880         40.00	     6.928
  62.900         41.67	     7.071
  62.920         38.33	     6.782
  62.940         41.67	     7.071
  62.960         40.00	     6.928
  62.980         28.33	     5.831
  63.000         31.67	     6.164
  63.020         38.33	     6.782
  63.040         37.50	     6.708
  63.060         35.83	     6.557
  63.080         40.83	     7.000
  63.100         33.33	     6.325
  63.120         40.00	     6.928
  63.140         45.00	     7.348
  63.160         40.00	     6.928
  63.180         41.67	     7.071
  63.200         46.67	     7.483
  63.220         32.50	     6.245
  63.240         39.17	     6.856
  63.260         38.33	     6.782
  63.280         27.50	     5.745
  63.300         55.83	     8.185
  63.320         46.67	     7.483
  63.340         40.00	     6.928
  63.360         56.67	     8.246
  63.380         59.17	     8.426
  63.400         65.83	     8.888
  63.420         68.33	     9.055
  63.440         46.67	     7.483
  63.460         60.00	     8.485
  63.480         56.67	     8.246
  63.500         40.83	     7.000
  63.520         37.50	     6.708
  63.540         35.00	     6.481
  63.560         50.00	     7.746
  63.580         59.17	     8.426
  63.600         45.00	     7.348
  63.620         40.00	     6.928
  63.640         51.67	     7.874
  63.660         54.17	     8.062
  63.680         66.67	     8.944
  63.700         51.67	     7.874
  63.720         47.50	     7.550
  63.740         55.83	     8.185
  63.760         62.50	     8.660
  63.780         75.00	     9.487
  63.800         50.00	     7.746
  63.820         65.00	     8.832
  63.840         53.33	     8.000
  63.860         55.00	     8.124
  63.880         74.17	     9.434
  63.900         75.83	     9.539
  63.920        105.83	    11.269
  63.940        107.50	    11.358
  63.960         90.00	    10.392
  63.980         70.83	     9.220
  64.000         70.00	     9.165
  64.020         53.33	     8.000
  64.040         61.67	     8.602
  64.060         72.50	     9.327
  64.080         80.83	     9.849
  64.100         88.33	    10.296
  64.120         83.33	    10.000
  64.140         81.67	     9.899
  64.160         60.00	     8.485
  64.180         60.00	     8.485
  64.200         51.67	     7.874
  64.220         41.67	     7.071
  64.240         57.50	     8.307
  64.260         45.83	     7.416
  64.280         51.67	     7.874
  64.300         55.83	     8.185
  64.320         43.33	     7.211
  64.340         53.33	     8.000
  64.360         40.00	     6.928
  64.380         46.67	     7.483
  64.400         47.50	     7.550
  64.420         42.50	     7.141
  64.440         45.00	     7.348
  64.460         48.33	     7.616
  64.480         60.00	     8.485
  64.500         36.67	     6.633
  64.520         34.17	     6.403
  64.540         36.67	     6.633
  64.560         43.33	     7.211
  64.580         55.83	     8.185
  64.600         51.67	     7.874
  64.620         40.00	     6.928
  64.640         43.33	     7.211
  64.660         39.17	     6.856
  64.680         45.83	     7.416
  64.700         44.17	     7.280
  64.720         39.17	     6.856
  64.740         31.67	     6.164
  64.760         46.67	     7.483
  64.780         35.83	     6.557
  64.800         53.33	     8.000
  64.820         47.50	     7.550
  64.840         53.33	     8.000
  64.860         38.33	     6.782
  64.880         41.67	     7.071
  64.900         38.33	     6.782
  64.920         50.00	     7.746
  64.940         51.67	     7.874
  64.960         52.50	     7.937
  64.980         61.67	     8.602
  65.000         52.50	     7.937
