
Filename:
	C:\Program Files\Thermo Electron\WinXRD\Datafiles\F_HERMAN\GEO\G78_RT.raw

File Created:
	February 20, 2020 - 04:06 AM

Specimen Id:
	G78_RT

Specimen Name:
	

Specimen Description:
	

Comment:
Scan Type: 2Theta Scan
Start Angle: 3 deg.
Stop Angle: 65 deg.
Num Points: 3101
Step Size: 0.02 deg.
Scan Rate: 1.000000
Scan Mode: Continuous
Wavelength: 1.540562
\Kalpha1: 1.540562	\Kalpha2: 1.544390	\Kbeta: 1.392218

Optics:
		Detector:
			 Type: Fixed Slits
		Tube: 
			 Type: Fixed Slits


Datas:
 Pos [deg]       Rate [CPS]      ESD [-]

Range 1 ---> Iteration 1
   3.000        450.83	    23.259
   3.020        455.00	    23.367
   3.040        415.00	    22.316
   3.060        448.33	    23.195
   3.080        458.33	    23.452
   3.100        457.50	    23.431
   3.120        407.50	    22.113
   3.140        424.17	    22.561
   3.160        428.33	    22.672
   3.180        440.00	    22.978
   3.200        407.50	    22.113
   3.220        441.67	    23.022
   3.240        412.50	    22.249
   3.260        413.33	    22.271
   3.280        391.67	    21.679
   3.300        405.00	    22.045
   3.320        430.00	    22.716
   3.340        416.67	    22.361
   3.360        389.17	    21.610
   3.380        417.50	    22.383
   3.400        390.00	    21.633
   3.420        388.33	    21.587
   3.440        393.33	    21.726
   3.460        349.17	    20.469
   3.480        378.33	    21.307
   3.500        407.50	    22.113
   3.520        389.17	    21.610
   3.540        362.50	    20.857
   3.560        387.50	    21.564
   3.580        376.67	    21.260
   3.600        343.33	    20.298
   3.620        364.17	    20.905
   3.640        338.33	    20.149
   3.660        363.33	    20.881
   3.680        362.50	    20.857
   3.700        338.33	    20.149
   3.720        351.67	    20.543
   3.740        368.33	    21.024
   3.760        356.67	    20.688
   3.780        363.33	    20.881
   3.800        348.33	    20.445
   3.820        345.83	    20.372
   3.840        333.33	    20.000
   3.860        349.17	    20.469
   3.880        339.17	    20.174
   3.900        336.67	    20.100
   3.920        345.00	    20.347
   3.940        320.00	    19.596
   3.960        291.67	    18.708
   3.980        324.17	    19.723
   4.000        309.17	    19.261
   4.020        306.67	    19.183
   4.040        332.50	    19.975
   4.060        313.33	    19.391
   4.080        308.33	    19.235
   4.100        324.17	    19.723
   4.120        318.33	    19.545
   4.140        313.33	    19.391
   4.160        326.67	    19.799
   4.180        308.33	    19.235
   4.200        312.50	    19.365
   4.220        285.83	    18.520
   4.240        299.17	    18.947
   4.260        294.17	    18.788
   4.280        271.67	    18.055
   4.300        287.50	    18.574
   4.320        320.00	    19.596
   4.340        255.83	    17.521
   4.360        298.33	    18.921
   4.380        270.00	    18.000
   4.400        261.67	    17.720
   4.420        269.17	    17.972
   4.440        275.83	    18.193
   4.460        293.33	    18.762
   4.480        277.50	    18.248
   4.500        289.17	    18.628
   4.520        295.00	    18.815
   4.540        275.00	    18.166
   4.560        268.33	    17.944
   4.580        288.33	    18.601
   4.600        310.83	    19.313
   4.620        282.50	    18.412
   4.640        263.33	    17.776
   4.660        275.83	    18.193
   4.680        268.33	    17.944
   4.700        281.67	    18.385
   4.720        267.50	    17.916
   4.740        255.00	    17.493
   4.760        290.83	    18.682
   4.780        268.33	    17.944
   4.800        256.67	    17.550
   4.820        244.17	    17.117
   4.840        275.00	    18.166
   4.860        280.83	    18.358
   4.880        250.00	    17.321
   4.900        240.83	    17.000
   4.920        238.33	    16.912
   4.940        249.17	    17.292
   4.960        256.67	    17.550
   4.980        251.67	    17.378
   5.000        245.83	    17.176
   5.020        244.17	    17.117
   5.040        213.33	    16.000
   5.060        250.00	    17.321
   5.080        235.00	    16.793
   5.100        270.00	    18.000
   5.120        227.50	    16.523
   5.140        255.00	    17.493
   5.160        245.83	    17.176
   5.180        251.67	    17.378
   5.200        253.33	    17.436
   5.220        241.67	    17.029
   5.240        230.83	    16.643
   5.260        237.50	    16.882
   5.280        214.17	    16.031
   5.300        214.17	    16.031
   5.320        220.83	    16.279
   5.340        240.83	    17.000
   5.360        200.00	    15.492
   5.380        224.17	    16.401
   5.400        244.17	    17.117
   5.420        238.33	    16.912
   5.440        245.83	    17.176
   5.460        204.17	    15.652
   5.480        233.33	    16.733
   5.500        209.17	    15.843
   5.520        193.33	    15.232
   5.540        209.17	    15.843
   5.560        244.17	    17.117
   5.580        227.50	    16.523
   5.600        228.33	    16.553
   5.620        220.00	    16.248
   5.640        252.50	    17.407
   5.660        203.33	    15.620
   5.680        228.33	    16.553
   5.700        211.67	    15.937
   5.720        218.33	    16.186
   5.740        195.00	    15.297
   5.760        215.00	    16.062
   5.780        222.50	    16.340
   5.800        212.50	    15.969
   5.820        207.50	    15.780
   5.840        215.00	    16.062
   5.860        208.33	    15.811
   5.880        225.83	    16.462
   5.900        213.33	    16.000
   5.920        214.17	    16.031
   5.940        188.33	    15.033
   5.960        205.83	    15.716
   5.980        213.33	    16.000
   6.000        212.50	    15.969
   6.020        197.50	    15.395
   6.040        225.00	    16.432
   6.060        217.50	    16.155
   6.080        200.83	    15.524
   6.100        214.17	    16.031
   6.120        228.33	    16.553
   6.140        233.33	    16.733
   6.160        206.67	    15.748
   6.180        184.17	    14.866
   6.200        200.00	    15.492
   6.220        166.67	    14.142
   6.240        196.67	    15.362
   6.260        191.67	    15.166
   6.280        200.83	    15.524
   6.300        205.00	    15.684
   6.320        212.50	    15.969
   6.340        203.33	    15.620
   6.360        205.83	    15.716
   6.380        194.17	    15.264
   6.400        201.67	    15.556
   6.420        180.00	    14.697
   6.440        173.33	    14.422
   6.460        187.50	    15.000
   6.480        202.50	    15.588
   6.500        180.00	    14.697
   6.520        205.83	    15.716
   6.540        193.33	    15.232
   6.560        192.50	    15.199
   6.580        190.00	    15.100
   6.600        212.50	    15.969
   6.620        185.00	    14.900
   6.640        190.00	    15.100
   6.660        176.67	    14.560
   6.680        176.67	    14.560
   6.700        174.17	    14.457
   6.720        177.50	    14.595
   6.740        174.17	    14.457
   6.760        183.33	    14.832
   6.780        172.50	    14.387
   6.800        179.17	    14.663
   6.820        180.83	    14.731
   6.840        146.67	    13.266
   6.860        183.33	    14.832
   6.880        176.67	    14.560
   6.900        190.83	    15.133
   6.920        157.50	    13.748
   6.940        172.50	    14.387
   6.960        191.67	    15.166
   6.980        163.33	    14.000
   7.000        179.17	    14.663
   7.020        169.17	    14.248
   7.040        167.50	    14.177
   7.060        170.00	    14.283
   7.080        154.17	    13.601
   7.100        180.00	    14.697
   7.120        159.17	    13.820
   7.140        165.83	    14.107
   7.160        184.17	    14.866
   7.180        154.17	    13.601
   7.200        159.17	    13.820
   7.220        160.83	    13.892
   7.240        160.00	    13.856
   7.260        176.67	    14.560
   7.280        194.17	    15.264
   7.300        149.17	    13.379
   7.320        163.33	    14.000
   7.340        136.67	    12.806
   7.360        169.17	    14.248
   7.380        150.83	    13.454
   7.400        153.33	    13.565
   7.420        162.50	    13.964
   7.440        163.33	    14.000
   7.460        139.17	    12.923
   7.480        179.17	    14.663
   7.500        150.83	    13.454
   7.520        152.50	    13.528
   7.540        145.00	    13.191
   7.560        135.00	    12.728
   7.580        157.50	    13.748
   7.600        141.67	    13.038
   7.620        146.67	    13.266
   7.640        142.50	    13.077
   7.660        157.50	    13.748
   7.680        145.83	    13.229
   7.700        150.00	    13.416
   7.720        165.00	    14.071
   7.740        150.83	    13.454
   7.760        143.33	    13.115
   7.780        130.00	    12.490
   7.800        169.17	    14.248
   7.820        148.33	    13.342
   7.840        144.17	    13.153
   7.860        144.17	    13.153
   7.880        149.17	    13.379
   7.900        125.83	    12.288
   7.920        144.17	    13.153
   7.940        137.50	    12.845
   7.960        159.17	    13.820
   7.980        134.17	    12.689
   8.000        140.83	    13.000
   8.020        141.67	    13.038
   8.040        157.50	    13.748
   8.060        126.67	    12.329
   8.080        150.00	    13.416
   8.100        144.17	    13.153
   8.120        136.67	    12.806
   8.140        110.00	    11.489
   8.160        146.67	    13.266
   8.180        157.50	    13.748
   8.200        130.83	    12.530
   8.220        159.17	    13.820
   8.240        146.67	    13.266
   8.260        154.17	    13.601
   8.280        137.50	    12.845
   8.300        134.17	    12.689
   8.320        149.17	    13.379
   8.340        138.33	    12.884
   8.360        151.67	    13.491
   8.380        175.00	    14.491
   8.400        132.50	    12.610
   8.420        153.33	    13.565
   8.440        140.00	    12.961
   8.460        150.00	    13.416
   8.480        165.83	    14.107
   8.500        138.33	    12.884
   8.520        128.33	    12.410
   8.540        178.33	    14.629
   8.560        183.33	    14.832
   8.580        165.83	    14.107
   8.600        163.33	    14.000
   8.620        185.00	    14.900
   8.640        198.33	    15.427
   8.660        182.50	    14.799
   8.680        200.00	    15.492
   8.700        225.00	    16.432
   8.720        235.83	    16.823
   8.740        277.50	    18.248
   8.760        291.67	    18.708
   8.780        265.00	    17.833
   8.800        179.17	    14.663
   8.820        152.50	    13.528
   8.840        146.67	    13.266
   8.860        175.83	    14.526
   8.880        135.00	    12.728
   8.900        130.00	    12.490
   8.920        165.83	    14.107
   8.940        150.00	    13.416
   8.960        139.17	    12.923
   8.980        150.00	    13.416
   9.000        138.33	    12.884
   9.020        129.17	    12.450
   9.040        155.00	    13.638
   9.060        122.50	    12.124
   9.080        122.50	    12.124
   9.100        155.00	    13.638
   9.120        113.33	    11.662
   9.140        121.67	    12.083
   9.160        133.33	    12.649
   9.180        136.67	    12.806
   9.200        136.67	    12.806
   9.220        142.50	    13.077
   9.240        127.50	    12.369
   9.260        120.00	    12.000
   9.280        129.17	    12.450
   9.300        146.67	    13.266
   9.320        124.17	    12.207
   9.340        117.50	    11.874
   9.360        146.67	    13.266
   9.380        124.17	    12.207
   9.400        125.00	    12.247
   9.420        121.67	    12.083
   9.440        108.33	    11.402
   9.460        113.33	    11.662
   9.480        119.17	    11.958
   9.500        135.00	    12.728
   9.520        100.00	    10.954
   9.540        119.17	    11.958
   9.560        102.50	    11.091
   9.580        110.00	    11.489
   9.600        102.50	    11.091
   9.620        116.67	    11.832
   9.640        113.33	    11.662
   9.660        123.33	    12.166
   9.680        115.00	    11.747
   9.700        116.67	    11.832
   9.720        106.67	    11.314
   9.740        129.17	    12.450
   9.760        117.50	    11.874
   9.780        102.50	    11.091
   9.800        119.17	    11.958
   9.820        110.83	    11.533
   9.840        104.17	    11.180
   9.860        106.67	    11.314
   9.880        102.50	    11.091
   9.900        120.83	    12.042
   9.920        123.33	    12.166
   9.940        126.67	    12.329
   9.960        123.33	    12.166
   9.980        111.67	    11.576
  10.000        101.67	    11.045
  10.020        102.50	    11.091
  10.040        118.33	    11.916
  10.060         84.17	    10.050
  10.080        108.33	    11.402
  10.100        107.50	    11.358
  10.120        117.50	    11.874
  10.140        100.83	    11.000
  10.160        106.67	    11.314
  10.180        120.83	    12.042
  10.200        114.17	    11.705
  10.220        111.67	    11.576
  10.240        124.17	    12.207
  10.260        119.17	    11.958
  10.280        133.33	    12.649
  10.300        135.83	    12.767
  10.320        120.00	    12.000
  10.340        120.83	    12.042
  10.360        100.00	    10.954
  10.380        129.17	    12.450
  10.400        141.67	    13.038
  10.420        153.33	    13.565
  10.440        156.67	    13.711
  10.460        145.00	    13.191
  10.480        127.50	    12.369
  10.500        106.67	    11.314
  10.520        101.67	    11.045
  10.540         88.33	    10.296
  10.560        105.83	    11.269
  10.580         97.50	    10.817
  10.600        111.67	    11.576
  10.620        110.83	    11.533
  10.640        100.83	    11.000
  10.660        122.50	    12.124
  10.680        100.83	    11.000
  10.700        111.67	    11.576
  10.720        110.83	    11.533
  10.740        114.17	    11.705
  10.760         91.67	    10.488
  10.780        110.00	    11.489
  10.800         95.00	    10.677
  10.820         95.83	    10.724
  10.840        106.67	    11.314
  10.860        110.83	    11.533
  10.880        106.67	    11.314
  10.900         98.33	    10.863
  10.920        100.83	    11.000
  10.940        108.33	    11.402
  10.960        103.33	    11.136
  10.980        118.33	    11.916
  11.000         96.67	    10.770
  11.020         96.67	    10.770
  11.040        105.83	    11.269
  11.060        114.17	    11.705
  11.080         93.33	    10.583
  11.100         96.67	    10.770
  11.120        111.67	    11.576
  11.140         90.83	    10.440
  11.160        102.50	    11.091
  11.180         85.83	    10.149
  11.200         94.17	    10.630
  11.220        100.83	    11.000
  11.240         97.50	    10.817
  11.260         86.67	    10.198
  11.280         84.17	    10.050
  11.300         94.17	    10.630
  11.320         92.50	    10.536
  11.340        102.50	    11.091
  11.360         75.83	     9.539
  11.380         91.67	    10.488
  11.400        104.17	    11.180
  11.420         89.17	    10.344
  11.440         97.50	    10.817
  11.460        115.00	    11.747
  11.480         84.17	    10.050
  11.500         95.00	    10.677
  11.520         86.67	    10.198
  11.540        100.83	    11.000
  11.560        104.17	    11.180
  11.580         99.17	    10.909
  11.600         91.67	    10.488
  11.620        108.33	    11.402
  11.640        100.00	    10.954
  11.660         94.17	    10.630
  11.680         98.33	    10.863
  11.700         99.17	    10.909
  11.720        106.67	    11.314
  11.740         97.50	    10.817
  11.760         96.67	    10.770
  11.780        100.83	    11.000
  11.800         83.33	    10.000
  11.820         87.50	    10.247
  11.840        103.33	    11.136
  11.860         88.33	    10.296
  11.880         86.67	    10.198
  11.900         84.17	    10.050
  11.920        105.00	    11.225
  11.940         84.17	    10.050
  11.960        118.33	    11.916
  11.980        119.17	    11.958
  12.000        155.00	    13.638
  12.020        149.17	    13.379
  12.040        151.67	    13.491
  12.060        180.00	    14.697
  12.080        208.33	    15.811
  12.100        162.50	    13.964
  12.120        136.67	    12.806
  12.140        108.33	    11.402
  12.160        115.83	    11.790
  12.180        105.83	    11.269
  12.200        116.67	    11.832
  12.220        130.00	    12.490
  12.240        128.33	    12.410
  12.260        130.00	    12.490
  12.280        140.00	    12.961
  12.300        135.00	    12.728
  12.320        129.17	    12.450
  12.340        126.67	    12.329
  12.360        180.83	    14.731
  12.380        161.67	    13.928
  12.400        155.83	    13.675
  12.420        123.33	    12.166
  12.440        105.00	    11.225
  12.460        102.50	    11.091
  12.480         93.33	    10.583
  12.500         91.67	    10.488
  12.520        101.67	    11.045
  12.540        104.17	    11.180
  12.560         71.67	     9.274
  12.580         98.33	    10.863
  12.600         95.00	    10.677
  12.620         94.17	    10.630
  12.640         87.50	    10.247
  12.660        101.67	    11.045
  12.680         84.17	    10.050
  12.700         90.83	    10.440
  12.720         95.83	    10.724
  12.740         83.33	    10.000
  12.760         86.67	    10.198
  12.780         87.50	    10.247
  12.800         77.50	     9.644
  12.820         97.50	    10.817
  12.840         81.67	     9.899
  12.860         69.17	     9.110
  12.880         85.83	    10.149
  12.900         78.33	     9.695
  12.920         96.67	    10.770
  12.940         76.67	     9.592
  12.960         83.33	    10.000
  12.980         66.67	     8.944
  13.000         93.33	    10.583
  13.020         74.17	     9.434
  13.040         95.83	    10.724
  13.060         83.33	    10.000
  13.080         85.00	    10.100
  13.100         76.67	     9.592
  13.120         83.33	    10.000
  13.140         85.83	    10.149
  13.160        105.00	    11.225
  13.180         84.17	    10.050
  13.200         79.17	     9.747
  13.220         89.17	    10.344
  13.240         95.83	    10.724
  13.260        100.83	    11.000
  13.280         86.67	    10.198
  13.300         77.50	     9.644
  13.320         75.83	     9.539
  13.340        105.00	    11.225
  13.360         76.67	     9.592
  13.380         76.67	     9.592
  13.400         67.50	     9.000
  13.420         75.83	     9.539
  13.440         82.50	     9.950
  13.460         73.33	     9.381
  13.480         92.50	    10.536
  13.500         80.00	     9.798
  13.520         76.67	     9.592
  13.540         81.67	     9.899
  13.560         80.83	     9.849
  13.580         75.00	     9.487
  13.600         87.50	    10.247
  13.620         70.83	     9.220
  13.640         84.17	    10.050
  13.660         79.17	     9.747
  13.680         75.00	     9.487
  13.700         79.17	     9.747
  13.720        100.83	    11.000
  13.740        105.83	    11.269
  13.760         84.17	    10.050
  13.780         87.50	    10.247
  13.800         91.67	    10.488
  13.820         90.00	    10.392
  13.840         74.17	     9.434
  13.860         85.83	    10.149
  13.880         86.67	    10.198
  13.900         72.50	     9.327
  13.920         80.00	     9.798
  13.940         87.50	    10.247
  13.960         67.50	     9.000
  13.980         84.17	    10.050
  14.000         73.33	     9.381
  14.020         70.83	     9.220
  14.040         60.83	     8.544
  14.060         80.83	     9.849
  14.080         85.83	    10.149
  14.100         69.17	     9.110
  14.120         60.83	     8.544
  14.140         86.67	    10.198
  14.160         80.83	     9.849
  14.180         79.17	     9.747
  14.200         61.67	     8.602
  14.220         85.00	    10.100
  14.240         74.17	     9.434
  14.260         88.33	    10.296
  14.280         65.83	     8.888
  14.300         79.17	     9.747
  14.320         75.00	     9.487
  14.340         75.00	     9.487
  14.360         65.00	     8.832
  14.380         78.33	     9.695
  14.400         59.17	     8.426
  14.420         93.33	    10.583
  14.440         75.00	     9.487
  14.460         70.83	     9.220
  14.480         71.67	     9.274
  14.500         72.50	     9.327
  14.520         72.50	     9.327
  14.540         67.50	     9.000
  14.560         60.83	     8.544
  14.580         75.00	     9.487
  14.600         83.33	    10.000
  14.620         71.67	     9.274
  14.640         72.50	     9.327
  14.660         76.67	     9.592
  14.680         79.17	     9.747
  14.700         51.67	     7.874
  14.720         80.00	     9.798
  14.740         66.67	     8.944
  14.760         78.33	     9.695
  14.780         75.00	     9.487
  14.800         63.33	     8.718
  14.820         90.83	    10.440
  14.840         82.50	     9.950
  14.860         89.17	    10.344
  14.880         65.00	     8.832
  14.900         81.67	     9.899
  14.920         66.67	     8.944
  14.940         78.33	     9.695
  14.960         91.67	    10.488
  14.980         61.67	     8.602
  15.000         65.00	     8.832
  15.020         68.33	     9.055
  15.040         70.83	     9.220
  15.060         72.50	     9.327
  15.080         83.33	    10.000
  15.100         80.83	     9.849
  15.120         80.83	     9.849
  15.140         80.00	     9.798
  15.160         58.33	     8.367
  15.180         76.67	     9.592
  15.200         70.00	     9.165
  15.220         65.83	     8.888
  15.240         64.17	     8.775
  15.260         61.67	     8.602
  15.280         62.50	     8.660
  15.300         65.00	     8.832
  15.320         72.50	     9.327
  15.340         74.17	     9.434
  15.360         80.00	     9.798
  15.380         71.67	     9.274
  15.400         75.00	     9.487
  15.420         63.33	     8.718
  15.440         69.17	     9.110
  15.460         65.83	     8.888
  15.480         62.50	     8.660
  15.500         60.00	     8.485
  15.520         73.33	     9.381
  15.540         70.00	     9.165
  15.560         62.50	     8.660
  15.580         60.00	     8.485
  15.600         88.33	    10.296
  15.620         76.67	     9.592
  15.640         68.33	     9.055
  15.660         65.83	     8.888
  15.680         65.83	     8.888
  15.700         63.33	     8.718
  15.720         82.50	     9.950
  15.740         73.33	     9.381
  15.760         77.50	     9.644
  15.780         55.00	     8.124
  15.800         55.00	     8.124
  15.820         71.67	     9.274
  15.840         61.67	     8.602
  15.860         45.83	     7.416
  15.880         72.50	     9.327
  15.900         61.67	     8.602
  15.920         66.67	     8.944
  15.940         69.17	     9.110
  15.960         63.33	     8.718
  15.980         80.00	     9.798
  16.000         56.67	     8.246
  16.020         58.33	     8.367
  16.040         53.33	     8.000
  16.060         80.83	     9.849
  16.080         60.00	     8.485
  16.100         66.67	     8.944
  16.120         70.83	     9.220
  16.140         64.17	     8.775
  16.160         55.00	     8.124
  16.180         69.17	     9.110
  16.200         59.17	     8.426
  16.220         60.83	     8.544
  16.240         65.83	     8.888
  16.260         58.33	     8.367
  16.280         63.33	     8.718
  16.300         50.00	     7.746
  16.320         64.17	     8.775
  16.340         78.33	     9.695
  16.360         50.83	     7.810
  16.380         52.50	     7.937
  16.400         66.67	     8.944
  16.420         69.17	     9.110
  16.440         60.83	     8.544
  16.460         46.67	     7.483
  16.480         55.00	     8.124
  16.500         57.50	     8.307
  16.520         52.50	     7.937
  16.540         60.83	     8.544
  16.560         46.67	     7.483
  16.580         65.83	     8.888
  16.600         51.67	     7.874
  16.620         67.50	     9.000
  16.640         52.50	     7.937
  16.660         68.33	     9.055
  16.680         55.00	     8.124
  16.700         60.83	     8.544
  16.720         61.67	     8.602
  16.740         64.17	     8.775
  16.760         70.00	     9.165
  16.780         71.67	     9.274
  16.800         72.50	     9.327
  16.820         56.67	     8.246
  16.840         65.00	     8.832
  16.860         74.17	     9.434
  16.880         59.17	     8.426
  16.900         63.33	     8.718
  16.920         66.67	     8.944
  16.940         45.83	     7.416
  16.960         65.00	     8.832
  16.980         54.17	     8.062
  17.000         60.00	     8.485
  17.020         63.33	     8.718
  17.040         50.83	     7.810
  17.060         60.83	     8.544
  17.080         60.83	     8.544
  17.100         56.67	     8.246
  17.120         54.17	     8.062
  17.140         66.67	     8.944
  17.160         55.83	     8.185
  17.180         46.67	     7.483
  17.200         74.17	     9.434
  17.220         48.33	     7.616
  17.240         60.83	     8.544
  17.260         67.50	     9.000
  17.280         60.00	     8.485
  17.300         66.67	     8.944
  17.320         56.67	     8.246
  17.340         70.83	     9.220
  17.360         48.33	     7.616
  17.380         58.33	     8.367
  17.400         59.17	     8.426
  17.420         71.67	     9.274
  17.440         49.17	     7.681
  17.460         60.83	     8.544
  17.480         75.83	     9.539
  17.500         69.17	     9.110
  17.520         55.00	     8.124
  17.540         50.00	     7.746
  17.560         65.00	     8.832
  17.580         66.67	     8.944
  17.600         82.50	     9.950
  17.620         75.00	     9.487
  17.640         78.33	     9.695
  17.660         80.83	     9.849
  17.680         98.33	    10.863
  17.700         96.67	    10.770
  17.720        107.50	    11.358
  17.740         92.50	    10.536
  17.760         70.00	     9.165
  17.780         68.33	     9.055
  17.800         59.17	     8.426
  17.820         55.83	     8.185
  17.840         70.00	     9.165
  17.860         50.00	     7.746
  17.880         79.17	     9.747
  17.900         68.33	     9.055
  17.920         68.33	     9.055
  17.940         68.33	     9.055
  17.960         60.00	     8.485
  17.980         60.00	     8.485
  18.000         70.00	     9.165
  18.020         57.50	     8.307
  18.040         48.33	     7.616
  18.060         58.33	     8.367
  18.080         52.50	     7.937
  18.100         68.33	     9.055
  18.120         58.33	     8.367
  18.140         71.67	     9.274
  18.160         70.00	     9.165
  18.180         65.00	     8.832
  18.200         50.00	     7.746
  18.220         67.50	     9.000
  18.240         61.67	     8.602
  18.260         52.50	     7.937
  18.280         59.17	     8.426
  18.300         52.50	     7.937
  18.320         75.83	     9.539
  18.340         54.17	     8.062
  18.360         70.83	     9.220
  18.380         58.33	     8.367
  18.400         75.00	     9.487
  18.420         62.50	     8.660
  18.440         55.83	     8.185
  18.460         76.67	     9.592
  18.480         68.33	     9.055
  18.500         68.33	     9.055
  18.520         68.33	     9.055
  18.540         68.33	     9.055
  18.560         65.83	     8.888
  18.580         65.83	     8.888
  18.600         86.67	    10.198
  18.620         81.67	     9.899
  18.640         76.67	     9.592
  18.660         96.67	    10.770
  18.680         84.17	    10.050
  18.700         95.83	    10.724
  18.720         78.33	     9.695
  18.740         65.00	     8.832
  18.760         74.17	     9.434
  18.780         67.50	     9.000
  18.800         50.00	     7.746
  18.820         60.00	     8.485
  18.840         80.00	     9.798
  18.860         66.67	     8.944
  18.880         53.33	     8.000
  18.900         65.00	     8.832
  18.920         70.00	     9.165
  18.940         57.50	     8.307
  18.960         66.67	     8.944
  18.980         65.00	     8.832
  19.000         63.33	     8.718
  19.020         75.00	     9.487
  19.040         53.33	     8.000
  19.060         75.83	     9.539
  19.080         76.67	     9.592
  19.100         76.67	     9.592
  19.120         59.17	     8.426
  19.140         70.00	     9.165
  19.160         57.50	     8.307
  19.180         65.83	     8.888
  19.200         76.67	     9.592
  19.220         60.83	     8.544
  19.240         57.50	     8.307
  19.260         58.33	     8.367
  19.280         65.83	     8.888
  19.300         61.67	     8.602
  19.320         58.33	     8.367
  19.340         68.33	     9.055
  19.360         68.33	     9.055
  19.380         75.00	     9.487
  19.400         66.67	     8.944
  19.420         56.67	     8.246
  19.440         69.17	     9.110
  19.460         56.67	     8.246
  19.480         73.33	     9.381
  19.500         52.50	     7.937
  19.520         71.67	     9.274
  19.540         70.00	     9.165
  19.560         61.67	     8.602
  19.580         79.17	     9.747
  19.600         76.67	     9.592
  19.620         84.17	    10.050
  19.640         79.17	     9.747
  19.660         75.83	     9.539
  19.680         70.00	     9.165
  19.700         62.50	     8.660
  19.720         90.83	    10.440
  19.740         92.50	    10.536
  19.760         70.83	     9.220
  19.780         82.50	     9.950
  19.800         74.17	     9.434
  19.820         67.50	     9.000
  19.840         67.50	     9.000
  19.860         62.50	     8.660
  19.880         65.00	     8.832
  19.900         67.50	     9.000
  19.920         71.67	     9.274
  19.940         71.67	     9.274
  19.960         82.50	     9.950
  19.980         60.00	     8.485
  20.000         69.17	     9.110
  20.020         59.17	     8.426
  20.040         53.33	     8.000
  20.060         67.50	     9.000
  20.080         65.00	     8.832
  20.100         63.33	     8.718
  20.120         67.50	     9.000
  20.140         52.50	     7.937
  20.160         65.83	     8.888
  20.180         59.17	     8.426
  20.200         55.00	     8.124
  20.220         70.00	     9.165
  20.240         63.33	     8.718
  20.260         50.83	     7.810
  20.280         60.83	     8.544
  20.300         70.00	     9.165
  20.320         54.17	     8.062
  20.340         53.33	     8.000
  20.360         60.83	     8.544
  20.380         52.50	     7.937
  20.400         61.67	     8.602
  20.420         61.67	     8.602
  20.440         60.83	     8.544
  20.460         58.33	     8.367
  20.480         64.17	     8.775
  20.500         65.00	     8.832
  20.520         69.17	     9.110
  20.540         61.67	     8.602
  20.560         66.67	     8.944
  20.580         81.67	     9.899
  20.600         81.67	     9.899
  20.620         93.33	    10.583
  20.640        105.83	    11.269
  20.660        140.83	    13.000
  20.680        191.67	    15.166
  20.700        250.83	    17.349
  20.720        277.50	    18.248
  20.740        305.00	    19.131
  20.760        231.67	    16.673
  20.780        165.00	    14.071
  20.800        132.50	    12.610
  20.820         76.67	     9.592
  20.840         96.67	    10.770
  20.860         64.17	     8.775
  20.880         78.33	     9.695
  20.900         78.33	     9.695
  20.920         71.67	     9.274
  20.940         77.50	     9.644
  20.960         60.00	     8.485
  20.980         57.50	     8.307
  21.000         48.33	     7.616
  21.020         56.67	     8.246
  21.040         59.17	     8.426
  21.060         51.67	     7.874
  21.080         69.17	     9.110
  21.100         53.33	     8.000
  21.120         54.17	     8.062
  21.140         50.83	     7.810
  21.160         50.00	     7.746
  21.180         46.67	     7.483
  21.200         50.83	     7.810
  21.220         51.67	     7.874
  21.240         60.83	     8.544
  21.260         54.17	     8.062
  21.280         60.83	     8.544
  21.300         50.00	     7.746
  21.320         48.33	     7.616
  21.340         63.33	     8.718
  21.360         55.00	     8.124
  21.380         48.33	     7.616
  21.400         54.17	     8.062
  21.420         48.33	     7.616
  21.440         62.50	     8.660
  21.460         48.33	     7.616
  21.480         57.50	     8.307
  21.500         69.17	     9.110
  21.520         55.00	     8.124
  21.540         55.83	     8.185
  21.560         63.33	     8.718
  21.580         46.67	     7.483
  21.600         50.00	     7.746
  21.620         55.83	     8.185
  21.640         57.50	     8.307
  21.660         45.00	     7.348
  21.680         60.00	     8.485
  21.700         45.00	     7.348
  21.720         62.50	     8.660
  21.740         54.17	     8.062
  21.760         54.17	     8.062
  21.780         81.67	     9.899
  21.800         72.50	     9.327
  21.820         70.83	     9.220
  21.840         91.67	    10.488
  21.860        108.33	    11.402
  21.880        175.83	    14.526
  21.900        195.83	    15.330
  21.920        169.17	    14.248
  21.940        155.00	    13.638
  21.960        102.50	    11.091
  21.980        105.00	    11.225
  22.000        106.67	    11.314
  22.020         72.50	     9.327
  22.040         68.33	     9.055
  22.060         69.17	     9.110
  22.080         63.33	     8.718
  22.100         60.00	     8.485
  22.120         54.17	     8.062
  22.140         51.67	     7.874
  22.160         50.83	     7.810
  22.180         63.33	     8.718
  22.200         50.00	     7.746
  22.220         55.83	     8.185
  22.240         50.00	     7.746
  22.260         62.50	     8.660
  22.280         64.17	     8.775
  22.300         54.17	     8.062
  22.320         48.33	     7.616
  22.340         56.67	     8.246
  22.360         61.67	     8.602
  22.380         61.67	     8.602
  22.400         62.50	     8.660
  22.420         59.17	     8.426
  22.440         55.00	     8.124
  22.460         51.67	     7.874
  22.480         46.67	     7.483
  22.500         53.33	     8.000
  22.520         70.00	     9.165
  22.540         43.33	     7.211
  22.560         66.67	     8.944
  22.580         50.83	     7.810
  22.600         50.00	     7.746
  22.620         60.00	     8.485
  22.640         57.50	     8.307
  22.660         57.50	     8.307
  22.680         67.50	     9.000
  22.700         50.00	     7.746
  22.720         74.17	     9.434
  22.740         62.50	     8.660
  22.760         67.50	     9.000
  22.780         69.17	     9.110
  22.800         69.17	     9.110
  22.820         79.17	     9.747
  22.840         65.83	     8.888
  22.860         69.17	     9.110
  22.880         71.67	     9.274
  22.900         76.67	     9.592
  22.920         67.50	     9.000
  22.940         76.67	     9.592
  22.960         63.33	     8.718
  22.980         70.83	     9.220
  23.000         58.33	     8.367
  23.020         51.67	     7.874
  23.040         49.17	     7.681
  23.060         63.33	     8.718
  23.080         70.83	     9.220
  23.100         73.33	     9.381
  23.120         73.33	     9.381
  23.140         55.83	     8.185
  23.160         55.83	     8.185
  23.180         45.83	     7.416
  23.200         60.00	     8.485
  23.220         63.33	     8.718
  23.240         65.83	     8.888
  23.260         57.50	     8.307
  23.280         65.00	     8.832
  23.300         57.50	     8.307
  23.320         65.83	     8.888
  23.340         61.67	     8.602
  23.360         74.17	     9.434
  23.380         95.83	    10.724
  23.400        135.83	    12.767
  23.420        134.17	    12.689
  23.440        105.00	    11.225
  23.460        113.33	    11.662
  23.480         85.00	    10.100
  23.500         89.17	    10.344
  23.520         85.83	    10.149
  23.540         62.50	     8.660
  23.560         66.67	     8.944
  23.580         82.50	     9.950
  23.600         71.67	     9.274
  23.620         76.67	     9.592
  23.640         55.00	     8.124
  23.660         69.17	     9.110
  23.680         72.50	     9.327
  23.700         60.83	     8.544
  23.720         68.33	     9.055
  23.740         60.00	     8.485
  23.760         65.83	     8.888
  23.780         71.67	     9.274
  23.800         65.83	     8.888
  23.820         63.33	     8.718
  23.840         55.00	     8.124
  23.860         66.67	     8.944
  23.880         60.00	     8.485
  23.900         55.00	     8.124
  23.920         68.33	     9.055
  23.940         70.83	     9.220
  23.960         68.33	     9.055
  23.980         58.33	     8.367
  24.000         76.67	     9.592
  24.020         89.17	    10.344
  24.040         83.33	    10.000
  24.060         87.50	    10.247
  24.080         99.17	    10.909
  24.100         88.33	    10.296
  24.120         94.17	    10.630
  24.140        100.00	    10.954
  24.160         95.83	    10.724
  24.180        104.17	    11.180
  24.200         81.67	     9.899
  24.220         78.33	     9.695
  24.240         73.33	     9.381
  24.260         79.17	     9.747
  24.280         84.17	    10.050
  24.300         50.00	     7.746
  24.320         61.67	     8.602
  24.340         65.83	     8.888
  24.360         72.50	     9.327
  24.380         82.50	     9.950
  24.400         70.00	     9.165
  24.420         85.00	    10.100
  24.440         97.50	    10.817
  24.460        121.67	    12.083
  24.480        115.83	    11.790
  24.500        100.00	    10.954
  24.520        100.00	    10.954
  24.540         90.83	    10.440
  24.560        107.50	    11.358
  24.580         90.83	    10.440
  24.600         74.17	     9.434
  24.620         63.33	     8.718
  24.640         70.83	     9.220
  24.660         71.67	     9.274
  24.680         66.67	     8.944
  24.700         65.00	     8.832
  24.720         60.83	     8.544
  24.740         70.83	     9.220
  24.760         77.50	     9.644
  24.780         66.67	     8.944
  24.800         71.67	     9.274
  24.820         56.67	     8.246
  24.840         60.83	     8.544
  24.860         72.50	     9.327
  24.880         66.67	     8.944
  24.900         70.83	     9.220
  24.920         66.67	     8.944
  24.940         83.33	    10.000
  24.960         80.00	     9.798
  24.980         90.00	    10.392
  25.000        101.67	    11.045
  25.020        125.00	    12.247
  25.040         95.00	    10.677
  25.060         93.33	    10.583
  25.080         88.33	    10.296
  25.100         85.00	    10.100
  25.120         80.00	     9.798
  25.140         55.83	     8.185
  25.160         70.00	     9.165
  25.180         61.67	     8.602
  25.200         60.83	     8.544
  25.220         90.83	    10.440
  25.240        133.33	    12.649
  25.260         98.33	    10.863
  25.280         83.33	    10.000
  25.300         95.83	    10.724
  25.320         91.67	    10.488
  25.340         90.00	    10.392
  25.360        111.67	    11.576
  25.380        105.83	    11.269
  25.400        125.83	    12.288
  25.420        105.00	    11.225
  25.440         84.17	    10.050
  25.460         85.00	    10.100
  25.480         82.50	     9.950
  25.500         80.83	     9.849
  25.520         75.83	     9.539
  25.540         88.33	    10.296
  25.560         83.33	    10.000
  25.580         73.33	     9.381
  25.600         59.17	     8.426
  25.620         52.50	     7.937
  25.640         68.33	     9.055
  25.660         53.33	     8.000
  25.680         73.33	     9.381
  25.700         67.50	     9.000
  25.720         55.83	     8.185
  25.740         57.50	     8.307
  25.760         64.17	     8.775
  25.780         59.17	     8.426
  25.800         66.67	     8.944
  25.820         55.83	     8.185
  25.840         57.50	     8.307
  25.860         61.67	     8.602
  25.880         58.33	     8.367
  25.900         49.17	     7.681
  25.920         54.17	     8.062
  25.940         48.33	     7.616
  25.960         58.33	     8.367
  25.980         56.67	     8.246
  26.000         59.17	     8.426
  26.020         56.67	     8.246
  26.040         60.83	     8.544
  26.060         56.67	     8.246
  26.080         59.17	     8.426
  26.100         61.67	     8.602
  26.120         57.50	     8.307
  26.140         69.17	     9.110
  26.160         62.50	     8.660
  26.180         76.67	     9.592
  26.200         81.67	     9.899
  26.220         94.17	    10.630
  26.240         91.67	    10.488
  26.260        115.83	    11.790
  26.280        109.17	    11.446
  26.300        111.67	    11.576
  26.320        102.50	    11.091
  26.340        137.50	    12.845
  26.360        157.50	    13.748
  26.380        160.00	    13.856
  26.400        209.17	    15.843
  26.420        305.83	    19.157
  26.440        360.83	    20.809
  26.460        490.00	    24.249
  26.480        746.67	    29.933
  26.500       1024.17	    35.057
  26.520       1020.00	    34.986
  26.540        790.00	    30.790
  26.560        665.00	    28.249
  26.580        592.50	    26.665
  26.600        453.33	    23.324
  26.620        270.00	    18.000
  26.640        175.00	    14.491
  26.660        122.50	    12.124
  26.680        159.17	    13.820
  26.700        143.33	    13.115
  26.720        160.00	    13.856
  26.740        189.17	    15.067
  26.760        180.00	    14.697
  26.780        161.67	    13.928
  26.800        114.17	    11.705
  26.820        130.83	    12.530
  26.840        100.83	    11.000
  26.860         78.33	     9.695
  26.880         90.00	    10.392
  26.900         80.83	     9.849
  26.920         74.17	     9.434
  26.940         78.33	     9.695
  26.960         80.83	     9.849
  26.980         67.50	     9.000
  27.000         65.83	     8.888
  27.020         62.50	     8.660
  27.040         83.33	    10.000
  27.060         49.17	     7.681
  27.080         70.83	     9.220
  27.100         57.50	     8.307
  27.120         61.67	     8.602
  27.140         59.17	     8.426
  27.160         83.33	    10.000
  27.180         70.83	     9.220
  27.200         80.83	     9.849
  27.220         76.67	     9.592
  27.240         64.17	     8.775
  27.260         58.33	     8.367
  27.280         84.17	    10.050
  27.300         77.50	     9.644
  27.320         86.67	    10.198
  27.340         91.67	    10.488
  27.360        122.50	    12.124
  27.380        129.17	    12.450
  27.400        115.00	    11.747
  27.420        102.50	    11.091
  27.440        103.33	    11.136
  27.460        107.50	    11.358
  27.480         66.67	     8.944
  27.500         85.00	    10.100
  27.520        152.50	    13.528
  27.540        201.67	    15.556
  27.560        185.00	    14.900
  27.580        207.50	    15.780
  27.600        245.00	    17.146
  27.620        275.83	    18.193
  27.640        181.67	    14.765
  27.660        190.83	    15.133
  27.680        183.33	    14.832
  27.700        174.17	    14.457
  27.720        179.17	    14.663
  27.740        168.33	    14.213
  27.760        209.17	    15.843
  27.780        204.17	    15.652
  27.800        201.67	    15.556
  27.820        190.83	    15.133
  27.840        177.50	    14.595
  27.860        166.67	    14.142
  27.880        135.83	    12.767
  27.900        117.50	    11.874
  27.920        103.33	    11.136
  27.940         90.83	    10.440
  27.960         86.67	    10.198
  27.980         94.17	    10.630
  28.000         92.50	    10.536
  28.020         74.17	     9.434
  28.040         75.83	     9.539
  28.060         75.83	     9.539
  28.080         79.17	     9.747
  28.100         73.33	     9.381
  28.120        105.83	    11.269
  28.140         96.67	    10.770
  28.160        105.83	    11.269
  28.180         96.67	    10.770
  28.200         95.83	    10.724
  28.220         90.00	    10.392
  28.240         84.17	    10.050
  28.260         77.50	     9.644
  28.280         53.33	     8.000
  28.300         47.50	     7.550
  28.320         55.83	     8.185
  28.340         49.17	     7.681
  28.360         40.83	     7.000
  28.380         62.50	     8.660
  28.400         55.83	     8.185
  28.420         57.50	     8.307
  28.440         52.50	     7.937
  28.460         73.33	     9.381
  28.480         63.33	     8.718
  28.500         54.17	     8.062
  28.520         60.83	     8.544
  28.540         66.67	     8.944
  28.560         66.67	     8.944
  28.580         51.67	     7.874
  28.600         55.00	     8.124
  28.620         60.00	     8.485
  28.640         64.17	     8.775
  28.660         52.50	     7.937
  28.680         58.33	     8.367
  28.700         50.00	     7.746
  28.720         52.50	     7.937
  28.740         56.67	     8.246
  28.760         50.00	     7.746
  28.780         42.50	     7.141
  28.800         47.50	     7.550
  28.820         45.83	     7.416
  28.840         45.00	     7.348
  28.860         37.50	     6.708
  28.880         40.00	     6.928
  28.900         43.33	     7.211
  28.920         48.33	     7.616
  28.940         35.83	     6.557
  28.960         45.00	     7.348
  28.980         44.17	     7.280
  29.000         45.83	     7.416
  29.020         39.17	     6.856
  29.040         47.50	     7.550
  29.060         47.50	     7.550
  29.080         50.83	     7.810
  29.100         43.33	     7.211
  29.120         50.00	     7.746
  29.140         37.50	     6.708
  29.160         50.83	     7.810
  29.180         37.50	     6.708
  29.200         48.33	     7.616
  29.220         46.67	     7.483
  29.240         44.17	     7.280
  29.260         35.00	     6.481
  29.280         43.33	     7.211
  29.300         41.67	     7.071
  29.320         41.67	     7.071
  29.340         39.17	     6.856
  29.360         46.67	     7.483
  29.380         45.00	     7.348
  29.400         54.17	     8.062
  29.420         50.00	     7.746
  29.440         61.67	     8.602
  29.460         49.17	     7.681
  29.480         48.33	     7.616
  29.500         69.17	     9.110
  29.520         51.67	     7.874
  29.540         49.17	     7.681
  29.560         50.83	     7.810
  29.580         70.00	     9.165
  29.600         85.00	    10.100
  29.620         66.67	     8.944
  29.640         71.67	     9.274
  29.660         77.50	     9.644
  29.680         83.33	    10.000
  29.700         80.00	     9.798
  29.720         91.67	    10.488
  29.740         94.17	    10.630
  29.760         86.67	    10.198
  29.780         87.50	    10.247
  29.800         69.17	     9.110
  29.820         84.17	    10.050
  29.840         78.33	     9.695
  29.860         70.00	     9.165
  29.880         75.00	     9.487
  29.900         76.67	     9.592
  29.920         82.50	     9.950
  29.940        150.83	    13.454
  29.960        201.67	    15.556
  29.980        187.50	    15.000
  30.000        105.83	    11.269
  30.020        115.00	    11.747
  30.040        159.17	    13.820
  30.060        119.17	    11.958
  30.080         84.17	    10.050
  30.100         71.67	     9.274
  30.120         77.50	     9.644
  30.140         60.83	     8.544
  30.160         81.67	     9.899
  30.180         90.00	    10.392
  30.200        116.67	    11.832
  30.220        133.33	    12.649
  30.240        112.50	    11.619
  30.260         83.33	    10.000
  30.280        106.67	    11.314
  30.300         83.33	    10.000
  30.320         74.17	     9.434
  30.340         73.33	     9.381
  30.360         65.00	     8.832
  30.380         82.50	     9.950
  30.400         88.33	    10.296
  30.420         64.17	     8.775
  30.440         65.00	     8.832
  30.460         75.00	     9.487
  30.480         54.17	     8.062
  30.500         58.33	     8.367
  30.520         50.00	     7.746
  30.540         50.83	     7.810
  30.560         60.00	     8.485
  30.580         57.50	     8.307
  30.600         75.00	     9.487
  30.620         75.83	     9.539
  30.640         79.17	     9.747
  30.660         65.83	     8.888
  30.680         67.50	     9.000
  30.700         71.67	     9.274
  30.720         57.50	     8.307
  30.740         65.00	     8.832
  30.760         55.83	     8.185
  30.780         61.67	     8.602
  30.800         46.67	     7.483
  30.820         46.67	     7.483
  30.840         45.00	     7.348
  30.860         44.17	     7.280
  30.880         40.83	     7.000
  30.900         48.33	     7.616
  30.920         50.83	     7.810
  30.940         56.67	     8.246
  30.960         50.83	     7.810
  30.980         45.83	     7.416
  31.000         54.17	     8.062
  31.020         50.83	     7.810
  31.040         49.17	     7.681
  31.060         63.33	     8.718
  31.080         70.00	     9.165
  31.100         72.50	     9.327
  31.120         85.00	    10.100
  31.140         91.67	    10.488
  31.160         75.00	     9.487
  31.180         68.33	     9.055
  31.200         65.83	     8.888
  31.220         58.33	     8.367
  31.240         52.50	     7.937
  31.260         75.83	     9.539
  31.280         61.67	     8.602
  31.300         68.33	     9.055
  31.320         70.83	     9.220
  31.340         46.67	     7.483
  31.360         63.33	     8.718
  31.380         45.83	     7.416
  31.400         42.50	     7.141
  31.420         58.33	     8.367
  31.440         64.17	     8.775
  31.460         34.17	     6.403
  31.480         45.83	     7.416
  31.500         45.83	     7.416
  31.520         51.67	     7.874
  31.540         40.83	     7.000
  31.560         46.67	     7.483
  31.580         44.17	     7.280
  31.600         40.83	     7.000
  31.620         37.50	     6.708
  31.640         28.33	     5.831
  31.660         37.50	     6.708
  31.680         42.50	     7.141
  31.700         41.67	     7.071
  31.720         42.50	     7.141
  31.740         34.17	     6.403
  31.760         38.33	     6.782
  31.780         54.17	     8.062
  31.800         55.83	     8.185
  31.820         52.50	     7.937
  31.840         56.67	     8.246
  31.860         45.00	     7.348
  31.880         49.17	     7.681
  31.900         60.83	     8.544
  31.920         57.50	     8.307
  31.940         59.17	     8.426
  31.960         59.17	     8.426
  31.980         64.17	     8.775
  32.000         67.50	     9.000
  32.020         54.17	     8.062
  32.040         52.50	     7.937
  32.060         66.67	     8.944
  32.080         56.67	     8.246
  32.100         53.33	     8.000
  32.120         68.33	     9.055
  32.140         59.17	     8.426
  32.160         65.00	     8.832
  32.180         60.00	     8.485
  32.200         39.17	     6.856
  32.220         62.50	     8.660
  32.240         45.00	     7.348
  32.260         60.00	     8.485
  32.280         40.00	     6.928
  32.300         30.83	     6.083
  32.320         45.00	     7.348
  32.340         40.83	     7.000
  32.360         34.17	     6.403
  32.380         45.00	     7.348
  32.400         44.17	     7.280
  32.420         40.83	     7.000
  32.440         36.67	     6.633
  32.460         29.17	     5.916
  32.480         45.00	     7.348
  32.500         38.33	     6.782
  32.520         43.33	     7.211
  32.540         40.83	     7.000
  32.560         33.33	     6.325
  32.580         43.33	     7.211
  32.600         32.50	     6.245
  32.620         32.50	     6.245
  32.640         35.00	     6.481
  32.660         35.00	     6.481
  32.680         37.50	     6.708
  32.700         36.67	     6.633
  32.720         36.67	     6.633
  32.740         25.83	     5.568
  32.760         33.33	     6.325
  32.780         37.50	     6.708
  32.800         43.33	     7.211
  32.820         35.00	     6.481
  32.840         36.67	     6.633
  32.860         37.50	     6.708
  32.880         44.17	     7.280
  32.900         51.67	     7.874
  32.920         41.67	     7.071
  32.940         56.67	     8.246
  32.960         52.50	     7.937
  32.980         52.50	     7.937
  33.000         49.17	     7.681
  33.020         40.00	     6.928
  33.040         26.67	     5.657
  33.060         32.50	     6.245
  33.080         42.50	     7.141
  33.100         31.67	     6.164
  33.120         44.17	     7.280
  33.140         40.83	     7.000
  33.160         36.67	     6.633
  33.180         41.67	     7.071
  33.200         30.83	     6.083
  33.220         40.00	     6.928
  33.240         41.67	     7.071
  33.260         55.00	     8.124
  33.280         42.50	     7.141
  33.300         48.33	     7.616
  33.320         40.00	     6.928
  33.340         45.83	     7.416
  33.360         46.67	     7.483
  33.380         53.33	     8.000
  33.400         45.83	     7.416
  33.420         52.50	     7.937
  33.440         37.50	     6.708
  33.460         35.83	     6.557
  33.480         48.33	     7.616
  33.500         44.17	     7.280
  33.520         45.83	     7.416
  33.540         35.00	     6.481
  33.560         34.17	     6.403
  33.580         41.67	     7.071
  33.600         29.17	     5.916
  33.620         55.00	     8.124
  33.640         36.67	     6.633
  33.660         47.50	     7.550
  33.680         38.33	     6.782
  33.700         45.00	     7.348
  33.720         38.33	     6.782
  33.740         32.50	     6.245
  33.760         45.00	     7.348
  33.780         58.33	     8.367
  33.800         44.17	     7.280
  33.820         45.83	     7.416
  33.840         51.67	     7.874
  33.860         49.17	     7.681
  33.880         50.00	     7.746
  33.900         50.83	     7.810
  33.920         34.17	     6.403
  33.940         55.83	     8.185
  33.960         58.33	     8.367
  33.980         60.00	     8.485
  34.000         50.00	     7.746
  34.020         53.33	     8.000
  34.040         42.50	     7.141
  34.060         43.33	     7.211
  34.080         51.67	     7.874
  34.100         55.83	     8.185
  34.120         50.00	     7.746
  34.140         49.17	     7.681
  34.160         45.83	     7.416
  34.180         43.33	     7.211
  34.200         40.83	     7.000
  34.220         64.17	     8.775
  34.240         60.83	     8.544
  34.260         55.83	     8.185
  34.280         57.50	     8.307
  34.300         56.67	     8.246
  34.320         60.00	     8.485
  34.340         61.67	     8.602
  34.360         66.67	     8.944
  34.380         80.00	     9.798
  34.400         83.33	    10.000
  34.420         71.67	     9.274
  34.440         83.33	    10.000
  34.460         64.17	     8.775
  34.480         65.00	     8.832
  34.500         65.00	     8.832
  34.520         73.33	     9.381
  34.540         62.50	     8.660
  34.560         55.00	     8.124
  34.580         60.83	     8.544
  34.600         62.50	     8.660
  34.620         62.50	     8.660
  34.640         60.83	     8.544
  34.660         80.83	     9.849
  34.680         57.50	     8.307
  34.700         78.33	     9.695
  34.720         77.50	     9.644
  34.740         62.50	     8.660
  34.760         88.33	    10.296
  34.780         81.67	     9.899
  34.800         98.33	    10.863
  34.820         90.00	    10.392
  34.840         73.33	     9.381
  34.860         91.67	    10.488
  34.880        126.67	    12.329
  34.900        125.83	    12.288
  34.920        113.33	    11.662
  34.940        106.67	    11.314
  34.960         94.17	    10.630
  34.980        118.33	    11.916
  35.000        145.00	    13.191
  35.020        155.00	    13.638
  35.040        102.50	    11.091
  35.060        100.83	    11.000
  35.080        100.83	    11.000
  35.100         84.17	    10.050
  35.120         83.33	    10.000
  35.140         85.83	    10.149
  35.160         63.33	     8.718
  35.180         70.00	     9.165
  35.200         65.00	     8.832
  35.220         70.83	     9.220
  35.240         99.17	    10.909
  35.260         87.50	    10.247
  35.280         98.33	    10.863
  35.300         99.17	    10.909
  35.320         85.83	    10.149
  35.340         91.67	    10.488
  35.360        115.00	    11.747
  35.380        117.50	    11.874
  35.400        118.33	    11.916
  35.420        110.00	    11.489
  35.440        105.83	    11.269
  35.460        103.33	    11.136
  35.480         97.50	    10.817
  35.500         83.33	    10.000
  35.520         89.17	    10.344
  35.540         76.67	     9.592
  35.560         64.17	     8.775
  35.580         70.00	     9.165
  35.600         67.50	     9.000
  35.620         63.33	     8.718
  35.640         43.33	     7.211
  35.660         56.67	     8.246
  35.680         50.00	     7.746
  35.700         63.33	     8.718
  35.720         49.17	     7.681
  35.740         50.00	     7.746
  35.760         52.50	     7.937
  35.780         48.33	     7.616
  35.800         33.33	     6.325
  35.820         40.00	     6.928
  35.840         45.83	     7.416
  35.860         44.17	     7.280
  35.880         43.33	     7.211
  35.900         42.50	     7.141
  35.920         46.67	     7.483
  35.940         50.83	     7.810
  35.960         35.83	     6.557
  35.980         43.33	     7.211
  36.000         50.00	     7.746
  36.020         48.33	     7.616
  36.040         52.50	     7.937
  36.060         29.17	     5.916
  36.080         46.67	     7.483
  36.100         38.33	     6.782
  36.120         43.33	     7.211
  36.140         46.67	     7.483
  36.160         47.50	     7.550
  36.180         54.17	     8.062
  36.200         49.17	     7.681
  36.220         62.50	     8.660
  36.240         47.50	     7.550
  36.260         56.67	     8.246
  36.280         74.17	     9.434
  36.300         75.83	     9.539
  36.320         79.17	     9.747
  36.340         66.67	     8.944
  36.360         95.83	    10.724
  36.380         95.00	    10.677
  36.400        125.00	    12.247
  36.420        142.50	    13.077
  36.440        122.50	    12.124
  36.460         90.00	    10.392
  36.480        103.33	    11.136
  36.500         99.17	    10.909
  36.520         93.33	    10.583
  36.540         70.83	     9.220
  36.560         70.83	     9.220
  36.580         80.00	     9.798
  36.600         82.50	     9.950
  36.620         81.67	     9.899
  36.640         60.83	     8.544
  36.660         56.67	     8.246
  36.680         62.50	     8.660
  36.700         51.67	     7.874
  36.720         52.50	     7.937
  36.740         47.50	     7.550
  36.760         55.00	     8.124
  36.780         51.67	     7.874
  36.800         46.67	     7.483
  36.820         56.67	     8.246
  36.840         55.83	     8.185
  36.860         42.50	     7.141
  36.880         47.50	     7.550
  36.900         45.83	     7.416
  36.920         45.00	     7.348
  36.940         49.17	     7.681
  36.960         45.00	     7.348
  36.980         45.00	     7.348
  37.000         37.50	     6.708
  37.020         44.17	     7.280
  37.040         36.67	     6.633
  37.060         41.67	     7.071
  37.080         43.33	     7.211
  37.100         40.83	     7.000
  37.120         43.33	     7.211
  37.140         55.83	     8.185
  37.160         45.83	     7.416
  37.180         47.50	     7.550
  37.200         37.50	     6.708
  37.220         55.00	     8.124
  37.240         60.00	     8.485
  37.260         45.83	     7.416
  37.280         56.67	     8.246
  37.300         71.67	     9.274
  37.320         50.83	     7.810
  37.340         50.83	     7.810
  37.360         58.33	     8.367
  37.380         50.83	     7.810
  37.400         58.33	     8.367
  37.420         49.17	     7.681
  37.440         50.83	     7.810
  37.460         64.17	     8.775
  37.480         57.50	     8.307
  37.500         55.83	     8.185
  37.520         63.33	     8.718
  37.540         76.67	     9.592
  37.560         55.83	     8.185
  37.580         55.83	     8.185
  37.600         61.67	     8.602
  37.620         62.50	     8.660
  37.640         54.17	     8.062
  37.660         43.33	     7.211
  37.680         42.50	     7.141
  37.700         45.83	     7.416
  37.720         40.83	     7.000
  37.740         37.50	     6.708
  37.760         39.17	     6.856
  37.780         33.33	     6.325
  37.800         42.50	     7.141
  37.820         26.67	     5.657
  37.840         37.50	     6.708
  37.860         39.17	     6.856
  37.880         35.00	     6.481
  37.900         40.00	     6.928
  37.920         33.33	     6.325
  37.940         33.33	     6.325
  37.960         30.83	     6.083
  37.980         37.50	     6.708
  38.000         28.33	     5.831
  38.020         31.67	     6.164
  38.040         43.33	     7.211
  38.060         27.50	     5.745
  38.080         25.83	     5.568
  38.100         35.83	     6.557
  38.120         31.67	     6.164
  38.140         34.17	     6.403
  38.160         35.83	     6.557
  38.180         33.33	     6.325
  38.200         22.50	     5.196
  38.220         39.17	     6.856
  38.240         30.00	     6.000
  38.260         37.50	     6.708
  38.280         28.33	     5.831
  38.300         32.50	     6.245
  38.320         40.00	     6.928
  38.340         38.33	     6.782
  38.360         37.50	     6.708
  38.380         37.50	     6.708
  38.400         30.00	     6.000
  38.420         25.83	     5.568
  38.440         35.83	     6.557
  38.460         25.83	     5.568
  38.480         35.83	     6.557
  38.500         36.67	     6.633
  38.520         45.00	     7.348
  38.540         38.33	     6.782
  38.560         35.00	     6.481
  38.580         38.33	     6.782
  38.600         38.33	     6.782
  38.620         39.17	     6.856
  38.640         34.17	     6.403
  38.660         44.17	     7.280
  38.680         46.67	     7.483
  38.700         45.00	     7.348
  38.720         31.67	     6.164
  38.740         43.33	     7.211
  38.760         42.50	     7.141
  38.780         36.67	     6.633
  38.800         53.33	     8.000
  38.820         37.50	     6.708
  38.840         39.17	     6.856
  38.860         32.50	     6.245
  38.880         40.83	     7.000
  38.900         33.33	     6.325
  38.920         35.83	     6.557
  38.940         36.67	     6.633
  38.960         33.33	     6.325
  38.980         35.00	     6.481
  39.000         33.33	     6.325
  39.020         30.00	     6.000
  39.040         40.00	     6.928
  39.060         32.50	     6.245
  39.080         33.33	     6.325
  39.100         42.50	     7.141
  39.120         41.67	     7.071
  39.140         45.00	     7.348
  39.160         41.67	     7.071
  39.180         43.33	     7.211
  39.200         49.17	     7.681
  39.220         55.00	     8.124
  39.240         60.00	     8.485
  39.260         65.83	     8.888
  39.280         86.67	    10.198
  39.300         82.50	     9.950
  39.320         92.50	    10.536
  39.340        110.83	    11.533
  39.360        104.17	    11.180
  39.380         90.00	    10.392
  39.400         74.17	     9.434
  39.420         85.83	    10.149
  39.440         72.50	     9.327
  39.460         64.17	     8.775
  39.480         66.67	     8.944
  39.500         54.17	     8.062
  39.520         40.83	     7.000
  39.540         53.33	     8.000
  39.560         36.67	     6.633
  39.580         39.17	     6.856
  39.600         25.00	     5.477
  39.620         46.67	     7.483
  39.640         38.33	     6.782
  39.660         41.67	     7.071
  39.680         43.33	     7.211
  39.700         45.00	     7.348
  39.720         48.33	     7.616
  39.740         58.33	     8.367
  39.760         54.17	     8.062
  39.780         45.00	     7.348
  39.800         46.67	     7.483
  39.820         34.17	     6.403
  39.840         45.83	     7.416
  39.860         34.17	     6.403
  39.880         40.00	     6.928
  39.900         35.00	     6.481
  39.920         42.50	     7.141
  39.940         54.17	     8.062
  39.960         45.00	     7.348
  39.980         44.17	     7.280
  40.000         51.67	     7.874
  40.020         50.00	     7.746
  40.040         66.67	     8.944
  40.060         60.00	     8.485
  40.080         64.17	     8.775
  40.100         62.50	     8.660
  40.120         75.83	     9.539
  40.140         59.17	     8.426
  40.160         73.33	     9.381
  40.180         80.00	     9.798
  40.200         48.33	     7.616
  40.220         50.00	     7.746
  40.240         46.67	     7.483
  40.260         48.33	     7.616
  40.280         61.67	     8.602
  40.300         40.83	     7.000
  40.320         35.00	     6.481
  40.340         43.33	     7.211
  40.360         28.33	     5.831
  40.380         35.83	     6.557
  40.400         49.17	     7.681
  40.420         28.33	     5.831
  40.440         39.17	     6.856
  40.460         35.00	     6.481
  40.480         45.00	     7.348
  40.500         59.17	     8.426
  40.520         31.67	     6.164
  40.540         29.17	     5.916
  40.560         34.17	     6.403
  40.580         45.83	     7.416
  40.600         40.83	     7.000
  40.620         50.00	     7.746
  40.640         40.83	     7.000
  40.660         41.67	     7.071
  40.680         46.67	     7.483
  40.700         40.00	     6.928
  40.720         32.50	     6.245
  40.740         34.17	     6.403
  40.760         45.83	     7.416
  40.780         46.67	     7.483
  40.800         38.33	     6.782
  40.820         40.00	     6.928
  40.840         37.50	     6.708
  40.860         52.50	     7.937
  40.880         31.67	     6.164
  40.900         36.67	     6.633
  40.920         41.67	     7.071
  40.940         40.83	     7.000
  40.960         45.00	     7.348
  40.980         43.33	     7.211
  41.000         43.33	     7.211
  41.020         39.17	     6.856
  41.040         29.17	     5.916
  41.060         52.50	     7.937
  41.080         47.50	     7.550
  41.100         39.17	     6.856
  41.120         52.50	     7.937
  41.140         47.50	     7.550
  41.160         40.00	     6.928
  41.180         42.50	     7.141
  41.200         40.00	     6.928
  41.220         48.33	     7.616
  41.240         38.33	     6.782
  41.260         55.00	     8.124
  41.280         39.17	     6.856
  41.300         40.00	     6.928
  41.320         38.33	     6.782
  41.340         38.33	     6.782
  41.360         44.17	     7.280
  41.380         45.00	     7.348
  41.400         51.67	     7.874
  41.420         57.50	     8.307
  41.440         49.17	     7.681
  41.460         53.33	     8.000
  41.480         52.50	     7.937
  41.500         51.67	     7.874
  41.520         55.00	     8.124
  41.540         56.67	     8.246
  41.560         65.00	     8.832
  41.580         51.67	     7.874
  41.600         61.67	     8.602
  41.620         60.00	     8.485
  41.640         62.50	     8.660
  41.660         63.33	     8.718
  41.680         55.00	     8.124
  41.700         60.00	     8.485
  41.720         55.83	     8.185
  41.740         50.83	     7.810
  41.760         43.33	     7.211
  41.780         56.67	     8.246
  41.800         43.33	     7.211
  41.820         55.83	     8.185
  41.840         62.50	     8.660
  41.860         60.83	     8.544
  41.880         56.67	     8.246
  41.900         66.67	     8.944
  41.920         52.50	     7.937
  41.940         56.67	     8.246
  41.960         48.33	     7.616
  41.980         54.17	     8.062
  42.000         52.50	     7.937
  42.020         47.50	     7.550
  42.040         45.83	     7.416
  42.060         43.33	     7.211
  42.080         42.50	     7.141
  42.100         51.67	     7.874
  42.120         50.00	     7.746
  42.140         51.67	     7.874
  42.160         43.33	     7.211
  42.180         50.83	     7.810
  42.200         80.83	     9.849
  42.220         70.00	     9.165
  42.240         78.33	     9.695
  42.260         98.33	    10.863
  42.280        127.50	    12.369
  42.300        113.33	    11.662
  42.320        127.50	    12.369
  42.340        134.17	    12.689
  42.360        129.17	    12.450
  42.380        117.50	    11.874
  42.400         90.00	    10.392
  42.420         85.00	    10.100
  42.440         96.67	    10.770
  42.460         73.33	     9.381
  42.480         84.17	    10.050
  42.500         55.83	     8.185
  42.520         60.83	     8.544
  42.540         45.00	     7.348
  42.560         47.50	     7.550
  42.580         55.00	     8.124
  42.600         45.83	     7.416
  42.620         46.67	     7.483
  42.640         44.17	     7.280
  42.660         45.83	     7.416
  42.680         45.83	     7.416
  42.700         40.00	     6.928
  42.720         42.50	     7.141
  42.740         46.67	     7.483
  42.760         41.67	     7.071
  42.780         42.50	     7.141
  42.800         46.67	     7.483
  42.820         40.83	     7.000
  42.840         50.00	     7.746
  42.860         50.00	     7.746
  42.880         51.67	     7.874
  42.900         52.50	     7.937
  42.920         53.33	     8.000
  42.940         30.00	     6.000
  42.960         50.83	     7.810
  42.980         52.50	     7.937
  43.000         41.67	     7.071
  43.020         35.00	     6.481
  43.040         56.67	     8.246
  43.060         48.33	     7.616
  43.080         55.83	     8.185
  43.100         40.00	     6.928
  43.120         48.33	     7.616
  43.140         54.17	     8.062
  43.160         50.83	     7.810
  43.180         47.50	     7.550
  43.200         48.33	     7.616
  43.220         66.67	     8.944
  43.240         62.50	     8.660
  43.260         65.00	     8.832
  43.280         71.67	     9.274
  43.300         56.67	     8.246
  43.320         66.67	     8.944
  43.340         81.67	     9.899
  43.360         82.50	     9.950
  43.380         75.83	     9.539
  43.400         74.17	     9.434
  43.420         75.00	     9.487
  43.440        100.00	    10.954
  43.460        101.67	    11.045
  43.480         80.00	     9.798
  43.500        105.83	    11.269
  43.520         90.00	    10.392
  43.540         90.00	    10.392
  43.560        100.83	    11.000
  43.580        102.50	    11.091
  43.600        100.00	    10.954
  43.620         98.33	    10.863
  43.640        103.33	    11.136
  43.660        100.00	    10.954
  43.680        118.33	    11.916
  43.700         86.67	    10.198
  43.720        101.67	    11.045
  43.740        100.00	    10.954
  43.760         77.50	     9.644
  43.780         83.33	    10.000
  43.800         95.83	    10.724
  43.820         92.50	    10.536
  43.840         70.83	     9.220
  43.860         96.67	    10.770
  43.880         80.00	     9.798
  43.900         90.83	    10.440
  43.920        105.00	    11.225
  43.940         89.17	    10.344
  43.960        107.50	    11.358
  43.980        132.50	    12.610
  44.000        107.50	    11.358
  44.020        116.67	    11.832
  44.040        130.83	    12.530
  44.060        115.00	    11.747
  44.080        139.17	    12.923
  44.100        153.33	    13.565
  44.120        149.17	    13.379
  44.140        165.83	    14.107
  44.160        163.33	    14.000
  44.180        189.17	    15.067
  44.200        239.17	    16.941
  44.220        227.50	    16.523
  44.240        215.00	    16.062
  44.260        241.67	    17.029
  44.280        261.67	    17.720
  44.300        290.83	    18.682
  44.320        306.67	    19.183
  44.340        340.00	    20.199
  44.360        307.50	    19.209
  44.380        314.17	    19.416
  44.400        322.50	    19.672
  44.420        320.83	    19.621
  44.440        315.00	    19.442
  44.460        315.00	    19.442
  44.480        307.50	    19.209
  44.500        294.17	    18.788
  44.520        261.67	    17.720
  44.540        260.83	    17.692
  44.560        265.83	    17.861
  44.580        220.83	    16.279
  44.600        220.83	    16.279
  44.620        205.00	    15.684
  44.640        188.33	    15.033
  44.660        177.50	    14.595
  44.680        168.33	    14.213
  44.700        170.00	    14.283
  44.720        145.83	    13.229
  44.740        118.33	    11.916
  44.760        124.17	    12.207
  44.780        109.17	    11.446
  44.800        119.17	    11.958
  44.820        128.33	    12.410
  44.840        112.50	    11.619
  44.860        105.83	    11.269
  44.880        102.50	    11.091
  44.900        105.00	    11.225
  44.920        101.67	    11.045
  44.940        104.17	    11.180
  44.960        101.67	    11.045
  44.980         83.33	    10.000
  45.000         95.00	    10.677
  45.020         77.50	     9.644
  45.040         81.67	     9.899
  45.060         71.67	     9.274
  45.080         73.33	     9.381
  45.100         77.50	     9.644
  45.120         81.67	     9.899
  45.140         73.33	     9.381
  45.160         74.17	     9.434
  45.180         62.50	     8.660
  45.200         61.67	     8.602
  45.220         74.17	     9.434
  45.240         71.67	     9.274
  45.260         64.17	     8.775
  45.280         61.67	     8.602
  45.300         77.50	     9.644
  45.320         71.67	     9.274
  45.340         71.67	     9.274
  45.360         85.83	    10.149
  45.380         88.33	    10.296
  45.400         80.83	     9.849
  45.420         84.17	    10.050
  45.440         95.00	    10.677
  45.460         62.50	     8.660
  45.480         74.17	     9.434
  45.500         73.33	     9.381
  45.520         65.00	     8.832
  45.540         51.67	     7.874
  45.560         75.83	     9.539
  45.580         66.67	     8.944
  45.600         61.67	     8.602
  45.620         60.00	     8.485
  45.640         74.17	     9.434
  45.660         87.50	    10.247
  45.680         88.33	    10.296
  45.700         56.67	     8.246
  45.720         58.33	     8.367
  45.740         50.00	     7.746
  45.760         59.17	     8.426
  45.780         55.83	     8.185
  45.800         57.50	     8.307
  45.820         58.33	     8.367
  45.840         58.33	     8.367
  45.860         48.33	     7.616
  45.880         53.33	     8.000
  45.900         57.50	     8.307
  45.920         55.83	     8.185
  45.940         47.50	     7.550
  45.960         48.33	     7.616
  45.980         57.50	     8.307
  46.000         41.67	     7.071
  46.020         39.17	     6.856
  46.040         59.17	     8.426
  46.060         26.67	     5.657
  46.080         39.17	     6.856
  46.100         42.50	     7.141
  46.120         34.17	     6.403
  46.140         34.17	     6.403
  46.160         40.83	     7.000
  46.180         29.17	     5.916
  46.200         30.00	     6.000
  46.220         40.83	     7.000
  46.240         39.17	     6.856
  46.260         33.33	     6.325
  46.280         35.00	     6.481
  46.300         34.17	     6.403
  46.320         25.83	     5.568
  46.340         38.33	     6.782
  46.360         35.00	     6.481
  46.380         32.50	     6.245
  46.400         31.67	     6.164
  46.420         34.17	     6.403
  46.440         35.00	     6.481
  46.460         35.83	     6.557
  46.480         30.83	     6.083
  46.500         39.17	     6.856
  46.520         32.50	     6.245
  46.540         35.00	     6.481
  46.560         31.67	     6.164
  46.580         37.50	     6.708
  46.600         29.17	     5.916
  46.620         34.17	     6.403
  46.640         35.83	     6.557
  46.660         34.17	     6.403
  46.680         41.67	     7.071
  46.700         38.33	     6.782
  46.720         30.83	     6.083
  46.740         25.00	     5.477
  46.760         35.83	     6.557
  46.780         41.67	     7.071
  46.800         39.17	     6.856
  46.820         31.67	     6.164
  46.840         35.00	     6.481
  46.860         28.33	     5.831
  46.880         32.50	     6.245
  46.900         30.83	     6.083
  46.920         39.17	     6.856
  46.940         30.00	     6.000
  46.960         35.00	     6.481
  46.980         45.00	     7.348
  47.000         53.33	     8.000
  47.020         61.67	     8.602
  47.040         45.00	     7.348
  47.060         43.33	     7.211
  47.080         31.67	     6.164
  47.100         33.33	     6.325
  47.120         37.50	     6.708
  47.140         43.33	     7.211
  47.160         39.17	     6.856
  47.180         38.33	     6.782
  47.200         34.17	     6.403
  47.220         29.17	     5.916
  47.240         35.00	     6.481
  47.260         28.33	     5.831
  47.280         41.67	     7.071
  47.300         20.00	     4.899
  47.320         29.17	     5.916
  47.340         35.83	     6.557
  47.360         30.00	     6.000
  47.380         35.83	     6.557
  47.400         24.17	     5.385
  47.420         32.50	     6.245
  47.440         28.33	     5.831
  47.460         17.50	     4.583
  47.480         26.67	     5.657
  47.500         21.67	     5.099
  47.520         24.17	     5.385
  47.540         20.00	     4.899
  47.560         35.00	     6.481
  47.580         21.67	     5.099
  47.600         24.17	     5.385
  47.620         27.50	     5.745
  47.640         28.33	     5.831
  47.660         26.67	     5.657
  47.680         33.33	     6.325
  47.700         30.83	     6.083
  47.720         34.17	     6.403
  47.740         36.67	     6.633
  47.760         34.17	     6.403
  47.780         28.33	     5.831
  47.800         42.50	     7.141
  47.820         46.67	     7.483
  47.840         30.00	     6.000
  47.860         35.00	     6.481
  47.880         40.83	     7.000
  47.900         35.00	     6.481
  47.920         40.83	     7.000
  47.940         35.83	     6.557
  47.960         38.33	     6.782
  47.980         39.17	     6.856
  48.000         50.00	     7.746
  48.020         45.83	     7.416
  48.040         31.67	     6.164
  48.060         42.50	     7.141
  48.080         36.67	     6.633
  48.100         42.50	     7.141
  48.120         30.83	     6.083
  48.140         37.50	     6.708
  48.160         43.33	     7.211
  48.180         33.33	     6.325
  48.200         39.17	     6.856
  48.220         33.33	     6.325
  48.240         27.50	     5.745
  48.260         41.67	     7.071
  48.280         50.83	     7.810
  48.300         33.33	     6.325
  48.320         27.50	     5.745
  48.340         33.33	     6.325
  48.360         35.00	     6.481
  48.380         30.83	     6.083
  48.400         32.50	     6.245
  48.420         35.00	     6.481
  48.440         26.67	     5.657
  48.460         29.17	     5.916
  48.480         33.33	     6.325
  48.500         39.17	     6.856
  48.520         32.50	     6.245
  48.540         30.83	     6.083
  48.560         30.00	     6.000
  48.580         30.00	     6.000
  48.600         29.17	     5.916
  48.620         25.83	     5.568
  48.640         30.83	     6.083
  48.660         32.50	     6.245
  48.680         26.67	     5.657
  48.700         31.67	     6.164
  48.720         28.33	     5.831
  48.740         24.17	     5.385
  48.760         37.50	     6.708
  48.780         34.17	     6.403
  48.800         29.17	     5.916
  48.820         42.50	     7.141
  48.840         31.67	     6.164
  48.860         27.50	     5.745
  48.880         28.33	     5.831
  48.900         16.67	     4.472
  48.920         29.17	     5.916
  48.940         41.67	     7.071
  48.960         34.17	     6.403
  48.980         34.17	     6.403
  49.000         27.50	     5.745
  49.020         36.67	     6.633
  49.040         27.50	     5.745
  49.060         35.00	     6.481
  49.080         39.17	     6.856
  49.100         41.67	     7.071
  49.120         44.17	     7.280
  49.140         35.83	     6.557
  49.160         53.33	     8.000
  49.180         51.67	     7.874
  49.200         50.83	     7.810
  49.220         61.67	     8.602
  49.240         47.50	     7.550
  49.260         45.83	     7.416
  49.280         45.83	     7.416
  49.300         44.17	     7.280
  49.320         50.00	     7.746
  49.340         52.50	     7.937
  49.360         50.83	     7.810
  49.380         53.33	     8.000
  49.400         39.17	     6.856
  49.420         45.83	     7.416
  49.440         48.33	     7.616
  49.460         49.17	     7.681
  49.480         40.00	     6.928
  49.500         45.00	     7.348
  49.520         41.67	     7.071
  49.540         47.50	     7.550
  49.560         41.67	     7.071
  49.580         40.00	     6.928
  49.600         55.00	     8.124
  49.620         47.50	     7.550
  49.640         65.00	     8.832
  49.660         60.83	     8.544
  49.680         58.33	     8.367
  49.700         52.50	     7.937
  49.720         54.17	     8.062
  49.740         60.00	     8.485
  49.760         69.17	     9.110
  49.780         70.83	     9.220
  49.800         80.00	     9.798
  49.820         72.50	     9.327
  49.840         75.00	     9.487
  49.860         71.67	     9.274
  49.880         78.33	     9.695
  49.900         85.83	    10.149
  49.920        107.50	    11.358
  49.940         95.83	    10.724
  49.960        105.83	    11.269
  49.980        141.67	    13.038
  50.000        188.33	    15.033
  50.020        175.00	    14.491
  50.040        131.67	    12.570
  50.060         95.00	    10.677
  50.080        100.00	    10.954
  50.100         94.17	    10.630
  50.120        102.50	    11.091
  50.140        106.67	    11.314
  50.160         98.33	    10.863
  50.180         81.67	     9.899
  50.200         60.00	     8.485
  50.220         60.83	     8.544
  50.240         53.33	     8.000
  50.260         48.33	     7.616
  50.280         42.50	     7.141
  50.300         42.50	     7.141
  50.320         39.17	     6.856
  50.340         50.83	     7.810
  50.360         55.00	     8.124
  50.380         51.67	     7.874
  50.400         64.17	     8.775
  50.420         61.67	     8.602
  50.440         69.17	     9.110
  50.460         65.00	     8.832
  50.480         75.83	     9.539
  50.500         78.33	     9.695
  50.520         68.33	     9.055
  50.540         55.83	     8.185
  50.560         61.67	     8.602
  50.580         60.83	     8.544
  50.600         72.50	     9.327
  50.620         73.33	     9.381
  50.640         45.00	     7.348
  50.660         50.00	     7.746
  50.680         46.67	     7.483
  50.700         41.67	     7.071
  50.720         50.00	     7.746
  50.740         40.83	     7.000
  50.760         32.50	     6.245
  50.780         34.17	     6.403
  50.800         42.50	     7.141
  50.820         36.67	     6.633
  50.840         30.83	     6.083
  50.860         39.17	     6.856
  50.880         40.00	     6.928
  50.900         45.00	     7.348
  50.920         43.33	     7.211
  50.940         40.00	     6.928
  50.960         52.50	     7.937
  50.980         49.17	     7.681
  51.000         64.17	     8.775
  51.020         60.83	     8.544
  51.040         54.17	     8.062
  51.060         48.33	     7.616
  51.080         43.33	     7.211
  51.100         45.83	     7.416
  51.120         45.83	     7.416
  51.140         50.00	     7.746
  51.160         54.17	     8.062
  51.180         47.50	     7.550
  51.200         40.00	     6.928
  51.220         40.83	     7.000
  51.240         38.33	     6.782
  51.260         49.17	     7.681
  51.280         30.83	     6.083
  51.300         32.50	     6.245
  51.320         35.83	     6.557
  51.340         30.00	     6.000
  51.360         29.17	     5.916
  51.380         35.83	     6.557
  51.400         25.83	     5.568
  51.420         34.17	     6.403
  51.440         30.00	     6.000
  51.460         25.83	     5.568
  51.480         33.33	     6.325
  51.500         22.50	     5.196
  51.520         29.17	     5.916
  51.540         27.50	     5.745
  51.560         34.17	     6.403
  51.580         28.33	     5.831
  51.600         25.00	     5.477
  51.620         25.00	     5.477
  51.640         21.67	     5.099
  51.660         32.50	     6.245
  51.680         23.33	     5.292
  51.700         25.83	     5.568
  51.720         20.83	     5.000
  51.740         24.17	     5.385
  51.760         26.67	     5.657
  51.780         20.83	     5.000
  51.800         25.00	     5.477
  51.820         32.50	     6.245
  51.840         30.83	     6.083
  51.860         31.67	     6.164
  51.880         35.83	     6.557
  51.900         38.33	     6.782
  51.920         35.00	     6.481
  51.940         41.67	     7.071
  51.960         43.33	     7.211
  51.980         47.50	     7.550
  52.000         43.33	     7.211
  52.020         42.50	     7.141
  52.040         30.00	     6.000
  52.060         30.83	     6.083
  52.080         39.17	     6.856
  52.100         38.33	     6.782
  52.120         28.33	     5.831
  52.140         24.17	     5.385
  52.160         45.00	     7.348
  52.180         39.17	     6.856
  52.200         55.83	     8.185
  52.220         42.50	     7.141
  52.240         35.00	     6.481
  52.260         40.83	     7.000
  52.280         40.00	     6.928
  52.300         38.33	     6.782
  52.320         39.17	     6.856
  52.340         57.50	     8.307
  52.360         44.17	     7.280
  52.380         32.50	     6.245
  52.400         40.00	     6.928
  52.420         38.33	     6.782
  52.440         41.67	     7.071
  52.460         30.00	     6.000
  52.480         35.00	     6.481
  52.500         40.00	     6.928
  52.520         30.00	     6.000
  52.540         23.33	     5.292
  52.560         28.33	     5.831
  52.580         29.17	     5.916
  52.600         30.00	     6.000
  52.620         35.00	     6.481
  52.640         30.00	     6.000
  52.660         33.33	     6.325
  52.680         36.67	     6.633
  52.700         33.33	     6.325
  52.720         31.67	     6.164
  52.740         31.67	     6.164
  52.760         30.83	     6.083
  52.780         32.50	     6.245
  52.800         32.50	     6.245
  52.820         38.33	     6.782
  52.840         26.67	     5.657
  52.860         37.50	     6.708
  52.880         23.33	     5.292
  52.900         38.33	     6.782
  52.920         40.83	     7.000
  52.940         39.17	     6.856
  52.960         31.67	     6.164
  52.980         32.50	     6.245
  53.000         41.67	     7.071
  53.020         32.50	     6.245
  53.040         29.17	     5.916
  53.060         47.50	     7.550
  53.080         39.17	     6.856
  53.100         35.00	     6.481
  53.120         37.50	     6.708
  53.140         37.50	     6.708
  53.160         42.50	     7.141
  53.180         37.50	     6.708
  53.200         35.83	     6.557
  53.220         34.17	     6.403
  53.240         30.00	     6.000
  53.260         25.00	     5.477
  53.280         24.17	     5.385
  53.300         41.67	     7.071
  53.320         34.17	     6.403
  53.340         27.50	     5.745
  53.360         32.50	     6.245
  53.380         32.50	     6.245
  53.400         33.33	     6.325
  53.420         29.17	     5.916
  53.440         20.00	     4.899
  53.460         25.83	     5.568
  53.480         28.33	     5.831
  53.500         21.67	     5.099
  53.520         28.33	     5.831
  53.540         34.17	     6.403
  53.560         25.00	     5.477
  53.580         31.67	     6.164
  53.600         20.83	     5.000
  53.620         26.67	     5.657
  53.640         30.83	     6.083
  53.660         34.17	     6.403
  53.680         25.00	     5.477
  53.700         24.17	     5.385
  53.720         20.00	     4.899
  53.740         29.17	     5.916
  53.760         24.17	     5.385
  53.780         26.67	     5.657
  53.800         33.33	     6.325
  53.820         21.67	     5.099
  53.840         30.83	     6.083
  53.860         31.67	     6.164
  53.880         30.00	     6.000
  53.900         30.83	     6.083
  53.920         33.33	     6.325
  53.940         31.67	     6.164
  53.960         33.33	     6.325
  53.980         35.00	     6.481
  54.000         30.83	     6.083
  54.020         19.17	     4.796
  54.040         39.17	     6.856
  54.060         31.67	     6.164
  54.080         40.83	     7.000
  54.100         40.83	     7.000
  54.120         35.83	     6.557
  54.140         38.33	     6.782
  54.160         50.83	     7.810
  54.180         53.33	     8.000
  54.200         79.17	     9.747
  54.220        101.67	    11.045
  54.240         70.83	     9.220
  54.260         53.33	     8.000
  54.280         41.67	     7.071
  54.300         48.33	     7.616
  54.320         39.17	     6.856
  54.340         50.00	     7.746
  54.360         60.00	     8.485
  54.380         44.17	     7.280
  54.400         33.33	     6.325
  54.420         34.17	     6.403
  54.440         40.00	     6.928
  54.460         36.67	     6.633
  54.480         30.00	     6.000
  54.500         37.50	     6.708
  54.520         43.33	     7.211
  54.540         35.00	     6.481
  54.560         55.83	     8.185
  54.580         43.33	     7.211
  54.600         43.33	     7.211
  54.620         55.00	     8.124
  54.640         48.33	     7.616
  54.660         60.83	     8.544
  54.680         49.17	     7.681
  54.700         60.83	     8.544
  54.720         85.83	    10.149
  54.740         72.50	     9.327
  54.760         63.33	     8.718
  54.780         70.00	     9.165
  54.800         64.17	     8.775
  54.820         55.00	     8.124
  54.840         50.00	     7.746
  54.860         59.17	     8.426
  54.880         53.33	     8.000
  54.900         51.67	     7.874
  54.920         57.50	     8.307
  54.940         51.67	     7.874
  54.960         45.83	     7.416
  54.980         40.00	     6.928
  55.000         32.50	     6.245
  55.020         40.00	     6.928
  55.040         40.83	     7.000
  55.060         45.83	     7.416
  55.080         45.83	     7.416
  55.100         57.50	     8.307
  55.120         50.00	     7.746
  55.140         63.33	     8.718
  55.160         56.67	     8.246
  55.180         37.50	     6.708
  55.200         55.83	     8.185
  55.220         57.50	     8.307
  55.240         52.50	     7.937
  55.260         50.83	     7.810
  55.280         62.50	     8.660
  55.300         50.83	     7.810
  55.320         41.67	     7.071
  55.340         39.17	     6.856
  55.360         38.33	     6.782
  55.380         45.00	     7.348
  55.400         39.17	     6.856
  55.420         35.00	     6.481
  55.440         45.83	     7.416
  55.460         39.17	     6.856
  55.480         40.00	     6.928
  55.500         25.83	     5.568
  55.520         41.67	     7.071
  55.540         39.17	     6.856
  55.560         46.67	     7.483
  55.580         43.33	     7.211
  55.600         51.67	     7.874
  55.620         45.00	     7.348
  55.640         47.50	     7.550
  55.660         49.17	     7.681
  55.680         49.17	     7.681
  55.700         47.50	     7.550
  55.720         32.50	     6.245
  55.740         48.33	     7.616
  55.760         31.67	     6.164
  55.780         50.00	     7.746
  55.800         36.67	     6.633
  55.820         35.83	     6.557
  55.840         34.17	     6.403
  55.860         41.67	     7.071
  55.880         33.33	     6.325
  55.900         32.50	     6.245
  55.920         36.67	     6.633
  55.940         35.83	     6.557
  55.960         37.50	     6.708
  55.980         50.83	     7.810
  56.000         32.50	     6.245
  56.020         49.17	     7.681
  56.040         32.50	     6.245
  56.060         30.83	     6.083
  56.080         35.00	     6.481
  56.100         32.50	     6.245
  56.120         31.67	     6.164
  56.140         33.33	     6.325
  56.160         45.00	     7.348
  56.180         32.50	     6.245
  56.200         31.67	     6.164
  56.220         26.67	     5.657
  56.240         33.33	     6.325
  56.260         36.67	     6.633
  56.280         31.67	     6.164
  56.300         20.83	     5.000
  56.320         33.33	     6.325
  56.340         35.00	     6.481
  56.360         28.33	     5.831
  56.380         25.83	     5.568
  56.400         29.17	     5.916
  56.420         34.17	     6.403
  56.440         26.67	     5.657
  56.460         33.33	     6.325
  56.480         31.67	     6.164
  56.500         41.67	     7.071
  56.520         35.83	     6.557
  56.540         47.50	     7.550
  56.560         49.17	     7.681
  56.580         40.00	     6.928
  56.600         41.67	     7.071
  56.620         44.17	     7.280
  56.640         40.00	     6.928
  56.660         44.17	     7.280
  56.680         39.17	     6.856
  56.700         38.33	     6.782
  56.720         43.33	     7.211
  56.740         36.67	     6.633
  56.760         35.83	     6.557
  56.780         32.50	     6.245
  56.800         34.17	     6.403
  56.820         31.67	     6.164
  56.840         36.67	     6.633
  56.860         28.33	     5.831
  56.880         34.17	     6.403
  56.900         22.50	     5.196
  56.920         27.50	     5.745
  56.940         25.00	     5.477
  56.960         29.17	     5.916
  56.980         31.67	     6.164
  57.000         28.33	     5.831
  57.020         31.67	     6.164
  57.040         35.83	     6.557
  57.060         36.67	     6.633
  57.080         35.83	     6.557
  57.100         33.33	     6.325
  57.120         35.00	     6.481
  57.140         30.83	     6.083
  57.160         28.33	     5.831
  57.180         34.17	     6.403
  57.200         34.17	     6.403
  57.220         30.83	     6.083
  57.240         30.00	     6.000
  57.260         26.67	     5.657
  57.280         34.17	     6.403
  57.300         34.17	     6.403
  57.320         33.33	     6.325
  57.340         34.17	     6.403
  57.360         20.83	     5.000
  57.380         32.50	     6.245
  57.400         30.00	     6.000
  57.420         30.83	     6.083
  57.440         25.83	     5.568
  57.460         34.17	     6.403
  57.480         35.00	     6.481
  57.500         31.67	     6.164
  57.520         18.33	     4.690
  57.540         25.00	     5.477
  57.560         30.00	     6.000
  57.580         31.67	     6.164
  57.600         19.17	     4.796
  57.620         24.17	     5.385
  57.640         24.17	     5.385
  57.660         30.83	     6.083
  57.680         40.83	     7.000
  57.700         33.33	     6.325
  57.720         29.17	     5.916
  57.740         28.33	     5.831
  57.760         30.00	     6.000
  57.780         15.83	     4.359
  57.800         25.00	     5.477
  57.820         35.00	     6.481
  57.840         25.00	     5.477
  57.860         35.83	     6.557
  57.880         27.50	     5.745
  57.900         26.67	     5.657
  57.920         32.50	     6.245
  57.940         26.67	     5.657
  57.960         33.33	     6.325
  57.980         30.83	     6.083
  58.000         32.50	     6.245
  58.020         31.67	     6.164
  58.040         28.33	     5.831
  58.060         19.17	     4.796
  58.080         40.00	     6.928
  58.100         25.00	     5.477
  58.120         39.17	     6.856
  58.140         24.17	     5.385
  58.160         32.50	     6.245
  58.180         25.83	     5.568
  58.200         26.67	     5.657
  58.220         35.00	     6.481
  58.240         44.17	     7.280
  58.260         30.83	     6.083
  58.280         28.33	     5.831
  58.300         35.83	     6.557
  58.320         32.50	     6.245
  58.340         30.83	     6.083
  58.360         34.17	     6.403
  58.380         30.00	     6.000
  58.400         32.50	     6.245
  58.420         37.50	     6.708
  58.440         30.83	     6.083
  58.460         37.50	     6.708
  58.480         35.00	     6.481
  58.500         32.50	     6.245
  58.520         40.83	     7.000
  58.540         40.00	     6.928
  58.560         32.50	     6.245
  58.580         35.83	     6.557
  58.600         30.83	     6.083
  58.620         35.00	     6.481
  58.640         30.83	     6.083
  58.660         30.00	     6.000
  58.680         30.83	     6.083
  58.700         34.17	     6.403
  58.720         30.00	     6.000
  58.740         31.67	     6.164
  58.760         34.17	     6.403
  58.780         36.67	     6.633
  58.800         30.00	     6.000
  58.820         40.00	     6.928
  58.840         32.50	     6.245
  58.860         37.50	     6.708
  58.880         39.17	     6.856
  58.900         33.33	     6.325
  58.920         40.83	     7.000
  58.940         55.00	     8.124
  58.960         37.50	     6.708
  58.980         48.33	     7.616
  59.000         44.17	     7.280
  59.020         43.33	     7.211
  59.040         37.50	     6.708
  59.060         37.50	     6.708
  59.080         42.50	     7.141
  59.100         39.17	     6.856
  59.120         40.00	     6.928
  59.140         37.50	     6.708
  59.160         37.50	     6.708
  59.180         35.83	     6.557
  59.200         44.17	     7.280
  59.220         33.33	     6.325
  59.240         37.50	     6.708
  59.260         31.67	     6.164
  59.280         33.33	     6.325
  59.300         41.67	     7.071
  59.320         31.67	     6.164
  59.340         37.50	     6.708
  59.360         26.67	     5.657
  59.380         39.17	     6.856
  59.400         35.00	     6.481
  59.420         31.67	     6.164
  59.440         25.00	     5.477
  59.460         39.17	     6.856
  59.480         41.67	     7.071
  59.500         41.67	     7.071
  59.520         46.67	     7.483
  59.540         43.33	     7.211
  59.560         46.67	     7.483
  59.580         55.83	     8.185
  59.600         47.50	     7.550
  59.620         59.17	     8.426
  59.640         65.83	     8.888
  59.660         68.33	     9.055
  59.680         77.50	     9.644
  59.700         84.17	    10.050
  59.720        117.50	    11.874
  59.740        105.00	    11.225
  59.760        109.17	    11.446
  59.780        140.83	    13.000
  59.800        173.33	    14.422
  59.820        202.50	    15.588
  59.840        222.50	    16.340
  59.860        205.83	    15.716
  59.880        152.50	    13.528
  59.900        112.50	    11.619
  59.920         95.83	    10.724
  59.940        105.00	    11.225
  59.960         87.50	    10.247
  59.980        127.50	    12.369
  60.000        128.33	    12.410
  60.020         95.83	    10.724
  60.040        100.83	    11.000
  60.060         72.50	     9.327
  60.080         54.17	     8.062
  60.100         50.00	     7.746
  60.120         44.17	     7.280
  60.140         40.00	     6.928
  60.160         53.33	     8.000
  60.180         40.00	     6.928
  60.200         40.00	     6.928
  60.220         34.17	     6.403
  60.240         37.50	     6.708
  60.260         28.33	     5.831
  60.280         30.83	     6.083
  60.300         40.00	     6.928
  60.320         39.17	     6.856
  60.340         35.83	     6.557
  60.360         37.50	     6.708
  60.380         42.50	     7.141
  60.400         29.17	     5.916
  60.420         40.83	     7.000
  60.440         38.33	     6.782
  60.460         48.33	     7.616
  60.480         34.17	     6.403
  60.500         50.83	     7.810
  60.520         44.17	     7.280
  60.540         41.67	     7.071
  60.560         37.50	     6.708
  60.580         37.50	     6.708
  60.600         31.67	     6.164
  60.620         43.33	     7.211
  60.640         50.00	     7.746
  60.660         45.83	     7.416
  60.680         44.17	     7.280
  60.700         43.33	     7.211
  60.720         45.83	     7.416
  60.740         37.50	     6.708
  60.760         43.33	     7.211
  60.780         47.50	     7.550
  60.800         37.50	     6.708
  60.820         41.67	     7.071
  60.840         30.83	     6.083
  60.860         44.17	     7.280
  60.880         39.17	     6.856
  60.900         38.33	     6.782
  60.920         40.83	     7.000
  60.940         38.33	     6.782
  60.960         42.50	     7.141
  60.980         40.83	     7.000
  61.000         34.17	     6.403
  61.020         42.50	     7.141
  61.040         36.67	     6.633
  61.060         36.67	     6.633
  61.080         41.67	     7.071
  61.100         50.83	     7.810
  61.120         40.83	     7.000
  61.140         48.33	     7.616
  61.160         53.33	     8.000
  61.180         48.33	     7.616
  61.200         46.67	     7.483
  61.220         50.83	     7.810
  61.240         47.50	     7.550
  61.260         49.17	     7.681
  61.280         53.33	     8.000
  61.300         55.00	     8.124
  61.320         65.00	     8.832
  61.340         60.00	     8.485
  61.360         63.33	     8.718
  61.380         58.33	     8.367
  61.400         47.50	     7.550
  61.420         64.17	     8.775
  61.440         63.33	     8.718
  61.460         59.17	     8.426
  61.480         50.83	     7.810
  61.500         55.00	     8.124
  61.520         47.50	     7.550
  61.540         49.17	     7.681
  61.560         60.00	     8.485
  61.580         55.83	     8.185
  61.600         48.33	     7.616
  61.620         45.83	     7.416
  61.640         48.33	     7.616
  61.660         47.50	     7.550
  61.680         59.17	     8.426
  61.700         49.17	     7.681
  61.720         45.83	     7.416
  61.740         43.33	     7.211
  61.760         45.00	     7.348
  61.780         30.83	     6.083
  61.800         38.33	     6.782
  61.820         43.33	     7.211
  61.840         45.00	     7.348
  61.860         43.33	     7.211
  61.880         51.67	     7.874
  61.900         33.33	     6.325
  61.920         36.67	     6.633
  61.940         38.33	     6.782
  61.960         31.67	     6.164
  61.980         42.50	     7.141
  62.000         33.33	     6.325
  62.020         40.00	     6.928
  62.040         40.83	     7.000
  62.060         36.67	     6.633
  62.080         26.67	     5.657
  62.100         28.33	     5.831
  62.120         35.83	     6.557
  62.140         37.50	     6.708
  62.160         19.17	     4.796
  62.180         45.00	     7.348
  62.200         24.17	     5.385
  62.220         30.00	     6.000
  62.240         36.67	     6.633
  62.260         30.83	     6.083
  62.280         32.50	     6.245
  62.300         40.83	     7.000
  62.320         34.17	     6.403
  62.340         35.00	     6.481
  62.360         54.17	     8.062
  62.380         48.33	     7.616
  62.400         44.17	     7.280
  62.420         37.50	     6.708
  62.440         35.00	     6.481
  62.460         30.00	     6.000
  62.480         37.50	     6.708
  62.500         35.00	     6.481
  62.520         46.67	     7.483
  62.540         40.83	     7.000
  62.560         34.17	     6.403
  62.580         35.83	     6.557
  62.600         35.83	     6.557
  62.620         35.00	     6.481
  62.640         38.33	     6.782
  62.660         27.50	     5.745
  62.680         34.17	     6.403
  62.700         32.50	     6.245
  62.720         39.17	     6.856
  62.740         32.50	     6.245
  62.760         23.33	     5.292
  62.780         32.50	     6.245
  62.800         25.00	     5.477
  62.820         22.50	     5.196
  62.840         24.17	     5.385
  62.860         33.33	     6.325
  62.880         27.50	     5.745
  62.900         25.83	     5.568
  62.920         27.50	     5.745
  62.940         27.50	     5.745
  62.960         41.67	     7.071
  62.980         32.50	     6.245
  63.000         25.00	     5.477
  63.020         38.33	     6.782
  63.040         34.17	     6.403
  63.060         40.83	     7.000
  63.080         33.33	     6.325
  63.100         39.17	     6.856
  63.120         41.67	     7.071
  63.140         41.67	     7.071
  63.160         32.50	     6.245
  63.180         41.67	     7.071
  63.200         40.00	     6.928
  63.220         25.83	     5.568
  63.240         40.83	     7.000
  63.260         36.67	     6.633
  63.280         37.50	     6.708
  63.300         30.00	     6.000
  63.320         40.00	     6.928
  63.340         38.33	     6.782
  63.360         42.50	     7.141
  63.380         29.17	     5.916
  63.400         30.83	     6.083
  63.420         35.83	     6.557
  63.440         34.17	     6.403
  63.460         40.83	     7.000
  63.480         34.17	     6.403
  63.500         47.50	     7.550
  63.520         43.33	     7.211
  63.540         38.33	     6.782
  63.560         31.67	     6.164
  63.580         40.00	     6.928
  63.600         45.83	     7.416
  63.620         44.17	     7.280
  63.640         45.83	     7.416
  63.660         35.83	     6.557
  63.680         40.00	     6.928
  63.700         40.00	     6.928
  63.720         40.00	     6.928
  63.740         44.17	     7.280
  63.760         56.67	     8.246
  63.780         50.83	     7.810
  63.800         55.00	     8.124
  63.820         41.67	     7.071
  63.840         42.50	     7.141
  63.860         56.67	     8.246
  63.880         60.83	     8.544
  63.900         62.50	     8.660
  63.920         56.67	     8.246
  63.940         49.17	     7.681
  63.960         38.33	     6.782
  63.980         51.67	     7.874
  64.000         51.67	     7.874
  64.020         50.00	     7.746
  64.040         48.33	     7.616
  64.060         47.50	     7.550
  64.080         48.33	     7.616
  64.100         35.00	     6.481
  64.120         52.50	     7.937
  64.140         50.00	     7.746
  64.160         35.83	     6.557
  64.180         31.67	     6.164
  64.200         35.83	     6.557
  64.220         26.67	     5.657
  64.240         43.33	     7.211
  64.260         30.83	     6.083
  64.280         35.83	     6.557
  64.300         26.67	     5.657
  64.320         35.83	     6.557
  64.340         33.33	     6.325
  64.360         33.33	     6.325
  64.380         24.17	     5.385
  64.400         38.33	     6.782
  64.420         35.83	     6.557
  64.440         37.50	     6.708
  64.460         37.50	     6.708
  64.480         36.67	     6.633
  64.500         43.33	     7.211
  64.520         43.33	     7.211
  64.540         48.33	     7.616
  64.560         40.83	     7.000
  64.580         53.33	     8.000
  64.600         38.33	     6.782
  64.620         46.67	     7.483
  64.640         46.67	     7.483
  64.660         51.67	     7.874
  64.680         43.33	     7.211
  64.700         44.17	     7.280
  64.720         50.00	     7.746
  64.740         38.33	     6.782
  64.760         40.83	     7.000
  64.780         44.17	     7.280
  64.800         40.00	     6.928
  64.820         39.17	     6.856
  64.840         40.83	     7.000
  64.860         40.83	     7.000
  64.880         39.17	     6.856
  64.900         39.17	     6.856
  64.920         37.50	     6.708
  64.940         36.67	     6.633
  64.960         37.50	     6.708
  64.980         39.17	     6.856
  65.000         35.83	     6.557
