
Filename:
	C:\Program Files\Thermo Electron\WinXRD\Datafiles\F_HERMAN\GEO\G82_RT.raw

File Created:
	February 21, 2020 - 01:14 AM

Specimen Id:
	G82_RT

Specimen Name:
	

Specimen Description:
	

Comment:
Scan Type: 2Theta Scan
Start Angle: 3 deg.
Stop Angle: 65 deg.
Num Points: 3101
Step Size: 0.02 deg.
Scan Rate: 1.000000
Scan Mode: Continuous
Wavelength: 1.540562
\Kalpha1: 1.540562	\Kalpha2: 1.544390	\Kbeta: 1.392218

Optics:
		Detector:
			 Type: Fixed Slits
		Tube: 
			 Type: Fixed Slits


Datas:
 Pos [deg]       Rate [CPS]      ESD [-]

Range 1 ---> Iteration 1
   3.000        471.67	    23.791
   3.020        466.67	    23.664
   3.040        434.17	    22.825
   3.060        433.33	    22.804
   3.080        441.67	    23.022
   3.100        430.83	    22.738
   3.120        401.67	    21.954
   3.140        429.17	    22.694
   3.160        445.83	    23.130
   3.180        404.17	    22.023
   3.200        380.00	    21.354
   3.220        419.17	    22.428
   3.240        412.50	    22.249
   3.260        408.33	    22.136
   3.280        390.83	    21.656
   3.300        365.00	    20.928
   3.320        406.67	    22.091
   3.340        373.33	    21.166
   3.360        368.33	    21.024
   3.380        395.83	    21.794
   3.400        375.00	    21.213
   3.420        388.33	    21.587
   3.440        399.17	    21.886
   3.460        369.17	    21.048
   3.480        384.17	    21.471
   3.500        368.33	    21.024
   3.520        379.17	    21.331
   3.540        365.83	    20.952
   3.560        350.00	    20.494
   3.580        370.00	    21.071
   3.600        351.67	    20.543
   3.620        363.33	    20.881
   3.640        368.33	    21.024
   3.660        348.33	    20.445
   3.680        371.67	    21.119
   3.700        334.17	    20.025
   3.720        322.50	    19.672
   3.740        326.67	    19.799
   3.760        334.17	    20.025
   3.780        336.67	    20.100
   3.800        360.00	    20.785
   3.820        327.50	    19.824
   3.840        325.83	    19.774
   3.860        333.33	    20.000
   3.880        319.17	    19.570
   3.900        341.67	    20.248
   3.920        346.67	    20.396
   3.940        312.50	    19.365
   3.960        305.83	    19.157
   3.980        315.83	    19.468
   4.000        323.33	    19.698
   4.020        311.67	    19.339
   4.040        320.00	    19.596
   4.060        301.67	    19.026
   4.080        278.33	    18.276
   4.100        312.50	    19.365
   4.120        290.00	    18.655
   4.140        295.83	    18.841
   4.160        314.17	    19.416
   4.180        317.50	    19.519
   4.200        310.83	    19.313
   4.220        293.33	    18.762
   4.240        299.17	    18.947
   4.260        269.17	    17.972
   4.280        313.33	    19.391
   4.300        295.83	    18.841
   4.320        313.33	    19.391
   4.340        271.67	    18.055
   4.360        283.33	    18.439
   4.380        325.83	    19.774
   4.400        283.33	    18.439
   4.420        272.50	    18.083
   4.440        297.50	    18.894
   4.460        280.00	    18.330
   4.480        275.00	    18.166
   4.500        316.67	    19.494
   4.520        280.83	    18.358
   4.540        285.83	    18.520
   4.560        273.33	    18.111
   4.580        252.50	    17.407
   4.600        255.00	    17.493
   4.620        259.17	    17.635
   4.640        278.33	    18.276
   4.660        292.50	    18.735
   4.680        275.00	    18.166
   4.700        261.67	    17.720
   4.720        295.83	    18.841
   4.740        236.67	    16.852
   4.760        292.50	    18.735
   4.780        240.00	    16.971
   4.800        254.17	    17.464
   4.820        257.50	    17.578
   4.840        255.00	    17.493
   4.860        237.50	    16.882
   4.880        255.00	    17.493
   4.900        240.83	    17.000
   4.920        269.17	    17.972
   4.940        256.67	    17.550
   4.960        259.17	    17.635
   4.980        252.50	    17.407
   5.000        290.83	    18.682
   5.020        230.00	    16.613
   5.040        241.67	    17.029
   5.060        248.33	    17.263
   5.080        265.83	    17.861
   5.100        232.50	    16.703
   5.120        215.83	    16.093
   5.140        241.67	    17.029
   5.160        255.83	    17.521
   5.180        230.83	    16.643
   5.200        211.67	    15.937
   5.220        246.67	    17.205
   5.240        243.33	    17.088
   5.260        230.83	    16.643
   5.280        200.00	    15.492
   5.300        241.67	    17.029
   5.320        236.67	    16.852
   5.340        221.67	    16.310
   5.360        230.00	    16.613
   5.380        236.67	    16.852
   5.400        213.33	    16.000
   5.420        239.17	    16.941
   5.440        229.17	    16.583
   5.460        230.83	    16.643
   5.480        247.50	    17.234
   5.500        228.33	    16.553
   5.520        204.17	    15.652
   5.540        229.17	    16.583
   5.560        222.50	    16.340
   5.580        219.17	    16.217
   5.600        221.67	    16.310
   5.620        185.00	    14.900
   5.640        222.50	    16.340
   5.660        210.83	    15.906
   5.680        220.83	    16.279
   5.700        224.17	    16.401
   5.720        227.50	    16.523
   5.740        220.00	    16.248
   5.760        197.50	    15.395
   5.780        225.00	    16.432
   5.800        219.17	    16.217
   5.820        200.00	    15.492
   5.840        216.67	    16.125
   5.860        210.83	    15.906
   5.880        198.33	    15.427
   5.900        230.00	    16.613
   5.920        204.17	    15.652
   5.940        210.00	    15.875
   5.960        205.00	    15.684
   5.980        230.83	    16.643
   6.000        198.33	    15.427
   6.020        217.50	    16.155
   6.040        205.83	    15.716
   6.060        214.17	    16.031
   6.080        214.17	    16.031
   6.100        222.50	    16.340
   6.120        230.83	    16.643
   6.140        203.33	    15.620
   6.160        246.67	    17.205
   6.180        223.33	    16.371
   6.200        227.50	    16.523
   6.220        190.83	    15.133
   6.240        215.83	    16.093
   6.260        210.83	    15.906
   6.280        220.83	    16.279
   6.300        198.33	    15.427
   6.320        205.00	    15.684
   6.340        167.50	    14.177
   6.360        196.67	    15.362
   6.380        190.83	    15.133
   6.400        181.67	    14.765
   6.420        183.33	    14.832
   6.440        206.67	    15.748
   6.460        183.33	    14.832
   6.480        199.17	    15.460
   6.500        184.17	    14.866
   6.520        201.67	    15.556
   6.540        193.33	    15.232
   6.560        193.33	    15.232
   6.580        177.50	    14.595
   6.600        195.00	    15.297
   6.620        181.67	    14.765
   6.640        181.67	    14.765
   6.660        167.50	    14.177
   6.680        193.33	    15.232
   6.700        174.17	    14.457
   6.720        166.67	    14.142
   6.740        132.50	    12.610
   6.760        176.67	    14.560
   6.780        186.67	    14.967
   6.800        170.83	    14.318
   6.820        188.33	    15.033
   6.840        180.00	    14.697
   6.860        170.00	    14.283
   6.880        189.17	    15.067
   6.900        197.50	    15.395
   6.920        183.33	    14.832
   6.940        173.33	    14.422
   6.960        175.83	    14.526
   6.980        170.83	    14.318
   7.000        156.67	    13.711
   7.020        164.17	    14.036
   7.040        167.50	    14.177
   7.060        165.83	    14.107
   7.080        166.67	    14.142
   7.100        171.67	    14.353
   7.120        165.83	    14.107
   7.140        160.83	    13.892
   7.160        160.83	    13.892
   7.180        180.00	    14.697
   7.200        143.33	    13.115
   7.220        178.33	    14.629
   7.240        158.33	    13.784
   7.260        157.50	    13.748
   7.280        179.17	    14.663
   7.300        146.67	    13.266
   7.320        153.33	    13.565
   7.340        151.67	    13.491
   7.360        156.67	    13.711
   7.380        155.00	    13.638
   7.400        172.50	    14.387
   7.420        156.67	    13.711
   7.440        146.67	    13.266
   7.460        156.67	    13.711
   7.480        160.00	    13.856
   7.500        157.50	    13.748
   7.520        146.67	    13.266
   7.540        152.50	    13.528
   7.560        155.83	    13.675
   7.580        181.67	    14.765
   7.600        162.50	    13.964
   7.620        147.50	    13.304
   7.640        163.33	    14.000
   7.660        145.00	    13.191
   7.680        129.17	    12.450
   7.700        150.00	    13.416
   7.720        157.50	    13.748
   7.740        158.33	    13.784
   7.760        138.33	    12.884
   7.780        160.00	    13.856
   7.800        160.83	    13.892
   7.820        133.33	    12.649
   7.840        168.33	    14.213
   7.860        138.33	    12.884
   7.880        159.17	    13.820
   7.900        135.83	    12.767
   7.920        163.33	    14.000
   7.940        145.00	    13.191
   7.960        136.67	    12.806
   7.980        155.83	    13.675
   8.000        157.50	    13.748
   8.020        130.00	    12.490
   8.040        155.00	    13.638
   8.060        151.67	    13.491
   8.080        132.50	    12.610
   8.100        158.33	    13.784
   8.120        133.33	    12.649
   8.140        151.67	    13.491
   8.160        153.33	    13.565
   8.180        142.50	    13.077
   8.200        147.50	    13.304
   8.220        140.00	    12.961
   8.240        155.83	    13.675
   8.260        155.83	    13.675
   8.280        150.00	    13.416
   8.300        147.50	    13.304
   8.320        145.83	    13.229
   8.340        139.17	    12.923
   8.360        174.17	    14.457
   8.380        147.50	    13.304
   8.400        150.00	    13.416
   8.420        144.17	    13.153
   8.440        159.17	    13.820
   8.460        143.33	    13.115
   8.480        142.50	    13.077
   8.500        157.50	    13.748
   8.520        160.83	    13.892
   8.540        155.00	    13.638
   8.560        194.17	    15.264
   8.580        157.50	    13.748
   8.600        147.50	    13.304
   8.620        179.17	    14.663
   8.640        190.00	    15.100
   8.660        191.67	    15.166
   8.680        205.83	    15.716
   8.700        225.83	    16.462
   8.720        234.17	    16.763
   8.740        237.50	    16.882
   8.760        272.50	    18.083
   8.780        345.00	    20.347
   8.800        439.17	    22.956
   8.820        480.00	    24.000
   8.840        362.50	    20.857
   8.860        272.50	    18.083
   8.880        182.50	    14.799
   8.900        149.17	    13.379
   8.920        129.17	    12.450
   8.940        142.50	    13.077
   8.960        142.50	    13.077
   8.980        136.67	    12.806
   9.000        145.00	    13.191
   9.020        135.00	    12.728
   9.040        127.50	    12.369
   9.060        120.83	    12.042
   9.080        136.67	    12.806
   9.100        142.50	    13.077
   9.120        125.83	    12.288
   9.140        135.83	    12.767
   9.160        132.50	    12.610
   9.180        129.17	    12.450
   9.200        140.83	    13.000
   9.220        128.33	    12.410
   9.240        125.83	    12.288
   9.260        135.83	    12.767
   9.280        121.67	    12.083
   9.300        126.67	    12.329
   9.320        147.50	    13.304
   9.340        137.50	    12.845
   9.360        144.17	    13.153
   9.380        137.50	    12.845
   9.400        128.33	    12.410
   9.420        129.17	    12.450
   9.440        125.00	    12.247
   9.460        121.67	    12.083
   9.480        106.67	    11.314
   9.500        117.50	    11.874
   9.520        113.33	    11.662
   9.540        127.50	    12.369
   9.560        113.33	    11.662
   9.580        120.83	    12.042
   9.600        121.67	    12.083
   9.620        117.50	    11.874
   9.640        115.00	    11.747
   9.660        121.67	    12.083
   9.680        124.17	    12.207
   9.700        140.83	    13.000
   9.720        143.33	    13.115
   9.740        140.83	    13.000
   9.760        120.83	    12.042
   9.780        123.33	    12.166
   9.800        120.00	    12.000
   9.820        105.00	    11.225
   9.840        113.33	    11.662
   9.860        120.00	    12.000
   9.880        115.00	    11.747
   9.900        120.00	    12.000
   9.920        112.50	    11.619
   9.940        123.33	    12.166
   9.960        120.83	    12.042
   9.980        130.00	    12.490
  10.000        111.67	    11.576
  10.020        116.67	    11.832
  10.040        105.00	    11.225
  10.060        110.83	    11.533
  10.080         96.67	    10.770
  10.100        133.33	    12.649
  10.120        110.83	    11.533
  10.140        110.00	    11.489
  10.160        128.33	    12.410
  10.180        105.83	    11.269
  10.200        104.17	    11.180
  10.220        132.50	    12.610
  10.240        110.83	    11.533
  10.260        116.67	    11.832
  10.280        105.83	    11.269
  10.300        129.17	    12.450
  10.320        129.17	    12.450
  10.340        116.67	    11.832
  10.360        116.67	    11.832
  10.380        110.83	    11.533
  10.400        118.33	    11.916
  10.420        149.17	    13.379
  10.440        217.50	    16.155
  10.460        191.67	    15.166
  10.480        161.67	    13.928
  10.500        133.33	    12.649
  10.520        134.17	    12.689
  10.540        106.67	    11.314
  10.560        129.17	    12.450
  10.580        122.50	    12.124
  10.600        104.17	    11.180
  10.620         87.50	    10.247
  10.640        100.00	    10.954
  10.660        111.67	    11.576
  10.680        105.00	    11.225
  10.700        106.67	    11.314
  10.720        108.33	    11.402
  10.740        100.83	    11.000
  10.760         92.50	    10.536
  10.780        111.67	    11.576
  10.800         95.00	    10.677
  10.820         91.67	    10.488
  10.840        109.17	    11.446
  10.860         95.83	    10.724
  10.880        117.50	    11.874
  10.900         90.83	    10.440
  10.920        105.00	    11.225
  10.940         97.50	    10.817
  10.960        105.00	    11.225
  10.980        119.17	    11.958
  11.000        108.33	    11.402
  11.020        108.33	    11.402
  11.040         96.67	    10.770
  11.060        107.50	    11.358
  11.080         97.50	    10.817
  11.100         95.83	    10.724
  11.120         93.33	    10.583
  11.140         97.50	    10.817
  11.160        115.83	    11.790
  11.180        109.17	    11.446
  11.200        105.83	    11.269
  11.220        121.67	    12.083
  11.240        116.67	    11.832
  11.260        112.50	    11.619
  11.280         93.33	    10.583
  11.300         98.33	    10.863
  11.320        110.83	    11.533
  11.340         99.17	    10.909
  11.360         99.17	    10.909
  11.380         86.67	    10.198
  11.400        101.67	    11.045
  11.420         97.50	    10.817
  11.440        102.50	    11.091
  11.460        107.50	    11.358
  11.480         92.50	    10.536
  11.500         95.00	    10.677
  11.520        105.00	    11.225
  11.540         95.00	    10.677
  11.560        109.17	    11.446
  11.580         94.17	    10.630
  11.600        102.50	    11.091
  11.620         95.00	    10.677
  11.640         95.83	    10.724
  11.660        104.17	    11.180
  11.680        102.50	    11.091
  11.700        116.67	    11.832
  11.720        104.17	    11.180
  11.740        100.00	    10.954
  11.760        112.50	    11.619
  11.780         93.33	    10.583
  11.800         97.50	    10.817
  11.820         87.50	    10.247
  11.840         98.33	    10.863
  11.860        103.33	    11.136
  11.880         93.33	    10.583
  11.900        116.67	    11.832
  11.920        103.33	    11.136
  11.940        115.00	    11.747
  11.960        110.00	    11.489
  11.980        108.33	    11.402
  12.000        105.00	    11.225
  12.020        136.67	    12.806
  12.040        147.50	    13.304
  12.060        140.83	    13.000
  12.080        190.00	    15.100
  12.100        190.83	    15.133
  12.120        235.83	    16.823
  12.140        265.00	    17.833
  12.160        245.00	    17.146
  12.180        165.83	    14.107
  12.200        140.83	    13.000
  12.220        129.17	    12.450
  12.240        130.00	    12.490
  12.260        112.50	    11.619
  12.280        116.67	    11.832
  12.300        133.33	    12.649
  12.320        135.83	    12.767
  12.340        145.00	    13.191
  12.360        131.67	    12.570
  12.380        143.33	    13.115
  12.400        185.83	    14.933
  12.420        195.00	    15.297
  12.440        187.50	    15.000
  12.460        161.67	    13.928
  12.480        137.50	    12.845
  12.500        118.33	    11.916
  12.520        100.83	    11.000
  12.540        103.33	    11.136
  12.560        105.83	    11.269
  12.580         99.17	    10.909
  12.600         93.33	    10.583
  12.620        103.33	    11.136
  12.640         85.00	    10.100
  12.660         81.67	     9.899
  12.680        100.00	    10.954
  12.700         98.33	    10.863
  12.720         82.50	     9.950
  12.740         84.17	    10.050
  12.760         93.33	    10.583
  12.780         89.17	    10.344
  12.800         86.67	    10.198
  12.820        105.83	    11.269
  12.840         90.00	    10.392
  12.860         79.17	     9.747
  12.880         97.50	    10.817
  12.900         77.50	     9.644
  12.920         95.83	    10.724
  12.940        100.00	    10.954
  12.960        102.50	    11.091
  12.980         75.83	     9.539
  13.000         78.33	     9.695
  13.020         80.00	     9.798
  13.040         85.00	    10.100
  13.060         75.83	     9.539
  13.080        100.83	    11.000
  13.100         95.83	    10.724
  13.120         91.67	    10.488
  13.140         92.50	    10.536
  13.160         85.83	    10.149
  13.180         95.83	    10.724
  13.200         84.17	    10.050
  13.220        108.33	    11.402
  13.240         81.67	     9.899
  13.260         81.67	     9.899
  13.280         89.17	    10.344
  13.300         97.50	    10.817
  13.320         69.17	     9.110
  13.340         88.33	    10.296
  13.360        100.00	    10.954
  13.380         85.83	    10.149
  13.400         96.67	    10.770
  13.420         85.83	    10.149
  13.440         88.33	    10.296
  13.460         93.33	    10.583
  13.480         92.50	    10.536
  13.500         86.67	    10.198
  13.520         95.00	    10.677
  13.540         85.00	    10.100
  13.560         91.67	    10.488
  13.580        104.17	    11.180
  13.600         76.67	     9.592
  13.620        101.67	    11.045
  13.640         82.50	     9.950
  13.660         95.83	    10.724
  13.680         88.33	    10.296
  13.700         91.67	    10.488
  13.720         89.17	    10.344
  13.740         91.67	    10.488
  13.760        109.17	    11.446
  13.780        115.00	    11.747
  13.800         90.83	    10.440
  13.820        105.00	    11.225
  13.840         93.33	    10.583
  13.860        104.17	    11.180
  13.880        100.83	    11.000
  13.900         99.17	    10.909
  13.920         83.33	    10.000
  13.940         88.33	    10.296
  13.960         81.67	     9.899
  13.980         79.17	     9.747
  14.000         86.67	    10.198
  14.020         77.50	     9.644
  14.040         73.33	     9.381
  14.060         75.83	     9.539
  14.080         82.50	     9.950
  14.100         77.50	     9.644
  14.120         77.50	     9.644
  14.140         58.33	     8.367
  14.160         77.50	     9.644
  14.180         77.50	     9.644
  14.200         70.00	     9.165
  14.220         97.50	    10.817
  14.240         82.50	     9.950
  14.260         78.33	     9.695
  14.280         81.67	     9.899
  14.300         84.17	    10.050
  14.320         70.83	     9.220
  14.340         92.50	    10.536
  14.360         83.33	    10.000
  14.380         69.17	     9.110
  14.400         70.83	     9.220
  14.420         65.83	     8.888
  14.440         83.33	    10.000
  14.460         85.00	    10.100
  14.480         70.83	     9.220
  14.500         65.83	     8.888
  14.520         76.67	     9.592
  14.540         68.33	     9.055
  14.560         82.50	     9.950
  14.580         64.17	     8.775
  14.600         78.33	     9.695
  14.620         83.33	    10.000
  14.640         71.67	     9.274
  14.660         80.83	     9.849
  14.680         84.17	    10.050
  14.700         71.67	     9.274
  14.720         77.50	     9.644
  14.740         84.17	    10.050
  14.760         78.33	     9.695
  14.780         60.83	     8.544
  14.800         86.67	    10.198
  14.820         90.00	    10.392
  14.840         76.67	     9.592
  14.860         87.50	    10.247
  14.880         80.00	     9.798
  14.900         87.50	    10.247
  14.920         90.00	    10.392
  14.940         86.67	    10.198
  14.960         93.33	    10.583
  14.980         77.50	     9.644
  15.000         69.17	     9.110
  15.020         70.00	     9.165
  15.040         80.00	     9.798
  15.060         74.17	     9.434
  15.080         90.83	    10.440
  15.100         89.17	    10.344
  15.120         94.17	    10.630
  15.140         67.50	     9.000
  15.160         66.67	     8.944
  15.180         80.83	     9.849
  15.200         85.83	    10.149
  15.220         63.33	     8.718
  15.240         90.83	    10.440
  15.260         76.67	     9.592
  15.280         75.83	     9.539
  15.300         68.33	     9.055
  15.320         75.83	     9.539
  15.340         79.17	     9.747
  15.360         77.50	     9.644
  15.380         70.83	     9.220
  15.400         73.33	     9.381
  15.420         85.00	    10.100
  15.440         88.33	    10.296
  15.460         75.00	     9.487
  15.480         74.17	     9.434
  15.500         85.83	    10.149
  15.520         77.50	     9.644
  15.540         73.33	     9.381
  15.560         55.83	     8.185
  15.580         70.00	     9.165
  15.600         80.00	     9.798
  15.620         87.50	    10.247
  15.640         71.67	     9.274
  15.660         68.33	     9.055
  15.680         57.50	     8.307
  15.700         77.50	     9.644
  15.720         72.50	     9.327
  15.740         78.33	     9.695
  15.760         82.50	     9.950
  15.780         76.67	     9.592
  15.800         77.50	     9.644
  15.820         57.50	     8.307
  15.840         63.33	     8.718
  15.860         77.50	     9.644
  15.880         69.17	     9.110
  15.900         69.17	     9.110
  15.920         66.67	     8.944
  15.940         72.50	     9.327
  15.960         65.83	     8.888
  15.980         73.33	     9.381
  16.000         72.50	     9.327
  16.020         63.33	     8.718
  16.040         76.67	     9.592
  16.060         71.67	     9.274
  16.080         84.17	    10.050
  16.100         74.17	     9.434
  16.120         79.17	     9.747
  16.140         83.33	    10.000
  16.160         75.83	     9.539
  16.180         80.83	     9.849
  16.200         79.17	     9.747
  16.220         82.50	     9.950
  16.240         72.50	     9.327
  16.260         65.00	     8.832
  16.280         69.17	     9.110
  16.300         73.33	     9.381
  16.320         63.33	     8.718
  16.340         62.50	     8.660
  16.360         69.17	     9.110
  16.380         64.17	     8.775
  16.400         71.67	     9.274
  16.420         70.83	     9.220
  16.440         65.83	     8.888
  16.460         76.67	     9.592
  16.480         71.67	     9.274
  16.500         76.67	     9.592
  16.520         67.50	     9.000
  16.540         66.67	     8.944
  16.560         67.50	     9.000
  16.580         59.17	     8.426
  16.600         55.83	     8.185
  16.620         80.00	     9.798
  16.640         77.50	     9.644
  16.660         60.00	     8.485
  16.680         55.83	     8.185
  16.700         72.50	     9.327
  16.720         68.33	     9.055
  16.740         75.83	     9.539
  16.760         78.33	     9.695
  16.780         57.50	     8.307
  16.800         80.00	     9.798
  16.820         80.83	     9.849
  16.840         86.67	    10.198
  16.860         65.83	     8.888
  16.880         70.00	     9.165
  16.900         61.67	     8.602
  16.920         60.00	     8.485
  16.940         67.50	     9.000
  16.960         65.00	     8.832
  16.980         61.67	     8.602
  17.000         54.17	     8.062
  17.020         75.83	     9.539
  17.040         57.50	     8.307
  17.060         67.50	     9.000
  17.080         72.50	     9.327
  17.100         76.67	     9.592
  17.120         61.67	     8.602
  17.140         69.17	     9.110
  17.160         80.83	     9.849
  17.180         77.50	     9.644
  17.200         70.00	     9.165
  17.220         80.83	     9.849
  17.240         68.33	     9.055
  17.260         69.17	     9.110
  17.280         58.33	     8.367
  17.300         69.17	     9.110
  17.320         71.67	     9.274
  17.340         75.00	     9.487
  17.360         88.33	    10.296
  17.380         75.83	     9.539
  17.400         78.33	     9.695
  17.420         65.00	     8.832
  17.440         73.33	     9.381
  17.460         60.83	     8.544
  17.480         57.50	     8.307
  17.500         65.00	     8.832
  17.520         70.00	     9.165
  17.540         72.50	     9.327
  17.560         84.17	    10.050
  17.580         82.50	     9.950
  17.600         70.83	     9.220
  17.620         71.67	     9.274
  17.640         96.67	    10.770
  17.660         88.33	    10.296
  17.680         99.17	    10.909
  17.700        129.17	    12.450
  17.720        147.50	    13.304
  17.740        166.67	    14.142
  17.760        152.50	    13.528
  17.780        147.50	    13.304
  17.800        128.33	    12.410
  17.820        110.83	    11.533
  17.840         97.50	    10.817
  17.860         75.00	     9.487
  17.880         82.50	     9.950
  17.900         78.33	     9.695
  17.920         89.17	    10.344
  17.940         65.83	     8.888
  17.960         74.17	     9.434
  17.980         84.17	    10.050
  18.000         60.00	     8.485
  18.020         79.17	     9.747
  18.040         71.67	     9.274
  18.060         60.83	     8.544
  18.080         71.67	     9.274
  18.100         68.33	     9.055
  18.120         75.00	     9.487
  18.140         73.33	     9.381
  18.160         65.83	     8.888
  18.180         61.67	     8.602
  18.200         70.83	     9.220
  18.220         70.83	     9.220
  18.240         60.83	     8.544
  18.260         66.67	     8.944
  18.280         67.50	     9.000
  18.300         52.50	     7.937
  18.320         74.17	     9.434
  18.340         66.67	     8.944
  18.360         69.17	     9.110
  18.380         88.33	    10.296
  18.400         69.17	     9.110
  18.420         80.00	     9.798
  18.440         86.67	    10.198
  18.460         72.50	     9.327
  18.480         57.50	     8.307
  18.500         73.33	     9.381
  18.520         92.50	    10.536
  18.540        103.33	    11.136
  18.560         75.83	     9.539
  18.580         70.83	     9.220
  18.600         67.50	     9.000
  18.620         85.00	    10.100
  18.640         71.67	     9.274
  18.660         85.00	    10.100
  18.680         94.17	    10.630
  18.700         77.50	     9.644
  18.720         99.17	    10.909
  18.740         99.17	    10.909
  18.760         88.33	    10.296
  18.780         79.17	     9.747
  18.800         84.17	    10.050
  18.820         72.50	     9.327
  18.840         61.67	     8.602
  18.860         75.00	     9.487
  18.880         85.83	    10.149
  18.900         60.00	     8.485
  18.920         75.83	     9.539
  18.940         66.67	     8.944
  18.960         62.50	     8.660
  18.980         73.33	     9.381
  19.000         73.33	     9.381
  19.020         75.00	     9.487
  19.040         83.33	    10.000
  19.060         70.00	     9.165
  19.080         68.33	     9.055
  19.100         75.00	     9.487
  19.120         84.17	    10.050
  19.140         76.67	     9.592
  19.160         70.00	     9.165
  19.180         85.00	    10.100
  19.200         77.50	     9.644
  19.220         79.17	     9.747
  19.240         75.00	     9.487
  19.260         86.67	    10.198
  19.280         75.83	     9.539
  19.300         70.83	     9.220
  19.320         68.33	     9.055
  19.340         67.50	     9.000
  19.360         51.67	     7.874
  19.380         82.50	     9.950
  19.400         70.83	     9.220
  19.420         72.50	     9.327
  19.440         65.83	     8.888
  19.460         85.00	    10.100
  19.480         76.67	     9.592
  19.500         72.50	     9.327
  19.520         82.50	     9.950
  19.540         75.00	     9.487
  19.560         88.33	    10.296
  19.580         89.17	    10.344
  19.600         99.17	    10.909
  19.620         91.67	    10.488
  19.640         87.50	    10.247
  19.660         91.67	    10.488
  19.680         95.00	    10.677
  19.700        108.33	    11.402
  19.720         95.00	    10.677
  19.740        122.50	    12.124
  19.760         96.67	    10.770
  19.780        112.50	    11.619
  19.800        113.33	    11.662
  19.820        105.00	    11.225
  19.840        110.00	    11.489
  19.860        110.00	    11.489
  19.880         94.17	    10.630
  19.900         72.50	     9.327
  19.920         78.33	     9.695
  19.940         81.67	     9.899
  19.960         72.50	     9.327
  19.980         80.83	     9.849
  20.000         82.50	     9.950
  20.020         50.00	     7.746
  20.040         74.17	     9.434
  20.060         76.67	     9.592
  20.080         68.33	     9.055
  20.100         65.00	     8.832
  20.120         71.67	     9.274
  20.140         65.83	     8.888
  20.160         80.00	     9.798
  20.180         73.33	     9.381
  20.200         64.17	     8.775
  20.220         75.00	     9.487
  20.240         73.33	     9.381
  20.260         64.17	     8.775
  20.280         71.67	     9.274
  20.300         73.33	     9.381
  20.320         69.17	     9.110
  20.340         75.83	     9.539
  20.360         62.50	     8.660
  20.380         61.67	     8.602
  20.400         65.83	     8.888
  20.420         70.83	     9.220
  20.440         84.17	    10.050
  20.460         75.83	     9.539
  20.480         66.67	     8.944
  20.500         70.00	     9.165
  20.520         84.17	    10.050
  20.540         88.33	    10.296
  20.560         87.50	    10.247
  20.580        124.17	    12.207
  20.600         99.17	    10.909
  20.620         75.83	     9.539
  20.640         89.17	    10.344
  20.660         92.50	    10.536
  20.680        110.83	    11.533
  20.700        131.67	    12.570
  20.720        197.50	    15.395
  20.740        322.50	    19.672
  20.760        512.50	    24.799
  20.780        664.17	    28.231
  20.800        592.50	    26.665
  20.820        470.00	    23.749
  20.840        374.17	    21.190
  20.860        220.83	    16.279
  20.880        150.83	    13.454
  20.900        120.00	    12.000
  20.920        142.50	    13.077
  20.940        136.67	    12.806
  20.960        125.83	    12.288
  20.980        114.17	    11.705
  21.000        104.17	    11.180
  21.020         75.83	     9.539
  21.040         70.00	     9.165
  21.060         76.67	     9.592
  21.080         85.83	    10.149
  21.100         64.17	     8.775
  21.120         63.33	     8.718
  21.140         75.83	     9.539
  21.160         68.33	     9.055
  21.180         70.00	     9.165
  21.200         74.17	     9.434
  21.220         60.83	     8.544
  21.240         51.67	     7.874
  21.260         61.67	     8.602
  21.280         51.67	     7.874
  21.300         53.33	     8.000
  21.320         60.83	     8.544
  21.340         80.00	     9.798
  21.360         70.00	     9.165
  21.380         55.00	     8.124
  21.400         65.83	     8.888
  21.420         70.83	     9.220
  21.440         64.17	     8.775
  21.460         66.67	     8.944
  21.480         70.00	     9.165
  21.500         70.00	     9.165
  21.520         85.83	    10.149
  21.540         64.17	     8.775
  21.560         58.33	     8.367
  21.580         63.33	     8.718
  21.600         62.50	     8.660
  21.620         45.83	     7.416
  21.640         65.00	     8.832
  21.660         67.50	     9.000
  21.680         75.83	     9.539
  21.700         83.33	    10.000
  21.720         67.50	     9.000
  21.740         67.50	     9.000
  21.760         61.67	     8.602
  21.780         66.67	     8.944
  21.800         62.50	     8.660
  21.820         67.50	     9.000
  21.840         62.50	     8.660
  21.860         91.67	    10.488
  21.880        101.67	    11.045
  21.900         98.33	    10.863
  21.920        133.33	    12.649
  21.940        156.67	    13.711
  21.960        198.33	    15.427
  21.980        193.33	    15.232
  22.000        148.33	    13.342
  22.020        160.83	    13.892
  22.040        128.33	    12.410
  22.060         81.67	     9.899
  22.080         75.00	     9.487
  22.100         70.00	     9.165
  22.120         72.50	     9.327
  22.140         65.00	     8.832
  22.160         80.00	     9.798
  22.180         68.33	     9.055
  22.200         69.17	     9.110
  22.220         70.83	     9.220
  22.240         62.50	     8.660
  22.260         65.83	     8.888
  22.280         78.33	     9.695
  22.300         62.50	     8.660
  22.320         62.50	     8.660
  22.340         80.83	     9.849
  22.360         81.67	     9.899
  22.380         80.00	     9.798
  22.400         70.00	     9.165
  22.420         70.83	     9.220
  22.440         76.67	     9.592
  22.460         62.50	     8.660
  22.480         65.00	     8.832
  22.500         65.83	     8.888
  22.520         58.33	     8.367
  22.540         69.17	     9.110
  22.560         69.17	     9.110
  22.580         55.00	     8.124
  22.600         65.83	     8.888
  22.620         65.00	     8.832
  22.640         66.67	     8.944
  22.660         80.00	     9.798
  22.680         69.17	     9.110
  22.700         63.33	     8.718
  22.720         66.67	     8.944
  22.740         83.33	    10.000
  22.760         84.17	    10.050
  22.780         87.50	    10.247
  22.800         96.67	    10.770
  22.820         88.33	    10.296
  22.840         94.17	    10.630
  22.860         90.83	    10.440
  22.880        105.00	    11.225
  22.900        101.67	    11.045
  22.920         96.67	    10.770
  22.940        100.83	    11.000
  22.960         88.33	    10.296
  22.980        100.83	    11.000
  23.000        109.17	    11.446
  23.020         99.17	    10.909
  23.040        113.33	    11.662
  23.060         74.17	     9.434
  23.080         76.67	     9.592
  23.100         57.50	     8.307
  23.120         54.17	     8.062
  23.140         70.00	     9.165
  23.160         57.50	     8.307
  23.180         87.50	    10.247
  23.200         61.67	     8.602
  23.220         65.00	     8.832
  23.240         72.50	     9.327
  23.260         66.67	     8.944
  23.280         79.17	     9.747
  23.300         93.33	    10.583
  23.320         75.83	     9.539
  23.340         84.17	    10.050
  23.360         95.00	    10.677
  23.380         85.00	    10.100
  23.400        103.33	    11.136
  23.420        125.00	    12.247
  23.440        144.17	    13.153
  23.460        201.67	    15.556
  23.480        210.00	    15.875
  23.500        181.67	    14.765
  23.520        167.50	    14.177
  23.540        167.50	    14.177
  23.560        132.50	    12.610
  23.580        110.00	    11.489
  23.600         94.17	    10.630
  23.620        106.67	    11.314
  23.640         87.50	    10.247
  23.660         91.67	    10.488
  23.680         77.50	     9.644
  23.700         93.33	    10.583
  23.720         78.33	     9.695
  23.740         94.17	    10.630
  23.760         93.33	    10.583
  23.780         96.67	    10.770
  23.800         85.83	    10.149
  23.820         92.50	    10.536
  23.840         90.83	    10.440
  23.860         94.17	    10.630
  23.880         84.17	    10.050
  23.900        107.50	    11.358
  23.920        100.83	    11.000
  23.940        108.33	    11.402
  23.960        102.50	    11.091
  23.980         95.00	    10.677
  24.000        100.83	    11.000
  24.020         90.00	    10.392
  24.040         98.33	    10.863
  24.060         98.33	    10.863
  24.080        120.00	    12.000
  24.100        100.00	    10.954
  24.120        116.67	    11.832
  24.140        103.33	    11.136
  24.160        115.83	    11.790
  24.180        130.83	    12.530
  24.200        148.33	    13.342
  24.220        150.00	    13.416
  24.240        124.17	    12.207
  24.260        129.17	    12.450
  24.280        104.17	    11.180
  24.300        105.83	    11.269
  24.320         74.17	     9.434
  24.340         75.00	     9.487
  24.360         84.17	    10.050
  24.380         70.00	     9.165
  24.400         93.33	    10.583
  24.420         83.33	    10.000
  24.440        100.83	    11.000
  24.460         96.67	    10.770
  24.480        128.33	    12.410
  24.500        128.33	    12.410
  24.520        127.50	    12.369
  24.540        140.83	    13.000
  24.560        159.17	    13.820
  24.580        145.00	    13.191
  24.600        119.17	    11.958
  24.620        131.67	    12.570
  24.640         90.83	    10.440
  24.660        109.17	    11.446
  24.680         91.67	    10.488
  24.700         88.33	    10.296
  24.720         87.50	    10.247
  24.740         97.50	    10.817
  24.760         97.50	    10.817
  24.780         90.83	    10.440
  24.800         87.50	    10.247
  24.820         77.50	     9.644
  24.840         57.50	     8.307
  24.860         74.17	     9.434
  24.880         77.50	     9.644
  24.900         74.17	     9.434
  24.920         66.67	     8.944
  24.940         74.17	     9.434
  24.960         77.50	     9.644
  24.980         95.83	    10.724
  25.000         74.17	     9.434
  25.020        100.00	    10.954
  25.040        126.67	    12.329
  25.060        140.00	    12.961
  25.080        122.50	    12.124
  25.100        120.00	    12.000
  25.120        124.17	    12.207
  25.140        104.17	    11.180
  25.160        116.67	    11.832
  25.180         90.83	    10.440
  25.200         95.00	    10.677
  25.220         74.17	     9.434
  25.240         93.33	    10.583
  25.260         95.83	    10.724
  25.280         98.33	    10.863
  25.300        101.67	    11.045
  25.320        105.83	    11.269
  25.340        138.33	    12.884
  25.360        118.33	    11.916
  25.380        120.00	    12.000
  25.400        132.50	    12.610
  25.420        155.83	    13.675
  25.440        159.17	    13.820
  25.460        135.83	    12.767
  25.480        142.50	    13.077
  25.500        130.00	    12.490
  25.520        110.83	    11.533
  25.540        109.17	    11.446
  25.560        110.00	    11.489
  25.580        115.00	    11.747
  25.600         85.00	    10.100
  25.620         85.83	    10.149
  25.640         87.50	    10.247
  25.660         79.17	     9.747
  25.680         88.33	    10.296
  25.700         73.33	     9.381
  25.720         81.67	     9.899
  25.740         80.83	     9.849
  25.760         65.83	     8.888
  25.780         62.50	     8.660
  25.800         75.83	     9.539
  25.820         75.00	     9.487
  25.840         75.83	     9.539
  25.860         75.83	     9.539
  25.880         65.83	     8.888
  25.900         63.33	     8.718
  25.920         76.67	     9.592
  25.940         57.50	     8.307
  25.960         67.50	     9.000
  25.980         77.50	     9.644
  26.000         66.67	     8.944
  26.020         66.67	     8.944
  26.040         72.50	     9.327
  26.060         65.83	     8.888
  26.080         77.50	     9.644
  26.100         81.67	     9.899
  26.120         80.83	     9.849
  26.140         79.17	     9.747
  26.160         91.67	    10.488
  26.180         86.67	    10.198
  26.200         87.50	    10.247
  26.220        122.50	    12.124
  26.240        128.33	    12.410
  26.260        135.83	    12.767
  26.280        135.00	    12.728
  26.300        135.83	    12.767
  26.320        153.33	    13.565
  26.340        168.33	    14.213
  26.360        129.17	    12.450
  26.380        200.00	    15.492
  26.400        225.83	    16.462
  26.420        210.83	    15.906
  26.440        285.00	    18.493
  26.460        319.17	    19.570
  26.480        442.50	    23.043
  26.500        680.83	    28.583
  26.520       1230.00	    38.419
  26.540       2007.50	    49.082
  26.560       2481.67	    54.571
  26.580       2295.83	    52.488
  26.600       1653.33	    44.542
  26.620       1427.50	    41.388
  26.640       1304.17	    39.560
  26.660        840.83	    31.765
  26.680        397.50	    21.840
  26.700        312.50	    19.365
  26.720        273.33	    18.111
  26.740        308.33	    19.235
  26.760        315.83	    19.468
  26.780        358.33	    20.736
  26.800        345.83	    20.372
  26.820        347.50	    20.421
  26.840        295.00	    18.815
  26.860        269.17	    17.972
  26.880        218.33	    16.186
  26.900        182.50	    14.799
  26.920        167.50	    14.177
  26.940        134.17	    12.689
  26.960        113.33	    11.662
  26.980        126.67	    12.329
  27.000        187.50	    15.000
  27.020        182.50	    14.799
  27.040        148.33	    13.342
  27.060        132.50	    12.610
  27.080        135.00	    12.728
  27.100        113.33	    11.662
  27.120        115.00	    11.747
  27.140         95.83	    10.724
  27.160         94.17	    10.630
  27.180         90.83	    10.440
  27.200         99.17	    10.909
  27.220         94.17	    10.630
  27.240         96.67	    10.770
  27.260         83.33	    10.000
  27.280         85.83	    10.149
  27.300         92.50	    10.536
  27.320        102.50	    11.091
  27.340         95.00	    10.677
  27.360        100.00	    10.954
  27.380        145.00	    13.191
  27.400        125.00	    12.247
  27.420        144.17	    13.153
  27.440        154.17	    13.601
  27.460        131.67	    12.570
  27.480        143.33	    13.115
  27.500        117.50	    11.874
  27.520        104.17	    11.180
  27.540        126.67	    12.329
  27.560         97.50	    10.817
  27.580        139.17	    12.923
  27.600        138.33	    12.884
  27.620        190.00	    15.100
  27.640        215.00	    16.062
  27.660        245.00	    17.146
  27.680        240.83	    17.000
  27.700        205.00	    15.684
  27.720        210.83	    15.906
  27.740        255.83	    17.521
  27.760        245.00	    17.146
  27.780        244.17	    17.117
  27.800        326.67	    19.799
  27.820        396.67	    21.817
  27.840        511.67	    24.779
  27.860        569.17	    26.134
  27.880        474.17	    23.854
  27.900        344.17	    20.322
  27.920        325.83	    19.774
  27.940        294.17	    18.788
  27.960        219.17	    16.217
  27.980        173.33	    14.422
  28.000        150.83	    13.454
  28.020        199.17	    15.460
  28.040        162.50	    13.964
  28.060        132.50	    12.610
  28.080        141.67	    13.038
  28.100        151.67	    13.491
  28.120        113.33	    11.662
  28.140        109.17	    11.446
  28.160        101.67	    11.045
  28.180        120.00	    12.000
  28.200        113.33	    11.662
  28.220        110.00	    11.489
  28.240        130.00	    12.490
  28.260        119.17	    11.958
  28.280        100.00	    10.954
  28.300         97.50	    10.817
  28.320         83.33	    10.000
  28.340         82.50	     9.950
  28.360         63.33	     8.718
  28.380         73.33	     9.381
  28.400         59.17	     8.426
  28.420         76.67	     9.592
  28.440         72.50	     9.327
  28.460         65.83	     8.888
  28.480         72.50	     9.327
  28.500         68.33	     9.055
  28.520         87.50	    10.247
  28.540         93.33	    10.583
  28.560         82.50	     9.950
  28.580        107.50	    11.358
  28.600         88.33	    10.296
  28.620         86.67	    10.198
  28.640         80.00	     9.798
  28.660         75.83	     9.539
  28.680         63.33	     8.718
  28.700         65.00	     8.832
  28.720         61.67	     8.602
  28.740         56.67	     8.246
  28.760         55.00	     8.124
  28.780         60.83	     8.544
  28.800         50.00	     7.746
  28.820         44.17	     7.280
  28.840         57.50	     8.307
  28.860         53.33	     8.000
  28.880         61.67	     8.602
  28.900         60.00	     8.485
  28.920         54.17	     8.062
  28.940         65.00	     8.832
  28.960         40.83	     7.000
  28.980         57.50	     8.307
  29.000         45.83	     7.416
  29.020         64.17	     8.775
  29.040         49.17	     7.681
  29.060         53.33	     8.000
  29.080         51.67	     7.874
  29.100         51.67	     7.874
  29.120         51.67	     7.874
  29.140         48.33	     7.616
  29.160         49.17	     7.681
  29.180         50.83	     7.810
  29.200         53.33	     8.000
  29.220         56.67	     8.246
  29.240         57.50	     8.307
  29.260         50.00	     7.746
  29.280         45.00	     7.348
  29.300         57.50	     8.307
  29.320         47.50	     7.550
  29.340         50.83	     7.810
  29.360         50.83	     7.810
  29.380         50.00	     7.746
  29.400         48.33	     7.616
  29.420         60.00	     8.485
  29.440         64.17	     8.775
  29.460         57.50	     8.307
  29.480         52.50	     7.937
  29.500         62.50	     8.660
  29.520         38.33	     6.782
  29.540         64.17	     8.775
  29.560         50.83	     7.810
  29.580         71.67	     9.274
  29.600         72.50	     9.327
  29.620         69.17	     9.110
  29.640         76.67	     9.592
  29.660         86.67	    10.198
  29.680         95.83	    10.724
  29.700        101.67	    11.045
  29.720        110.83	    11.533
  29.740        131.67	    12.570
  29.760        138.33	    12.884
  29.780        133.33	    12.649
  29.800        144.17	    13.153
  29.820        129.17	    12.450
  29.840        135.83	    12.767
  29.860        105.00	    11.225
  29.880         96.67	    10.770
  29.900        107.50	    11.358
  29.920         97.50	    10.817
  29.940         69.17	     9.110
  29.960         98.33	    10.863
  29.980         89.17	    10.344
  30.000         85.00	    10.100
  30.020         96.67	    10.770
  30.040         88.33	    10.296
  30.060         87.50	    10.247
  30.080         74.17	     9.434
  30.100         95.83	    10.724
  30.120        110.83	    11.533
  30.140         95.83	    10.724
  30.160         97.50	    10.817
  30.180         97.50	    10.817
  30.200         95.83	    10.724
  30.220         90.00	    10.392
  30.240         81.67	     9.899
  30.260         87.50	    10.247
  30.280         81.67	     9.899
  30.300         76.67	     9.592
  30.320         85.83	    10.149
  30.340         93.33	    10.583
  30.360         97.50	    10.817
  30.380        128.33	    12.410
  30.400        138.33	    12.884
  30.420        131.67	    12.570
  30.440        122.50	    12.124
  30.460         93.33	    10.583
  30.480        104.17	    11.180
  30.500         90.83	    10.440
  30.520         85.00	    10.100
  30.540         63.33	     8.718
  30.560         49.17	     7.681
  30.580         63.33	     8.718
  30.600         59.17	     8.426
  30.620         50.00	     7.746
  30.640         64.17	     8.775
  30.660         74.17	     9.434
  30.680         80.83	     9.849
  30.700         84.17	    10.050
  30.720         87.50	    10.247
  30.740         85.83	    10.149
  30.760        108.33	    11.402
  30.780        112.50	    11.619
  30.800         96.67	    10.770
  30.820         94.17	    10.630
  30.840         80.00	     9.798
  30.860         64.17	     8.775
  30.880         81.67	     9.899
  30.900         89.17	    10.344
  30.920         67.50	     9.000
  30.940         67.50	     9.000
  30.960         75.83	     9.539
  30.980         63.33	     8.718
  31.000         67.50	     9.000
  31.020         75.00	     9.487
  31.040         85.00	    10.100
  31.060         80.83	     9.849
  31.080         68.33	     9.055
  31.100         90.83	    10.440
  31.120        109.17	    11.446
  31.140        130.83	    12.530
  31.160        105.83	    11.269
  31.180        105.83	    11.269
  31.200        102.50	    11.091
  31.220         94.17	    10.630
  31.240        111.67	    11.576
  31.260         80.00	     9.798
  31.280         82.50	     9.950
  31.300         70.00	     9.165
  31.320         62.50	     8.660
  31.340         69.17	     9.110
  31.360         57.50	     8.307
  31.380         61.67	     8.602
  31.400         87.50	    10.247
  31.420         74.17	     9.434
  31.440         66.67	     8.944
  31.460         95.83	    10.724
  31.480         56.67	     8.246
  31.500         80.83	     9.849
  31.520         59.17	     8.426
  31.540         65.83	     8.888
  31.560         43.33	     7.211
  31.580         54.17	     8.062
  31.600         65.00	     8.832
  31.620         45.00	     7.348
  31.640         70.83	     9.220
  31.660         42.50	     7.141
  31.680         55.83	     8.185
  31.700         45.83	     7.416
  31.720         62.50	     8.660
  31.740         62.50	     8.660
  31.760         72.50	     9.327
  31.780         61.67	     8.602
  31.800         58.33	     8.367
  31.820         77.50	     9.644
  31.840         58.33	     8.367
  31.860         63.33	     8.718
  31.880         69.17	     9.110
  31.900         67.50	     9.000
  31.920         79.17	     9.747
  31.940         75.00	     9.487
  31.960         65.00	     8.832
  31.980         70.83	     9.220
  32.000         78.33	     9.695
  32.020         93.33	    10.583
  32.040         65.00	     8.832
  32.060         70.00	     9.165
  32.080         80.83	     9.849
  32.100         71.67	     9.274
  32.120         75.00	     9.487
  32.140         68.33	     9.055
  32.160         71.67	     9.274
  32.180         81.67	     9.899
  32.200         75.83	     9.539
  32.220         81.67	     9.899
  32.240         45.00	     7.348
  32.260         60.00	     8.485
  32.280         59.17	     8.426
  32.300         44.17	     7.280
  32.320         57.50	     8.307
  32.340         61.67	     8.602
  32.360         35.83	     6.557
  32.380         40.83	     7.000
  32.400         50.00	     7.746
  32.420         44.17	     7.280
  32.440         41.67	     7.071
  32.460         46.67	     7.483
  32.480         38.33	     6.782
  32.500         45.00	     7.348
  32.520         48.33	     7.616
  32.540         53.33	     8.000
  32.560         42.50	     7.141
  32.580         45.83	     7.416
  32.600         45.00	     7.348
  32.620         50.83	     7.810
  32.640         45.83	     7.416
  32.660         38.33	     6.782
  32.680         40.83	     7.000
  32.700         30.00	     6.000
  32.720         36.67	     6.633
  32.740         50.00	     7.746
  32.760         36.67	     6.633
  32.780         50.83	     7.810
  32.800         59.17	     8.426
  32.820         57.50	     8.307
  32.840         38.33	     6.782
  32.860         40.00	     6.928
  32.880         45.00	     7.348
  32.900         61.67	     8.602
  32.920         64.17	     8.775
  32.940         63.33	     8.718
  32.960         89.17	    10.344
  32.980        105.00	    11.225
  33.000         99.17	    10.909
  33.020         67.50	     9.000
  33.040         61.67	     8.602
  33.060         80.00	     9.798
  33.080         72.50	     9.327
  33.100         75.00	     9.487
  33.120         57.50	     8.307
  33.140         41.67	     7.071
  33.160         49.17	     7.681
  33.180         39.17	     6.856
  33.200         37.50	     6.708
  33.220         55.00	     8.124
  33.240         41.67	     7.071
  33.260         35.83	     6.557
  33.280         55.83	     8.185
  33.300         51.67	     7.874
  33.320         38.33	     6.782
  33.340         42.50	     7.141
  33.360         45.83	     7.416
  33.380         57.50	     8.307
  33.400         48.33	     7.616
  33.420         50.00	     7.746
  33.440         49.17	     7.681
  33.460         60.00	     8.485
  33.480         53.33	     8.000
  33.500         40.00	     6.928
  33.520         44.17	     7.280
  33.540         50.00	     7.746
  33.560         56.67	     8.246
  33.580         51.67	     7.874
  33.600         43.33	     7.211
  33.620         52.50	     7.937
  33.640         53.33	     8.000
  33.660         52.50	     7.937
  33.680         54.17	     8.062
  33.700         55.00	     8.124
  33.720         62.50	     8.660
  33.740         46.67	     7.483
  33.760         57.50	     8.307
  33.780         80.83	     9.849
  33.800         65.00	     8.832
  33.820         63.33	     8.718
  33.840         80.00	     9.798
  33.860         60.00	     8.485
  33.880         89.17	    10.344
  33.900         71.67	     9.274
  33.920         85.00	    10.100
  33.940        105.00	    11.225
  33.960         86.67	    10.198
  33.980         80.83	     9.849
  34.000         79.17	     9.747
  34.020         83.33	    10.000
  34.040         66.67	     8.944
  34.060         71.67	     9.274
  34.080         65.83	     8.888
  34.100         64.17	     8.775
  34.120         72.50	     9.327
  34.140         66.67	     8.944
  34.160         74.17	     9.434
  34.180         75.00	     9.487
  34.200         73.33	     9.381
  34.220         81.67	     9.899
  34.240         80.00	     9.798
  34.260         86.67	    10.198
  34.280         90.00	    10.392
  34.300         89.17	    10.344
  34.320         89.17	    10.344
  34.340         87.50	    10.247
  34.360         91.67	    10.488
  34.380         93.33	    10.583
  34.400         93.33	    10.583
  34.420        111.67	    11.576
  34.440        109.17	    11.446
  34.460        137.50	    12.845
  34.480         95.83	    10.724
  34.500        138.33	    12.884
  34.520        116.67	    11.832
  34.540        115.83	    11.790
  34.560        101.67	    11.045
  34.580        104.17	    11.180
  34.600         94.17	    10.630
  34.620         90.00	    10.392
  34.640         90.83	    10.440
  34.660        105.00	    11.225
  34.680         97.50	    10.817
  34.700         96.67	    10.770
  34.720        105.00	    11.225
  34.740        120.00	    12.000
  34.760        118.33	    11.916
  34.780        109.17	    11.446
  34.800        153.33	    13.565
  34.820        137.50	    12.845
  34.840        141.67	    13.038
  34.860        142.50	    13.077
  34.880        139.17	    12.923
  34.900        145.83	    13.229
  34.920        135.83	    12.767
  34.940        157.50	    13.748
  34.960        135.83	    12.767
  34.980        126.67	    12.329
  35.000        102.50	    11.091
  35.020        135.00	    12.728
  35.040        116.67	    11.832
  35.060        100.83	    11.000
  35.080         93.33	    10.583
  35.100        103.33	    11.136
  35.120        101.67	    11.045
  35.140         90.00	    10.392
  35.160         91.67	    10.488
  35.180         85.83	    10.149
  35.200        100.00	    10.954
  35.220         83.33	    10.000
  35.240         86.67	    10.198
  35.260         90.00	    10.392
  35.280         90.00	    10.392
  35.300        100.83	    11.000
  35.320        100.83	    11.000
  35.340         78.33	     9.695
  35.360         94.17	    10.630
  35.380         93.33	    10.583
  35.400        115.83	    11.790
  35.420        112.50	    11.619
  35.440        126.67	    12.329
  35.460        112.50	    11.619
  35.480        117.50	    11.874
  35.500        113.33	    11.662
  35.520        106.67	    11.314
  35.540        100.83	    11.000
  35.560        122.50	    12.124
  35.580         88.33	    10.296
  35.600        100.83	    11.000
  35.620         77.50	     9.644
  35.640         68.33	     9.055
  35.660         76.67	     9.592
  35.680         71.67	     9.274
  35.700         73.33	     9.381
  35.720         56.67	     8.246
  35.740         70.00	     9.165
  35.760         53.33	     8.000
  35.780         56.67	     8.246
  35.800         52.50	     7.937
  35.820         69.17	     9.110
  35.840         61.67	     8.602
  35.860         71.67	     9.274
  35.880         71.67	     9.274
  35.900         65.00	     8.832
  35.920         63.33	     8.718
  35.940         80.00	     9.798
  35.960         74.17	     9.434
  35.980         75.00	     9.487
  36.000         67.50	     9.000
  36.020         71.67	     9.274
  36.040         70.00	     9.165
  36.060         61.67	     8.602
  36.080         64.17	     8.775
  36.100         56.67	     8.246
  36.120         47.50	     7.550
  36.140         60.83	     8.544
  36.160         50.83	     7.810
  36.180         60.00	     8.485
  36.200         61.67	     8.602
  36.220         60.00	     8.485
  36.240         70.83	     9.220
  36.260         65.00	     8.832
  36.280         87.50	    10.247
  36.300         66.67	     8.944
  36.320         61.67	     8.602
  36.340         80.00	     9.798
  36.360         90.83	    10.440
  36.380        108.33	    11.402
  36.400        137.50	    12.845
  36.420        165.00	    14.071
  36.440        185.00	    14.900
  36.460        240.83	    17.000
  36.480        207.50	    15.780
  36.500        163.33	    14.000
  36.520        145.83	    13.229
  36.540        175.83	    14.526
  36.560        183.33	    14.832
  36.580        161.67	    13.928
  36.600        137.50	    12.845
  36.620        130.83	    12.530
  36.640         98.33	    10.863
  36.660        111.67	    11.576
  36.680         98.33	    10.863
  36.700         82.50	     9.950
  36.720         76.67	     9.592
  36.740         84.17	    10.050
  36.760         78.33	     9.695
  36.780         65.00	     8.832
  36.800         78.33	     9.695
  36.820         65.83	     8.888
  36.840         65.00	     8.832
  36.860         75.83	     9.539
  36.880         56.67	     8.246
  36.900         63.33	     8.718
  36.920         48.33	     7.616
  36.940         56.67	     8.246
  36.960         45.00	     7.348
  36.980         62.50	     8.660
  37.000         65.00	     8.832
  37.020         58.33	     8.367
  37.040         55.83	     8.185
  37.060         55.00	     8.124
  37.080         51.67	     7.874
  37.100         44.17	     7.280
  37.120         52.50	     7.937
  37.140         48.33	     7.616
  37.160         55.83	     8.185
  37.180         64.17	     8.775
  37.200         65.00	     8.832
  37.220         81.67	     9.899
  37.240         63.33	     8.718
  37.260         70.00	     9.165
  37.280         71.67	     9.274
  37.300         75.83	     9.539
  37.320         80.00	     9.798
  37.340         81.67	     9.899
  37.360         80.00	     9.798
  37.380         78.33	     9.695
  37.400         82.50	     9.950
  37.420         85.83	    10.149
  37.440         75.00	     9.487
  37.460        103.33	    11.136
  37.480         94.17	    10.630
  37.500         85.00	    10.100
  37.520         97.50	    10.817
  37.540        115.83	    11.790
  37.560        130.00	    12.490
  37.580        120.00	    12.000
  37.600         88.33	    10.296
  37.620         83.33	    10.000
  37.640        126.67	    12.329
  37.660        110.00	    11.489
  37.680         88.33	    10.296
  37.700         67.50	     9.000
  37.720         78.33	     9.695
  37.740         80.00	     9.798
  37.760         55.83	     8.185
  37.780         57.50	     8.307
  37.800         65.00	     8.832
  37.820         68.33	     9.055
  37.840         52.50	     7.937
  37.860         55.83	     8.185
  37.880         35.00	     6.481
  37.900         53.33	     8.000
  37.920         41.67	     7.071
  37.940         45.00	     7.348
  37.960         54.17	     8.062
  37.980         40.00	     6.928
  38.000         42.50	     7.141
  38.020         47.50	     7.550
  38.040         40.00	     6.928
  38.060         49.17	     7.681
  38.080         50.83	     7.810
  38.100         35.00	     6.481
  38.120         42.50	     7.141
  38.140         46.67	     7.483
  38.160         38.33	     6.782
  38.180         54.17	     8.062
  38.200         45.83	     7.416
  38.220         46.67	     7.483
  38.240         47.50	     7.550
  38.260         41.67	     7.071
  38.280         42.50	     7.141
  38.300         26.67	     5.657
  38.320         42.50	     7.141
  38.340         45.00	     7.348
  38.360         40.83	     7.000
  38.380         60.83	     8.544
  38.400         35.00	     6.481
  38.420         48.33	     7.616
  38.440         43.33	     7.211
  38.460         58.33	     8.367
  38.480         65.00	     8.832
  38.500         49.17	     7.681
  38.520         59.17	     8.426
  38.540         75.83	     9.539
  38.560         52.50	     7.937
  38.580         76.67	     9.592
  38.600         93.33	    10.583
  38.620         65.83	     8.888
  38.640         61.67	     8.602
  38.660         68.33	     9.055
  38.680         69.17	     9.110
  38.700         86.67	    10.198
  38.720         72.50	     9.327
  38.740         66.67	     8.944
  38.760         81.67	     9.899
  38.780         81.67	     9.899
  38.800        101.67	    11.045
  38.820         80.83	     9.849
  38.840         75.00	     9.487
  38.860         78.33	     9.695
  38.880         72.50	     9.327
  38.900         57.50	     8.307
  38.920         70.00	     9.165
  38.940         57.50	     8.307
  38.960         48.33	     7.616
  38.980         41.67	     7.071
  39.000         56.67	     8.246
  39.020         54.17	     8.062
  39.040         51.67	     7.874
  39.060         50.00	     7.746
  39.080         45.00	     7.348
  39.100         58.33	     8.367
  39.120         43.33	     7.211
  39.140         55.83	     8.185
  39.160         47.50	     7.550
  39.180         49.17	     7.681
  39.200         54.17	     8.062
  39.220         60.83	     8.544
  39.240         67.50	     9.000
  39.260         64.17	     8.775
  39.280         80.83	     9.849
  39.300         90.83	    10.440
  39.320        125.83	    12.288
  39.340        137.50	    12.845
  39.360        175.00	    14.491
  39.380        205.00	    15.684
  39.400        220.00	    16.248
  39.420        151.67	    13.491
  39.440        111.67	    11.576
  39.460        125.00	    12.247
  39.480        121.67	    12.083
  39.500        134.17	    12.689
  39.520        106.67	    11.314
  39.540         84.17	    10.050
  39.560         76.67	     9.592
  39.580         66.67	     8.944
  39.600         70.00	     9.165
  39.620         59.17	     8.426
  39.640         63.33	     8.718
  39.660         55.00	     8.124
  39.680         57.50	     8.307
  39.700         63.33	     8.718
  39.720         60.00	     8.485
  39.740         60.00	     8.485
  39.760         53.33	     8.000
  39.780         55.83	     8.185
  39.800         55.83	     8.185
  39.820         79.17	     9.747
  39.840         63.33	     8.718
  39.860         72.50	     9.327
  39.880         66.67	     8.944
  39.900         63.33	     8.718
  39.920         75.00	     9.487
  39.940         70.83	     9.220
  39.960         63.33	     8.718
  39.980         51.67	     7.874
  40.000         52.50	     7.937
  40.020         57.50	     8.307
  40.040         62.50	     8.660
  40.060         62.50	     8.660
  40.080         56.67	     8.246
  40.100         51.67	     7.874
  40.120         52.50	     7.937
  40.140         57.50	     8.307
  40.160         78.33	     9.695
  40.180        111.67	    11.576
  40.200        125.00	    12.247
  40.220        155.83	    13.675
  40.240        162.50	    13.964
  40.260        121.67	    12.083
  40.280        106.67	    11.314
  40.300         95.83	    10.724
  40.320        104.17	    11.180
  40.340        110.83	    11.533
  40.360         90.00	    10.392
  40.380         56.67	     8.246
  40.400         53.33	     8.000
  40.420         50.00	     7.746
  40.440         51.67	     7.874
  40.460         44.17	     7.280
  40.480         47.50	     7.550
  40.500         55.00	     8.124
  40.520         54.17	     8.062
  40.540         40.83	     7.000
  40.560         45.00	     7.348
  40.580         52.50	     7.937
  40.600         59.17	     8.426
  40.620         46.67	     7.483
  40.640         52.50	     7.937
  40.660         48.33	     7.616
  40.680         49.17	     7.681
  40.700         39.17	     6.856
  40.720         47.50	     7.550
  40.740         55.00	     8.124
  40.760         64.17	     8.775
  40.780         55.00	     8.124
  40.800         41.67	     7.071
  40.820         52.50	     7.937
  40.840         59.17	     8.426
  40.860         65.83	     8.888
  40.880         51.67	     7.874
  40.900         51.67	     7.874
  40.920         46.67	     7.483
  40.940         65.00	     8.832
  40.960         50.83	     7.810
  40.980         60.83	     8.544
  41.000         47.50	     7.550
  41.020         54.17	     8.062
  41.040         52.50	     7.937
  41.060         63.33	     8.718
  41.080         61.67	     8.602
  41.100         55.83	     8.185
  41.120         78.33	     9.695
  41.140         58.33	     8.367
  41.160         58.33	     8.367
  41.180         64.17	     8.775
  41.200         53.33	     8.000
  41.220         63.33	     8.718
  41.240         75.00	     9.487
  41.260         66.67	     8.944
  41.280         58.33	     8.367
  41.300         58.33	     8.367
  41.320         60.83	     8.544
  41.340         53.33	     8.000
  41.360         53.33	     8.000
  41.380         60.00	     8.485
  41.400         70.83	     9.220
  41.420         49.17	     7.681
  41.440         61.67	     8.602
  41.460         64.17	     8.775
  41.480         73.33	     9.381
  41.500         72.50	     9.327
  41.520         74.17	     9.434
  41.540         62.50	     8.660
  41.560         83.33	    10.000
  41.580         77.50	     9.644
  41.600        115.00	    11.747
  41.620        127.50	    12.369
  41.640        100.83	    11.000
  41.660        110.00	    11.489
  41.680        103.33	    11.136
  41.700         87.50	    10.247
  41.720         85.83	    10.149
  41.740         87.50	    10.247
  41.760         93.33	    10.583
  41.780         72.50	     9.327
  41.800         74.17	     9.434
  41.820         77.50	     9.644
  41.840         73.33	     9.381
  41.860         80.83	     9.849
  41.880         76.67	     9.592
  41.900         75.00	     9.487
  41.920         78.33	     9.695
  41.940         66.67	     8.944
  41.960         73.33	     9.381
  41.980         52.50	     7.937
  42.000         63.33	     8.718
  42.020         72.50	     9.327
  42.040         60.00	     8.485
  42.060         63.33	     8.718
  42.080         56.67	     8.246
  42.100         68.33	     9.055
  42.120         85.83	    10.149
  42.140         69.17	     9.110
  42.160         77.50	     9.644
  42.180         75.00	     9.487
  42.200         72.50	     9.327
  42.220         83.33	    10.000
  42.240         80.83	     9.849
  42.260         94.17	    10.630
  42.280        105.83	    11.269
  42.300        116.67	    11.832
  42.320        137.50	    12.845
  42.340        149.17	    13.379
  42.360        174.17	    14.457
  42.380        190.83	    15.133
  42.400        164.17	    14.036
  42.420        150.00	    13.416
  42.440        132.50	    12.610
  42.460        122.50	    12.124
  42.480        138.33	    12.884
  42.500        125.83	    12.288
  42.520         83.33	    10.000
  42.540         95.83	    10.724
  42.560         91.67	    10.488
  42.580         79.17	     9.747
  42.600         74.17	     9.434
  42.620         65.00	     8.832
  42.640         80.83	     9.849
  42.660         79.17	     9.747
  42.680         75.83	     9.539
  42.700         73.33	     9.381
  42.720         72.50	     9.327
  42.740         80.00	     9.798
  42.760         75.00	     9.487
  42.780         77.50	     9.644
  42.800         89.17	    10.344
  42.820         78.33	     9.695
  42.840         75.83	     9.539
  42.860         75.00	     9.487
  42.880         77.50	     9.644
  42.900         81.67	     9.899
  42.920         83.33	    10.000
  42.940         86.67	    10.198
  42.960         73.33	     9.381
  42.980         95.00	    10.677
  43.000        110.00	    11.489
  43.020         88.33	    10.296
  43.040         91.67	    10.488
  43.060        100.00	    10.954
  43.080        105.83	    11.269
  43.100        100.83	    11.000
  43.120        125.83	    12.288
  43.140        136.67	    12.806
  43.160        145.00	    13.191
  43.180        145.83	    13.229
  43.200        158.33	    13.784
  43.220        160.00	    13.856
  43.240        164.17	    14.036
  43.260        178.33	    14.629
  43.280        201.67	    15.556
  43.300        212.50	    15.969
  43.320        223.33	    16.371
  43.340        230.83	    16.643
  43.360        248.33	    17.263
  43.380        286.67	    18.547
  43.400        290.83	    18.682
  43.420        271.67	    18.055
  43.440        270.00	    18.000
  43.460        265.83	    17.861
  43.480        260.00	    17.664
  43.500        279.17	    18.303
  43.520        285.00	    18.493
  43.540        250.83	    17.349
  43.560        245.00	    17.146
  43.580        215.00	    16.062
  43.600        204.17	    15.652
  43.620        200.83	    15.524
  43.640        207.50	    15.780
  43.660        181.67	    14.765
  43.680        158.33	    13.784
  43.700        147.50	    13.304
  43.720        166.67	    14.142
  43.740        150.00	    13.416
  43.760        140.00	    12.961
  43.780        144.17	    13.153
  43.800        125.83	    12.288
  43.820        146.67	    13.266
  43.840        130.00	    12.490
  43.860        101.67	    11.045
  43.880        104.17	    11.180
  43.900         97.50	    10.817
  43.920         85.83	    10.149
  43.940         83.33	    10.000
  43.960         82.50	     9.950
  43.980         87.50	    10.247
  44.000         70.83	     9.220
  44.020         82.50	     9.950
  44.040         65.83	     8.888
  44.060         81.67	     9.899
  44.080         74.17	     9.434
  44.100         74.17	     9.434
  44.120         87.50	    10.247
  44.140         73.33	     9.381
  44.160         54.17	     8.062
  44.180         64.17	     8.775
  44.200         60.00	     8.485
  44.220         67.50	     9.000
  44.240         65.00	     8.832
  44.260         71.67	     9.274
  44.280         53.33	     8.000
  44.300         48.33	     7.616
  44.320         63.33	     8.718
  44.340         57.50	     8.307
  44.360         60.00	     8.485
  44.380         57.50	     8.307
  44.400         48.33	     7.616
  44.420         62.50	     8.660
  44.440         49.17	     7.681
  44.460         65.83	     8.888
  44.480         51.67	     7.874
  44.500         55.83	     8.185
  44.520         46.67	     7.483
  44.540         55.00	     8.124
  44.560         50.83	     7.810
  44.580         63.33	     8.718
  44.600         55.00	     8.124
  44.620         53.33	     8.000
  44.640         51.67	     7.874
  44.660         45.83	     7.416
  44.680         46.67	     7.483
  44.700         50.00	     7.746
  44.720         47.50	     7.550
  44.740         63.33	     8.718
  44.760         64.17	     8.775
  44.780         58.33	     8.367
  44.800         65.00	     8.832
  44.820         55.83	     8.185
  44.840         55.00	     8.124
  44.860         85.00	    10.100
  44.880         70.00	     9.165
  44.900         78.33	     9.695
  44.920         70.00	     9.165
  44.940         57.50	     8.307
  44.960         78.33	     9.695
  44.980         63.33	     8.718
  45.000         75.00	     9.487
  45.020         70.00	     9.165
  45.040         66.67	     8.944
  45.060         78.33	     9.695
  45.080         70.00	     9.165
  45.100         62.50	     8.660
  45.120         72.50	     9.327
  45.140         73.33	     9.381
  45.160         72.50	     9.327
  45.180         78.33	     9.695
  45.200         77.50	     9.644
  45.220         61.67	     8.602
  45.240         77.50	     9.644
  45.260         64.17	     8.775
  45.280         70.00	     9.165
  45.300         61.67	     8.602
  45.320         84.17	    10.050
  45.340         74.17	     9.434
  45.360         89.17	    10.344
  45.380         95.00	    10.677
  45.400        112.50	    11.619
  45.420        112.50	    11.619
  45.440        119.17	    11.958
  45.460        107.50	    11.358
  45.480        125.83	    12.288
  45.500        134.17	    12.689
  45.520        114.17	    11.705
  45.540        129.17	    12.450
  45.560        105.83	    11.269
  45.580        100.83	    11.000
  45.600        112.50	    11.619
  45.620        100.83	    11.000
  45.640        107.50	    11.358
  45.660        125.00	    12.247
  45.680        120.83	    12.042
  45.700        142.50	    13.077
  45.720        162.50	    13.964
  45.740        154.17	    13.601
  45.760        106.67	    11.314
  45.780         90.00	    10.392
  45.800         98.33	    10.863
  45.820         90.83	    10.440
  45.840        109.17	    11.446
  45.860        101.67	    11.045
  45.880         77.50	     9.644
  45.900         75.00	     9.487
  45.920         80.83	     9.849
  45.940         84.17	    10.050
  45.960         66.67	     8.944
  45.980         64.17	     8.775
  46.000         49.17	     7.681
  46.020         55.83	     8.185
  46.040         49.17	     7.681
  46.060         56.67	     8.246
  46.080         45.00	     7.348
  46.100         55.00	     8.124
  46.120         46.67	     7.483
  46.140         40.83	     7.000
  46.160         50.00	     7.746
  46.180         45.83	     7.416
  46.200         57.50	     8.307
  46.220         41.67	     7.071
  46.240         50.83	     7.810
  46.260         45.00	     7.348
  46.280         41.67	     7.071
  46.300         36.67	     6.633
  46.320         48.33	     7.616
  46.340         39.17	     6.856
  46.360         38.33	     6.782
  46.380         43.33	     7.211
  46.400         45.00	     7.348
  46.420         37.50	     6.708
  46.440         54.17	     8.062
  46.460         43.33	     7.211
  46.480         41.67	     7.071
  46.500         31.67	     6.164
  46.520         37.50	     6.708
  46.540         42.50	     7.141
  46.560         44.17	     7.280
  46.580         44.17	     7.280
  46.600         50.00	     7.746
  46.620         46.67	     7.483
  46.640         35.83	     6.557
  46.660         37.50	     6.708
  46.680         37.50	     6.708
  46.700         45.83	     7.416
  46.720         40.00	     6.928
  46.740         40.83	     7.000
  46.760         42.50	     7.141
  46.780         44.17	     7.280
  46.800         47.50	     7.550
  46.820         45.83	     7.416
  46.840         38.33	     6.782
  46.860         44.17	     7.280
  46.880         40.83	     7.000
  46.900         38.33	     6.782
  46.920         38.33	     6.782
  46.940         56.67	     8.246
  46.960         51.67	     7.874
  46.980         78.33	     9.695
  47.000         85.00	    10.100
  47.020         86.67	    10.198
  47.040         84.17	    10.050
  47.060         81.67	     9.899
  47.080         60.83	     8.544
  47.100         53.33	     8.000
  47.120         79.17	     9.747
  47.140         69.17	     9.110
  47.160         67.50	     9.000
  47.180         62.50	     8.660
  47.200         53.33	     8.000
  47.220         50.00	     7.746
  47.240         38.33	     6.782
  47.260         44.17	     7.280
  47.280         33.33	     6.325
  47.300         47.50	     7.550
  47.320         50.83	     7.810
  47.340         40.83	     7.000
  47.360         53.33	     8.000
  47.380         34.17	     6.403
  47.400         43.33	     7.211
  47.420         35.83	     6.557
  47.440         36.67	     6.633
  47.460         47.50	     7.550
  47.480         40.00	     6.928
  47.500         47.50	     7.550
  47.520         41.67	     7.071
  47.540         45.83	     7.416
  47.560         35.83	     6.557
  47.580         37.50	     6.708
  47.600         40.83	     7.000
  47.620         44.17	     7.280
  47.640         25.83	     5.568
  47.660         40.00	     6.928
  47.680         54.17	     8.062
  47.700         30.00	     6.000
  47.720         40.83	     7.000
  47.740         44.17	     7.280
  47.760         38.33	     6.782
  47.780         47.50	     7.550
  47.800         39.17	     6.856
  47.820         55.83	     8.185
  47.840         62.50	     8.660
  47.860         45.00	     7.348
  47.880         73.33	     9.381
  47.900         44.17	     7.280
  47.920         46.67	     7.483
  47.940         49.17	     7.681
  47.960         54.17	     8.062
  47.980         48.33	     7.616
  48.000         44.17	     7.280
  48.020         57.50	     8.307
  48.040         73.33	     9.381
  48.060         60.83	     8.544
  48.080         70.83	     9.220
  48.100         61.67	     8.602
  48.120         68.33	     9.055
  48.140         55.83	     8.185
  48.160         55.83	     8.185
  48.180         51.67	     7.874
  48.200         52.50	     7.937
  48.220         59.17	     8.426
  48.240         70.83	     9.220
  48.260         70.00	     9.165
  48.280         80.00	     9.798
  48.300         64.17	     8.775
  48.320         49.17	     7.681
  48.340         44.17	     7.280
  48.360         51.67	     7.874
  48.380         50.83	     7.810
  48.400         54.17	     8.062
  48.420         65.83	     8.888
  48.440         58.33	     8.367
  48.460         60.00	     8.485
  48.480         52.50	     7.937
  48.500         45.00	     7.348
  48.520         51.67	     7.874
  48.540         40.83	     7.000
  48.560         49.17	     7.681
  48.580         50.83	     7.810
  48.600         47.50	     7.550
  48.620         50.83	     7.810
  48.640         33.33	     6.325
  48.660         40.00	     6.928
  48.680         31.67	     6.164
  48.700         50.83	     7.810
  48.720         55.00	     8.124
  48.740         51.67	     7.874
  48.760         39.17	     6.856
  48.780         44.17	     7.280
  48.800         49.17	     7.681
  48.820         54.17	     8.062
  48.840         35.00	     6.481
  48.860         40.00	     6.928
  48.880         48.33	     7.616
  48.900         40.83	     7.000
  48.920         46.67	     7.483
  48.940         35.00	     6.481
  48.960         35.83	     6.557
  48.980         33.33	     6.325
  49.000         42.50	     7.141
  49.020         50.83	     7.810
  49.040         52.50	     7.937
  49.060         50.83	     7.810
  49.080         69.17	     9.110
  49.100         55.83	     8.185
  49.120         77.50	     9.644
  49.140         70.00	     9.165
  49.160         54.17	     8.062
  49.180         53.33	     8.000
  49.200         65.83	     8.888
  49.220         54.17	     8.062
  49.240         57.50	     8.307
  49.260         55.00	     8.124
  49.280         55.83	     8.185
  49.300         65.00	     8.832
  49.320         47.50	     7.550
  49.340         56.67	     8.246
  49.360         60.00	     8.485
  49.380         60.00	     8.485
  49.400         64.17	     8.775
  49.420         59.17	     8.426
  49.440         60.00	     8.485
  49.460         64.17	     8.775
  49.480         55.83	     8.185
  49.500         86.67	    10.198
  49.520         71.67	     9.274
  49.540         45.83	     7.416
  49.560         65.00	     8.832
  49.580         55.00	     8.124
  49.600         78.33	     9.695
  49.620         93.33	    10.583
  49.640         86.67	    10.198
  49.660         70.83	     9.220
  49.680         78.33	     9.695
  49.700         73.33	     9.381
  49.720         85.00	    10.100
  49.740         86.67	    10.198
  49.760         97.50	    10.817
  49.780         86.67	    10.198
  49.800         89.17	    10.344
  49.820         86.67	    10.198
  49.840        110.83	    11.533
  49.860         94.17	    10.630
  49.880        113.33	    11.662
  49.900        101.67	    11.045
  49.920        114.17	    11.705
  49.940        135.00	    12.728
  49.960        138.33	    12.884
  49.980        165.83	    14.107
  50.000        215.83	    16.093
  50.020        309.17	    19.261
  50.040        432.50	    22.782
  50.060        484.17	    24.104
  50.080        429.17	    22.694
  50.100        291.67	    18.708
  50.120        192.50	    15.199
  50.140        192.50	    15.199
  50.160        225.83	    16.462
  50.180        250.00	    17.321
  50.200        295.00	    18.815
  50.220        194.17	    15.264
  50.240        153.33	    13.565
  50.260        100.00	    10.954
  50.280        110.83	    11.533
  50.300         78.33	     9.695
  50.320         80.83	     9.849
  50.340         99.17	    10.909
  50.360         73.33	     9.381
  50.380         82.50	     9.950
  50.400         80.83	     9.849
  50.420         80.00	     9.798
  50.440         91.67	    10.488
  50.460         87.50	    10.247
  50.480         96.67	    10.770
  50.500        110.83	    11.533
  50.520        105.00	    11.225
  50.540         90.00	    10.392
  50.560         90.00	    10.392
  50.580         83.33	    10.000
  50.600        100.83	    11.000
  50.620         86.67	    10.198
  50.640         72.50	     9.327
  50.660         98.33	    10.863
  50.680         95.00	    10.677
  50.700         73.33	     9.381
  50.720         70.83	     9.220
  50.740         58.33	     8.367
  50.760         71.67	     9.274
  50.780         55.83	     8.185
  50.800         57.50	     8.307
  50.820         52.50	     7.937
  50.840         53.33	     8.000
  50.860         58.33	     8.367
  50.880         47.50	     7.550
  50.900         45.00	     7.348
  50.920         50.83	     7.810
  50.940         40.83	     7.000
  50.960         50.00	     7.746
  50.980         62.50	     8.660
  51.000         48.33	     7.616
  51.020         70.83	     9.220
  51.040         89.17	    10.344
  51.060        106.67	    11.314
  51.080         83.33	    10.000
  51.100         62.50	     8.660
  51.120         58.33	     8.367
  51.140         71.67	     9.274
  51.160         75.00	     9.487
  51.180         68.33	     9.055
  51.200         60.83	     8.544
  51.220         67.50	     9.000
  51.240         63.33	     8.718
  51.260         59.17	     8.426
  51.280         49.17	     7.681
  51.300         54.17	     8.062
  51.320         50.83	     7.810
  51.340         47.50	     7.550
  51.360         39.17	     6.856
  51.380         45.83	     7.416
  51.400         51.67	     7.874
  51.420         40.00	     6.928
  51.440         56.67	     8.246
  51.460         39.17	     6.856
  51.480         45.00	     7.348
  51.500         32.50	     6.245
  51.520         43.33	     7.211
  51.540         43.33	     7.211
  51.560         40.83	     7.000
  51.580         37.50	     6.708
  51.600         57.50	     8.307
  51.620         31.67	     6.164
  51.640         33.33	     6.325
  51.660         41.67	     7.071
  51.680         38.33	     6.782
  51.700         42.50	     7.141
  51.720         34.17	     6.403
  51.740         28.33	     5.831
  51.760         29.17	     5.916
  51.780         34.17	     6.403
  51.800         37.50	     6.708
  51.820         32.50	     6.245
  51.840         44.17	     7.280
  51.860         37.50	     6.708
  51.880         35.00	     6.481
  51.900         27.50	     5.745
  51.920         40.00	     6.928
  51.940         34.17	     6.403
  51.960         52.50	     7.937
  51.980         45.83	     7.416
  52.000         43.33	     7.211
  52.020         45.83	     7.416
  52.040         41.67	     7.071
  52.060         50.83	     7.810
  52.080         54.17	     8.062
  52.100         41.67	     7.071
  52.120         51.67	     7.874
  52.140         50.00	     7.746
  52.160         41.67	     7.071
  52.180         45.00	     7.348
  52.200         47.50	     7.550
  52.220         49.17	     7.681
  52.240         45.83	     7.416
  52.260         48.33	     7.616
  52.280         53.33	     8.000
  52.300         41.67	     7.071
  52.320         47.50	     7.550
  52.340         42.50	     7.141
  52.360         38.33	     6.782
  52.380         45.00	     7.348
  52.400         45.83	     7.416
  52.420         48.33	     7.616
  52.440         69.17	     9.110
  52.460         49.17	     7.681
  52.480         47.50	     7.550
  52.500         58.33	     8.367
  52.520         34.17	     6.403
  52.540         45.83	     7.416
  52.560         46.67	     7.483
  52.580         45.00	     7.348
  52.600         41.67	     7.071
  52.620         41.67	     7.071
  52.640         41.67	     7.071
  52.660         36.67	     6.633
  52.680         43.33	     7.211
  52.700         41.67	     7.071
  52.720         50.00	     7.746
  52.740         40.00	     6.928
  52.760         40.00	     6.928
  52.780         38.33	     6.782
  52.800         47.50	     7.550
  52.820         50.00	     7.746
  52.840         33.33	     6.325
  52.860         42.50	     7.141
  52.880         45.83	     7.416
  52.900         54.17	     8.062
  52.920         51.67	     7.874
  52.940         44.17	     7.280
  52.960         40.83	     7.000
  52.980         51.67	     7.874
  53.000         43.33	     7.211
  53.020         58.33	     8.367
  53.040         55.00	     8.124
  53.060         45.83	     7.416
  53.080         62.50	     8.660
  53.100         71.67	     9.274
  53.120         66.67	     8.944
  53.140         63.33	     8.718
  53.160         70.83	     9.220
  53.180         59.17	     8.426
  53.200         55.00	     8.124
  53.220         62.50	     8.660
  53.240         50.00	     7.746
  53.260         54.17	     8.062
  53.280         48.33	     7.616
  53.300         55.83	     8.185
  53.320         55.00	     8.124
  53.340         55.83	     8.185
  53.360         50.00	     7.746
  53.380         38.33	     6.782
  53.400         48.33	     7.616
  53.420         39.17	     6.856
  53.440         33.33	     6.325
  53.460         30.83	     6.083
  53.480         37.50	     6.708
  53.500         38.33	     6.782
  53.520         44.17	     7.280
  53.540         38.33	     6.782
  53.560         45.00	     7.348
  53.580         41.67	     7.071
  53.600         40.83	     7.000
  53.620         50.00	     7.746
  53.640         40.83	     7.000
  53.660         36.67	     6.633
  53.680         46.67	     7.483
  53.700         38.33	     6.782
  53.720         35.83	     6.557
  53.740         46.67	     7.483
  53.760         40.00	     6.928
  53.780         43.33	     7.211
  53.800         56.67	     8.246
  53.820         46.67	     7.483
  53.840         44.17	     7.280
  53.860         43.33	     7.211
  53.880         36.67	     6.633
  53.900         51.67	     7.874
  53.920         35.83	     6.557
  53.940         30.83	     6.083
  53.960         36.67	     6.633
  53.980         33.33	     6.325
  54.000         40.83	     7.000
  54.020         42.50	     7.141
  54.040         53.33	     8.000
  54.060         49.17	     7.681
  54.080         45.83	     7.416
  54.100         46.67	     7.483
  54.120         45.83	     7.416
  54.140         40.00	     6.928
  54.160         54.17	     8.062
  54.180         53.33	     8.000
  54.200         52.50	     7.937
  54.220         57.50	     8.307
  54.240         56.67	     8.246
  54.260         44.17	     7.280
  54.280         53.33	     8.000
  54.300         60.00	     8.485
  54.320         65.00	     8.832
  54.340         53.33	     8.000
  54.360         53.33	     8.000
  54.380         41.67	     7.071
  54.400         45.83	     7.416
  54.420         41.67	     7.071
  54.440         54.17	     8.062
  54.460         60.00	     8.485
  54.480         53.33	     8.000
  54.500         55.83	     8.185
  54.520         61.67	     8.602
  54.540         34.17	     6.403
  54.560         45.00	     7.348
  54.580         50.00	     7.746
  54.600         45.83	     7.416
  54.620         60.83	     8.544
  54.640         72.50	     9.327
  54.660         63.33	     8.718
  54.680         69.17	     9.110
  54.700         72.50	     9.327
  54.720         81.67	     9.899
  54.740         90.83	    10.440
  54.760        107.50	    11.358
  54.780        142.50	    13.077
  54.800        134.17	    12.689
  54.820        100.00	    10.954
  54.840         80.83	     9.849
  54.860         97.50	    10.817
  54.880         65.83	     8.888
  54.900        101.67	    11.045
  54.920         81.67	     9.899
  54.940         97.50	    10.817
  54.960         74.17	     9.434
  54.980         62.50	     8.660
  55.000         55.83	     8.185
  55.020         66.67	     8.944
  55.040         58.33	     8.367
  55.060         66.67	     8.944
  55.080         59.17	     8.426
  55.100         65.00	     8.832
  55.120         72.50	     9.327
  55.140         66.67	     8.944
  55.160         56.67	     8.246
  55.180         60.83	     8.544
  55.200         75.00	     9.487
  55.220         79.17	     9.747
  55.240        105.83	    11.269
  55.260        107.50	    11.358
  55.280         82.50	     9.950
  55.300         67.50	     9.000
  55.320         68.33	     9.055
  55.340         61.67	     8.602
  55.360         65.83	     8.888
  55.380         70.00	     9.165
  55.400         59.17	     8.426
  55.420         65.83	     8.888
  55.440         57.50	     8.307
  55.460         55.00	     8.124
  55.480         43.33	     7.211
  55.500         66.67	     8.944
  55.520         57.50	     8.307
  55.540         51.67	     7.874
  55.560         55.00	     8.124
  55.580         53.33	     8.000
  55.600         48.33	     7.616
  55.620         58.33	     8.367
  55.640         54.17	     8.062
  55.660         75.00	     9.487
  55.680         69.17	     9.110
  55.700         77.50	     9.644
  55.720         71.67	     9.274
  55.740         72.50	     9.327
  55.760         90.00	    10.392
  55.780         75.00	     9.487
  55.800         64.17	     8.775
  55.820         75.83	     9.539
  55.840         73.33	     9.381
  55.860         73.33	     9.381
  55.880         65.83	     8.888
  55.900         64.17	     8.775
  55.920         60.00	     8.485
  55.940         57.50	     8.307
  55.960         42.50	     7.141
  55.980         47.50	     7.550
  56.000         51.67	     7.874
  56.020         41.67	     7.071
  56.040         45.83	     7.416
  56.060         55.83	     8.185
  56.080         55.83	     8.185
  56.100         50.00	     7.746
  56.120         50.83	     7.810
  56.140         53.33	     8.000
  56.160         55.83	     8.185
  56.180         46.67	     7.483
  56.200         50.00	     7.746
  56.220         61.67	     8.602
  56.240         37.50	     6.708
  56.260         50.00	     7.746
  56.280         45.83	     7.416
  56.300         38.33	     6.782
  56.320         49.17	     7.681
  56.340         49.17	     7.681
  56.360         41.67	     7.071
  56.380         41.67	     7.071
  56.400         46.67	     7.483
  56.420         46.67	     7.483
  56.440         42.50	     7.141
  56.460         32.50	     6.245
  56.480         50.83	     7.810
  56.500         42.50	     7.141
  56.520         43.33	     7.211
  56.540         45.83	     7.416
  56.560         43.33	     7.211
  56.580         47.50	     7.550
  56.600         48.33	     7.616
  56.620         45.83	     7.416
  56.640         47.50	     7.550
  56.660         50.83	     7.810
  56.680         43.33	     7.211
  56.700         50.00	     7.746
  56.720         43.33	     7.211
  56.740         50.00	     7.746
  56.760         42.50	     7.141
  56.780         45.00	     7.348
  56.800         57.50	     8.307
  56.820         45.83	     7.416
  56.840         41.67	     7.071
  56.860         30.83	     6.083
  56.880         40.83	     7.000
  56.900         41.67	     7.071
  56.920         36.67	     6.633
  56.940         40.83	     7.000
  56.960         39.17	     6.856
  56.980         35.83	     6.557
  57.000         37.50	     6.708
  57.020         46.67	     7.483
  57.040         41.67	     7.071
  57.060         43.33	     7.211
  57.080         45.00	     7.348
  57.100         41.67	     7.071
  57.120         47.50	     7.550
  57.140         55.00	     8.124
  57.160         53.33	     8.000
  57.180         49.17	     7.681
  57.200         44.17	     7.280
  57.220         49.17	     7.681
  57.240         43.33	     7.211
  57.260         53.33	     8.000
  57.280         31.67	     6.164
  57.300         50.83	     7.810
  57.320         36.67	     6.633
  57.340         45.00	     7.348
  57.360         37.50	     6.708
  57.380         40.00	     6.928
  57.400         48.33	     7.616
  57.420         42.50	     7.141
  57.440         37.50	     6.708
  57.460         42.50	     7.141
  57.480         43.33	     7.211
  57.500         51.67	     7.874
  57.520         43.33	     7.211
  57.540         35.83	     6.557
  57.560         43.33	     7.211
  57.580         26.67	     5.657
  57.600         40.83	     7.000
  57.620         50.83	     7.810
  57.640         48.33	     7.616
  57.660         37.50	     6.708
  57.680         45.00	     7.348
  57.700         41.67	     7.071
  57.720         55.00	     8.124
  57.740         45.83	     7.416
  57.760         48.33	     7.616
  57.780         37.50	     6.708
  57.800         39.17	     6.856
  57.820         50.83	     7.810
  57.840         35.00	     6.481
  57.860         56.67	     8.246
  57.880         46.67	     7.483
  57.900         41.67	     7.071
  57.920         44.17	     7.280
  57.940         49.17	     7.681
  57.960         46.67	     7.483
  57.980         50.83	     7.810
  58.000         48.33	     7.616
  58.020         43.33	     7.211
  58.040         47.50	     7.550
  58.060         44.17	     7.280
  58.080         43.33	     7.211
  58.100         49.17	     7.681
  58.120         58.33	     8.367
  58.140         50.83	     7.810
  58.160         44.17	     7.280
  58.180         50.83	     7.810
  58.200         37.50	     6.708
  58.220         55.00	     8.124
  58.240         42.50	     7.141
  58.260         43.33	     7.211
  58.280         34.17	     6.403
  58.300         50.00	     7.746
  58.320         43.33	     7.211
  58.340         53.33	     8.000
  58.360         53.33	     8.000
  58.380         50.00	     7.746
  58.400         48.33	     7.616
  58.420         66.67	     8.944
  58.440         57.50	     8.307
  58.460         59.17	     8.426
  58.480         59.17	     8.426
  58.500         55.00	     8.124
  58.520         82.50	     9.950
  58.540        149.17	    13.379
  58.560        120.83	    12.042
  58.580         96.67	    10.770
  58.600         67.50	     9.000
  58.620         65.00	     8.832
  58.640         74.17	     9.434
  58.660         69.17	     9.110
  58.680         75.00	     9.487
  58.700        110.00	    11.489
  58.720         90.00	    10.392
  58.740         65.83	     8.888
  58.760         69.17	     9.110
  58.780         66.67	     8.944
  58.800         44.17	     7.280
  58.820         50.83	     7.810
  58.840         52.50	     7.937
  58.860         53.33	     8.000
  58.880         53.33	     8.000
  58.900         56.67	     8.246
  58.920         46.67	     7.483
  58.940         47.50	     7.550
  58.960         52.50	     7.937
  58.980         61.67	     8.602
  59.000         45.83	     7.416
  59.020         50.83	     7.810
  59.040         59.17	     8.426
  59.060         79.17	     9.747
  59.080         62.50	     8.660
  59.100         58.33	     8.367
  59.120         55.83	     8.185
  59.140         46.67	     7.483
  59.160         51.67	     7.874
  59.180         44.17	     7.280
  59.200         72.50	     9.327
  59.220         66.67	     8.944
  59.240         50.00	     7.746
  59.260         55.83	     8.185
  59.280         52.50	     7.937
  59.300         55.83	     8.185
  59.320         47.50	     7.550
  59.340         59.17	     8.426
  59.360         51.67	     7.874
  59.380         56.67	     8.246
  59.400         54.17	     8.062
  59.420         53.33	     8.000
  59.440         46.67	     7.483
  59.460         66.67	     8.944
  59.480         50.00	     7.746
  59.500         48.33	     7.616
  59.520         58.33	     8.367
  59.540         45.83	     7.416
  59.560         71.67	     9.274
  59.580         65.00	     8.832
  59.600         60.00	     8.485
  59.620         64.17	     8.775
  59.640         64.17	     8.775
  59.660         63.33	     8.718
  59.680         60.00	     8.485
  59.700         72.50	     9.327
  59.720         77.50	     9.644
  59.740         80.83	     9.849
  59.760         93.33	    10.583
  59.780        117.50	    11.874
  59.800        142.50	    13.077
  59.820        160.83	    13.892
  59.840        200.83	    15.524
  59.860        231.67	    16.673
  59.880        247.50	    17.234
  59.900        251.67	    17.378
  59.920        190.83	    15.133
  59.940        157.50	    13.748
  59.960        118.33	    11.916
  59.980        130.00	    12.490
  60.000        163.33	    14.000
  60.020        138.33	    12.884
  60.040        178.33	    14.629
  60.060        143.33	    13.115
  60.080        136.67	    12.806
  60.100        114.17	    11.705
  60.120         82.50	     9.950
  60.140         75.83	     9.539
  60.160         60.00	     8.485
  60.180         76.67	     9.592
  60.200         66.67	     8.944
  60.220         45.00	     7.348
  60.240         55.00	     8.124
  60.260         54.17	     8.062
  60.280         60.83	     8.544
  60.300         53.33	     8.000
  60.320         54.17	     8.062
  60.340         49.17	     7.681
  60.360         70.00	     9.165
  60.380         53.33	     8.000
  60.400         53.33	     8.000
  60.420         50.00	     7.746
  60.440         50.00	     7.746
  60.460         44.17	     7.280
  60.480         60.83	     8.544
  60.500         55.00	     8.124
  60.520         53.33	     8.000
  60.540         55.83	     8.185
  60.560         63.33	     8.718
  60.580         64.17	     8.775
  60.600         55.83	     8.185
  60.620         51.67	     7.874
  60.640         51.67	     7.874
  60.660         62.50	     8.660
  60.680         71.67	     9.274
  60.700         65.00	     8.832
  60.720         53.33	     8.000
  60.740         60.83	     8.544
  60.760         70.00	     9.165
  60.780         63.33	     8.718
  60.800         52.50	     7.937
  60.820         54.17	     8.062
  60.840         51.67	     7.874
  60.860         60.00	     8.485
  60.880         66.67	     8.944
  60.900         64.17	     8.775
  60.920         49.17	     7.681
  60.940         54.17	     8.062
  60.960         48.33	     7.616
  60.980         60.00	     8.485
  61.000         55.00	     8.124
  61.020         54.17	     8.062
  61.040         61.67	     8.602
  61.060         45.00	     7.348
  61.080         68.33	     9.055
  61.100         40.00	     6.928
  61.120         56.67	     8.246
  61.140         49.17	     7.681
  61.160         47.50	     7.550
  61.180         55.83	     8.185
  61.200         57.50	     8.307
  61.220         56.67	     8.246
  61.240         69.17	     9.110
  61.260         66.67	     8.944
  61.280         58.33	     8.367
  61.300         70.00	     9.165
  61.320         68.33	     9.055
  61.340         85.00	    10.100
  61.360         80.83	     9.849
  61.380         93.33	    10.583
  61.400         65.00	     8.832
  61.420         91.67	    10.488
  61.440         83.33	    10.000
  61.460         75.83	     9.539
  61.480         98.33	    10.863
  61.500         80.00	     9.798
  61.520         95.00	    10.677
  61.540         90.83	    10.440
  61.560         75.00	     9.487
  61.580         90.00	    10.392
  61.600         68.33	     9.055
  61.620         73.33	     9.381
  61.640         84.17	    10.050
  61.660         74.17	     9.434
  61.680         76.67	     9.592
  61.700         76.67	     9.592
  61.720         72.50	     9.327
  61.740         60.00	     8.485
  61.760         58.33	     8.367
  61.780         65.83	     8.888
  61.800         65.00	     8.832
  61.820         59.17	     8.426
  61.840         65.00	     8.832
  61.860         50.83	     7.810
  61.880         72.50	     9.327
  61.900         57.50	     8.307
  61.920         55.00	     8.124
  61.940         49.17	     7.681
  61.960         54.17	     8.062
  61.980         54.17	     8.062
  62.000         65.00	     8.832
  62.020         45.00	     7.348
  62.040         61.67	     8.602
  62.060         48.33	     7.616
  62.080         50.00	     7.746
  62.100         45.00	     7.348
  62.120         37.50	     6.708
  62.140         45.83	     7.416
  62.160         48.33	     7.616
  62.180         45.83	     7.416
  62.200         36.67	     6.633
  62.220         38.33	     6.782
  62.240         30.00	     6.000
  62.260         37.50	     6.708
  62.280         40.00	     6.928
  62.300         35.83	     6.557
  62.320         35.83	     6.557
  62.340         35.83	     6.557
  62.360         41.67	     7.071
  62.380         40.83	     7.000
  62.400         36.67	     6.633
  62.420         40.00	     6.928
  62.440         38.33	     6.782
  62.460         49.17	     7.681
  62.480         30.83	     6.083
  62.500         36.67	     6.633
  62.520         35.00	     6.481
  62.540         43.33	     7.211
  62.560         35.00	     6.481
  62.580         45.83	     7.416
  62.600         50.83	     7.810
  62.620         44.17	     7.280
  62.640         37.50	     6.708
  62.660         41.67	     7.071
  62.680         39.17	     6.856
  62.700         39.17	     6.856
  62.720         41.67	     7.071
  62.740         40.00	     6.928
  62.760         35.00	     6.481
  62.780         45.83	     7.416
  62.800         32.50	     6.245
  62.820         50.00	     7.746
  62.840         42.50	     7.141
  62.860         49.17	     7.681
  62.880         31.67	     6.164
  62.900         35.83	     6.557
  62.920         39.17	     6.856
  62.940         36.67	     6.633
  62.960         45.83	     7.416
  62.980         46.67	     7.483
  63.000         40.00	     6.928
  63.020         47.50	     7.550
  63.040         40.00	     6.928
  63.060         46.67	     7.483
  63.080         45.00	     7.348
  63.100         35.83	     6.557
  63.120         29.17	     5.916
  63.140         52.50	     7.937
  63.160         40.83	     7.000
  63.180         37.50	     6.708
  63.200         33.33	     6.325
  63.220         49.17	     7.681
  63.240         38.33	     6.782
  63.260         28.33	     5.831
  63.280         45.00	     7.348
  63.300         59.17	     8.426
  63.320         43.33	     7.211
  63.340         56.67	     8.246
  63.360         66.67	     8.944
  63.380         47.50	     7.550
  63.400         53.33	     8.000
  63.420         52.50	     7.937
  63.440         47.50	     7.550
  63.460         38.33	     6.782
  63.480         46.67	     7.483
  63.500         48.33	     7.616
  63.520         43.33	     7.211
  63.540         46.67	     7.483
  63.560         41.67	     7.071
  63.580         50.00	     7.746
  63.600         49.17	     7.681
  63.620         53.33	     8.000
  63.640         40.00	     6.928
  63.660         40.00	     6.928
  63.680         45.83	     7.416
  63.700         46.67	     7.483
  63.720         50.00	     7.746
  63.740         50.00	     7.746
  63.760         48.33	     7.616
  63.780         53.33	     8.000
  63.800         69.17	     9.110
  63.820         72.50	     9.327
  63.840         56.67	     8.246
  63.860         59.17	     8.426
  63.880         50.83	     7.810
  63.900         72.50	     9.327
  63.920        101.67	    11.045
  63.940        106.67	    11.314
  63.960         96.67	    10.770
  63.980         93.33	    10.583
  64.000         91.67	    10.488
  64.020         72.50	     9.327
  64.040         65.83	     8.888
  64.060         57.50	     8.307
  64.080         71.67	     9.274
  64.100         71.67	     9.274
  64.120         70.00	     9.165
  64.140         72.50	     9.327
  64.160         65.83	     8.888
  64.180         65.00	     8.832
  64.200         50.83	     7.810
  64.220         56.67	     8.246
  64.240         55.83	     8.185
  64.260         40.83	     7.000
  64.280         55.00	     8.124
  64.300         38.33	     6.782
  64.320         37.50	     6.708
  64.340         34.17	     6.403
  64.360         40.83	     7.000
  64.380         49.17	     7.681
  64.400         55.83	     8.185
  64.420         47.50	     7.550
  64.440         42.50	     7.141
  64.460         45.00	     7.348
  64.480         48.33	     7.616
  64.500         44.17	     7.280
  64.520         51.67	     7.874
  64.540         40.83	     7.000
  64.560         45.83	     7.416
  64.580         50.83	     7.810
  64.600         54.17	     8.062
  64.620         54.17	     8.062
  64.640         62.50	     8.660
  64.660         44.17	     7.280
  64.680         54.17	     8.062
  64.700         43.33	     7.211
  64.720         46.67	     7.483
  64.740         55.00	     8.124
  64.760         60.83	     8.544
  64.780         50.00	     7.746
  64.800         55.00	     8.124
  64.820         51.67	     7.874
  64.840         53.33	     8.000
  64.860         64.17	     8.775
  64.880         52.50	     7.937
  64.900         55.83	     8.185
  64.920         46.67	     7.483
  64.940         53.33	     8.000
  64.960         60.00	     8.485
  64.980         55.00	     8.124
  65.000         55.00	     8.124
