
Filename:
	C:\Program Files\Thermo Electron\WinXRD\Datafiles\F_HERMAN\GEO\G83_RT.raw

File Created:
	February 21, 2020 - 02:16 AM

Specimen Id:
	G83_RT

Specimen Name:
	

Specimen Description:
	

Comment:
Scan Type: 2Theta Scan
Start Angle: 3 deg.
Stop Angle: 65 deg.
Num Points: 3101
Step Size: 0.02 deg.
Scan Rate: 1.000000
Scan Mode: Continuous
Wavelength: 1.540562
\Kalpha1: 1.540562	\Kalpha2: 1.544390	\Kbeta: 1.392218

Optics:
		Detector:
			 Type: Fixed Slits
		Tube: 
			 Type: Fixed Slits


Datas:
 Pos [deg]       Rate [CPS]      ESD [-]

Range 1 ---> Iteration 1
   3.000        435.83	    22.869
   3.020        444.17	    23.087
   3.040        425.83	    22.605
   3.060        439.17	    22.956
   3.080        435.83	    22.869
   3.100        415.00	    22.316
   3.120        390.00	    21.633
   3.140        468.33	    23.707
   3.160        414.17	    22.293
   3.180        395.00	    21.772
   3.200        384.17	    21.471
   3.220        380.00	    21.354
   3.240        405.00	    22.045
   3.260        400.00	    21.909
   3.280        404.17	    22.023
   3.300        372.50	    21.142
   3.320        382.50	    21.424
   3.340        385.83	    21.517
   3.360        374.17	    21.190
   3.380        376.67	    21.260
   3.400        382.50	    21.424
   3.420        364.17	    20.905
   3.440        336.67	    20.100
   3.460        380.00	    21.354
   3.480        374.17	    21.190
   3.500        371.67	    21.119
   3.520        373.33	    21.166
   3.540        333.33	    20.000
   3.560        361.67	    20.833
   3.580        328.33	    19.849
   3.600        365.83	    20.952
   3.620        347.50	    20.421
   3.640        310.83	    19.313
   3.660        345.83	    20.372
   3.680        366.67	    20.976
   3.700        338.33	    20.149
   3.720        340.00	    20.199
   3.740        357.50	    20.712
   3.760        348.33	    20.445
   3.780        319.17	    19.570
   3.800        326.67	    19.799
   3.820        353.33	    20.591
   3.840        333.33	    20.000
   3.860        305.83	    19.157
   3.880        349.17	    20.469
   3.900        301.67	    19.026
   3.920        324.17	    19.723
   3.940        336.67	    20.100
   3.960        317.50	    19.519
   3.980        301.67	    19.026
   4.000        284.17	    18.466
   4.020        310.83	    19.313
   4.040        300.00	    18.974
   4.060        325.00	    19.748
   4.080        318.33	    19.545
   4.100        321.67	    19.647
   4.120        300.00	    18.974
   4.140        302.50	    19.053
   4.160        319.17	    19.570
   4.180        250.83	    17.349
   4.200        289.17	    18.628
   4.220        295.83	    18.841
   4.240        287.50	    18.574
   4.260        271.67	    18.055
   4.280        280.00	    18.330
   4.300        266.67	    17.889
   4.320        270.83	    18.028
   4.340        265.83	    17.861
   4.360        257.50	    17.578
   4.380        270.00	    18.000
   4.400        245.83	    17.176
   4.420        250.00	    17.321
   4.440        258.33	    17.607
   4.460        278.33	    18.276
   4.480        246.67	    17.205
   4.500        263.33	    17.776
   4.520        252.50	    17.407
   4.540        265.00	    17.833
   4.560        280.83	    18.358
   4.580        275.83	    18.193
   4.600        260.00	    17.664
   4.620        241.67	    17.029
   4.640        263.33	    17.776
   4.660        270.00	    18.000
   4.680        254.17	    17.464
   4.700        284.17	    18.466
   4.720        224.17	    16.401
   4.740        259.17	    17.635
   4.760        233.33	    16.733
   4.780        240.83	    17.000
   4.800        243.33	    17.088
   4.820        230.83	    16.643
   4.840        225.00	    16.432
   4.860        245.83	    17.176
   4.880        266.67	    17.889
   4.900        244.17	    17.117
   4.920        241.67	    17.029
   4.940        237.50	    16.882
   4.960        265.83	    17.861
   4.980        226.67	    16.492
   5.000        216.67	    16.125
   5.020        221.67	    16.310
   5.040        212.50	    15.969
   5.060        242.50	    17.059
   5.080        250.00	    17.321
   5.100        232.50	    16.703
   5.120        219.17	    16.217
   5.140        236.67	    16.852
   5.160        211.67	    15.937
   5.180        235.83	    16.823
   5.200        238.33	    16.912
   5.220        222.50	    16.340
   5.240        242.50	    17.059
   5.260        212.50	    15.969
   5.280        210.00	    15.875
   5.300        204.17	    15.652
   5.320        219.17	    16.217
   5.340        212.50	    15.969
   5.360        208.33	    15.811
   5.380        206.67	    15.748
   5.400        206.67	    15.748
   5.420        242.50	    17.059
   5.440        201.67	    15.556
   5.460        203.33	    15.620
   5.480        216.67	    16.125
   5.500        199.17	    15.460
   5.520        220.83	    16.279
   5.540        215.83	    16.093
   5.560        204.17	    15.652
   5.580        207.50	    15.780
   5.600        196.67	    15.362
   5.620        186.67	    14.967
   5.640        208.33	    15.811
   5.660        210.83	    15.906
   5.680        219.17	    16.217
   5.700        196.67	    15.362
   5.720        205.83	    15.716
   5.740        214.17	    16.031
   5.760        190.83	    15.133
   5.780        199.17	    15.460
   5.800        190.00	    15.100
   5.820        195.00	    15.297
   5.840        189.17	    15.067
   5.860        175.83	    14.526
   5.880        195.00	    15.297
   5.900        210.83	    15.906
   5.920        201.67	    15.556
   5.940        178.33	    14.629
   5.960        176.67	    14.560
   5.980        165.00	    14.071
   6.000        163.33	    14.000
   6.020        199.17	    15.460
   6.040        186.67	    14.967
   6.060        206.67	    15.748
   6.080        194.17	    15.264
   6.100        205.00	    15.684
   6.120        196.67	    15.362
   6.140        202.50	    15.588
   6.160        197.50	    15.395
   6.180        215.83	    16.093
   6.200        171.67	    14.353
   6.220        175.00	    14.491
   6.240        190.83	    15.133
   6.260        179.17	    14.663
   6.280        176.67	    14.560
   6.300        205.00	    15.684
   6.320        170.83	    14.318
   6.340        172.50	    14.387
   6.360        170.83	    14.318
   6.380        156.67	    13.711
   6.400        168.33	    14.213
   6.420        158.33	    13.784
   6.440        193.33	    15.232
   6.460        175.83	    14.526
   6.480        187.50	    15.000
   6.500        185.83	    14.933
   6.520        157.50	    13.748
   6.540        172.50	    14.387
   6.560        165.00	    14.071
   6.580        159.17	    13.820
   6.600        155.00	    13.638
   6.620        169.17	    14.248
   6.640        182.50	    14.799
   6.660        176.67	    14.560
   6.680        157.50	    13.748
   6.700        155.00	    13.638
   6.720        165.83	    14.107
   6.740        164.17	    14.036
   6.760        159.17	    13.820
   6.780        175.00	    14.491
   6.800        139.17	    12.923
   6.820        155.83	    13.675
   6.840        159.17	    13.820
   6.860        174.17	    14.457
   6.880        164.17	    14.036
   6.900        180.83	    14.731
   6.920        130.83	    12.530
   6.940        140.00	    12.961
   6.960        153.33	    13.565
   6.980        141.67	    13.038
   7.000        155.00	    13.638
   7.020        155.00	    13.638
   7.040        177.50	    14.595
   7.060        158.33	    13.784
   7.080        162.50	    13.964
   7.100        162.50	    13.964
   7.120        152.50	    13.528
   7.140        155.00	    13.638
   7.160        175.83	    14.526
   7.180        149.17	    13.379
   7.200        141.67	    13.038
   7.220        165.83	    14.107
   7.240        161.67	    13.928
   7.260        155.00	    13.638
   7.280        146.67	    13.266
   7.300        152.50	    13.528
   7.320        172.50	    14.387
   7.340        152.50	    13.528
   7.360        131.67	    12.570
   7.380        150.00	    13.416
   7.400        135.83	    12.767
   7.420        155.00	    13.638
   7.440        160.83	    13.892
   7.460        149.17	    13.379
   7.480        158.33	    13.784
   7.500        146.67	    13.266
   7.520        138.33	    12.884
   7.540        145.00	    13.191
   7.560        141.67	    13.038
   7.580        145.00	    13.191
   7.600        154.17	    13.601
   7.620        155.83	    13.675
   7.640        122.50	    12.124
   7.660        155.83	    13.675
   7.680        156.67	    13.711
   7.700        150.00	    13.416
   7.720        145.83	    13.229
   7.740        138.33	    12.884
   7.760        139.17	    12.923
   7.780        138.33	    12.884
   7.800        146.67	    13.266
   7.820        151.67	    13.491
   7.840        117.50	    11.874
   7.860        128.33	    12.410
   7.880        126.67	    12.329
   7.900        150.00	    13.416
   7.920        149.17	    13.379
   7.940        124.17	    12.207
   7.960        132.50	    12.610
   7.980        150.83	    13.454
   8.000        160.00	    13.856
   8.020        144.17	    13.153
   8.040        138.33	    12.884
   8.060        122.50	    12.124
   8.080        130.00	    12.490
   8.100        122.50	    12.124
   8.120        105.00	    11.225
   8.140        135.00	    12.728
   8.160        130.83	    12.530
   8.180        124.17	    12.207
   8.200        137.50	    12.845
   8.220        140.00	    12.961
   8.240        130.83	    12.530
   8.260        136.67	    12.806
   8.280        140.83	    13.000
   8.300        128.33	    12.410
   8.320        125.83	    12.288
   8.340        116.67	    11.832
   8.360        135.83	    12.767
   8.380        125.83	    12.288
   8.400        116.67	    11.832
   8.420        126.67	    12.329
   8.440        123.33	    12.166
   8.460        116.67	    11.832
   8.480        119.17	    11.958
   8.500        133.33	    12.649
   8.520        128.33	    12.410
   8.540        134.17	    12.689
   8.560        125.83	    12.288
   8.580        135.00	    12.728
   8.600        135.83	    12.767
   8.620        130.00	    12.490
   8.640        117.50	    11.874
   8.660        145.00	    13.191
   8.680        142.50	    13.077
   8.700        148.33	    13.342
   8.720        137.50	    12.845
   8.740        159.17	    13.820
   8.760        177.50	    14.595
   8.780        216.67	    16.125
   8.800        195.00	    15.297
   8.820        188.33	    15.033
   8.840        170.00	    14.283
   8.860        126.67	    12.329
   8.880        134.17	    12.689
   8.900        125.83	    12.288
   8.920        129.17	    12.450
   8.940        130.83	    12.530
   8.960        106.67	    11.314
   8.980        126.67	    12.329
   9.000        121.67	    12.083
   9.020        110.83	    11.533
   9.040        100.83	    11.000
   9.060        110.83	    11.533
   9.080        119.17	    11.958
   9.100        120.00	    12.000
   9.120        146.67	    13.266
   9.140        122.50	    12.124
   9.160         95.83	    10.724
   9.180        119.17	    11.958
   9.200        112.50	    11.619
   9.220        115.00	    11.747
   9.240        120.83	    12.042
   9.260        106.67	    11.314
   9.280        104.17	    11.180
   9.300        128.33	    12.410
   9.320        132.50	    12.610
   9.340        116.67	    11.832
   9.360        114.17	    11.705
   9.380        116.67	    11.832
   9.400        115.00	    11.747
   9.420        123.33	    12.166
   9.440        109.17	    11.446
   9.460        114.17	    11.705
   9.480        116.67	    11.832
   9.500        104.17	    11.180
   9.520        120.83	    12.042
   9.540        109.17	    11.446
   9.560        100.00	    10.954
   9.580        101.67	    11.045
   9.600         93.33	    10.583
   9.620         99.17	    10.909
   9.640        105.00	    11.225
   9.660         92.50	    10.536
   9.680        105.83	    11.269
   9.700        133.33	    12.649
   9.720        127.50	    12.369
   9.740        123.33	    12.166
   9.760        121.67	    12.083
   9.780        114.17	    11.705
   9.800        125.83	    12.288
   9.820         97.50	    10.817
   9.840        117.50	    11.874
   9.860        105.00	    11.225
   9.880        116.67	    11.832
   9.900        101.67	    11.045
   9.920        104.17	    11.180
   9.940        105.00	    11.225
   9.960        103.33	    11.136
   9.980         96.67	    10.770
  10.000        111.67	    11.576
  10.020        116.67	    11.832
  10.040         92.50	    10.536
  10.060        103.33	    11.136
  10.080         88.33	    10.296
  10.100        108.33	    11.402
  10.120        108.33	    11.402
  10.140        114.17	    11.705
  10.160         85.83	    10.149
  10.180        105.00	    11.225
  10.200         86.67	    10.198
  10.220         96.67	    10.770
  10.240         98.33	    10.863
  10.260         96.67	    10.770
  10.280         98.33	    10.863
  10.300         99.17	    10.909
  10.320        113.33	    11.662
  10.340        104.17	    11.180
  10.360        103.33	    11.136
  10.380        101.67	    11.045
  10.400        105.83	    11.269
  10.420        101.67	    11.045
  10.440        115.83	    11.790
  10.460        116.67	    11.832
  10.480        121.67	    12.083
  10.500         92.50	    10.536
  10.520        110.83	    11.533
  10.540         96.67	    10.770
  10.560         95.83	    10.724
  10.580         96.67	    10.770
  10.600         96.67	    10.770
  10.620        103.33	    11.136
  10.640         95.00	    10.677
  10.660         86.67	    10.198
  10.680         95.83	    10.724
  10.700         91.67	    10.488
  10.720         87.50	    10.247
  10.740        111.67	    11.576
  10.760        115.83	    11.790
  10.780         81.67	     9.899
  10.800         90.00	    10.392
  10.820         89.17	    10.344
  10.840         98.33	    10.863
  10.860        100.00	    10.954
  10.880         94.17	    10.630
  10.900         92.50	    10.536
  10.920        105.00	    11.225
  10.940         88.33	    10.296
  10.960         90.00	    10.392
  10.980         76.67	     9.592
  11.000         88.33	    10.296
  11.020         97.50	    10.817
  11.040         87.50	    10.247
  11.060         90.83	    10.440
  11.080         92.50	    10.536
  11.100         88.33	    10.296
  11.120         90.83	    10.440
  11.140         69.17	     9.110
  11.160         87.50	    10.247
  11.180         91.67	    10.488
  11.200         93.33	    10.583
  11.220         95.00	    10.677
  11.240         71.67	     9.274
  11.260        105.00	    11.225
  11.280         95.83	    10.724
  11.300         85.83	    10.149
  11.320         96.67	    10.770
  11.340         82.50	     9.950
  11.360         84.17	    10.050
  11.380         74.17	     9.434
  11.400         97.50	    10.817
  11.420         88.33	    10.296
  11.440         76.67	     9.592
  11.460         86.67	    10.198
  11.480         87.50	    10.247
  11.500         78.33	     9.695
  11.520         89.17	    10.344
  11.540         88.33	    10.296
  11.560         86.67	    10.198
  11.580         87.50	    10.247
  11.600         88.33	    10.296
  11.620         94.17	    10.630
  11.640        100.00	    10.954
  11.660         91.67	    10.488
  11.680         95.00	    10.677
  11.700         81.67	     9.899
  11.720         85.00	    10.100
  11.740         80.00	     9.798
  11.760         87.50	    10.247
  11.780         92.50	    10.536
  11.800         92.50	    10.536
  11.820        102.50	    11.091
  11.840         66.67	     8.944
  11.860         73.33	     9.381
  11.880         95.00	    10.677
  11.900         91.67	    10.488
  11.920         90.00	    10.392
  11.940         73.33	     9.381
  11.960         87.50	    10.247
  11.980         98.33	    10.863
  12.000         95.83	    10.724
  12.020        103.33	    11.136
  12.040        113.33	    11.662
  12.060        107.50	    11.358
  12.080        120.83	    12.042
  12.100        123.33	    12.166
  12.120        140.00	    12.961
  12.140        151.67	    13.491
  12.160        161.67	    13.928
  12.180        138.33	    12.884
  12.200        114.17	    11.705
  12.220         90.00	    10.392
  12.240         82.50	     9.950
  12.260         98.33	    10.863
  12.280         99.17	    10.909
  12.300        100.83	    11.000
  12.320        104.17	    11.180
  12.340         82.50	     9.950
  12.360         93.33	    10.583
  12.380        136.67	    12.806
  12.400        118.33	    11.916
  12.420        114.17	    11.705
  12.440        121.67	    12.083
  12.460        107.50	    11.358
  12.480         84.17	    10.050
  12.500         80.83	     9.849
  12.520         87.50	    10.247
  12.540         81.67	     9.899
  12.560        101.67	    11.045
  12.580         85.83	    10.149
  12.600         92.50	    10.536
  12.620         92.50	    10.536
  12.640         90.83	    10.440
  12.660         91.67	    10.488
  12.680         75.83	     9.539
  12.700         84.17	    10.050
  12.720         86.67	    10.198
  12.740         69.17	     9.110
  12.760         85.00	    10.100
  12.780         64.17	     8.775
  12.800         75.83	     9.539
  12.820         87.50	    10.247
  12.840         81.67	     9.899
  12.860         82.50	     9.950
  12.880         70.00	     9.165
  12.900         78.33	     9.695
  12.920         81.67	     9.899
  12.940         66.67	     8.944
  12.960         95.00	    10.677
  12.980         81.67	     9.899
  13.000         75.00	     9.487
  13.020         76.67	     9.592
  13.040         77.50	     9.644
  13.060         80.00	     9.798
  13.080         85.00	    10.100
  13.100         78.33	     9.695
  13.120         76.67	     9.592
  13.140         77.50	     9.644
  13.160         79.17	     9.747
  13.180         73.33	     9.381
  13.200         72.50	     9.327
  13.220         85.83	    10.149
  13.240         75.00	     9.487
  13.260         70.00	     9.165
  13.280         79.17	     9.747
  13.300         77.50	     9.644
  13.320         92.50	    10.536
  13.340         76.67	     9.592
  13.360         79.17	     9.747
  13.380         72.50	     9.327
  13.400         88.33	    10.296
  13.420         74.17	     9.434
  13.440         68.33	     9.055
  13.460         65.00	     8.832
  13.480         78.33	     9.695
  13.500         60.00	     8.485
  13.520         80.00	     9.798
  13.540         65.00	     8.832
  13.560         83.33	    10.000
  13.580         73.33	     9.381
  13.600         83.33	    10.000
  13.620         75.83	     9.539
  13.640         75.83	     9.539
  13.660         75.83	     9.539
  13.680         67.50	     9.000
  13.700         71.67	     9.274
  13.720         82.50	     9.950
  13.740         70.83	     9.220
  13.760         90.83	    10.440
  13.780         66.67	     8.944
  13.800         83.33	    10.000
  13.820         70.83	     9.220
  13.840         68.33	     9.055
  13.860         54.17	     8.062
  13.880         63.33	     8.718
  13.900         70.83	     9.220
  13.920         67.50	     9.000
  13.940         95.83	    10.724
  13.960         66.67	     8.944
  13.980         73.33	     9.381
  14.000         74.17	     9.434
  14.020         50.00	     7.746
  14.040         70.00	     9.165
  14.060         61.67	     8.602
  14.080         72.50	     9.327
  14.100         60.83	     8.544
  14.120         55.00	     8.124
  14.140         69.17	     9.110
  14.160         75.83	     9.539
  14.180         59.17	     8.426
  14.200         62.50	     8.660
  14.220         60.00	     8.485
  14.240         74.17	     9.434
  14.260         70.83	     9.220
  14.280         65.00	     8.832
  14.300         73.33	     9.381
  14.320         57.50	     8.307
  14.340         61.67	     8.602
  14.360         68.33	     9.055
  14.380         70.00	     9.165
  14.400         50.83	     7.810
  14.420         71.67	     9.274
  14.440         71.67	     9.274
  14.460         64.17	     8.775
  14.480         55.83	     8.185
  14.500         66.67	     8.944
  14.520         65.83	     8.888
  14.540         73.33	     9.381
  14.560         79.17	     9.747
  14.580         64.17	     8.775
  14.600         46.67	     7.483
  14.620         68.33	     9.055
  14.640         80.83	     9.849
  14.660         57.50	     8.307
  14.680         60.83	     8.544
  14.700         57.50	     8.307
  14.720         58.33	     8.367
  14.740         81.67	     9.899
  14.760         68.33	     9.055
  14.780         64.17	     8.775
  14.800         63.33	     8.718
  14.820         60.83	     8.544
  14.840         70.00	     9.165
  14.860         62.50	     8.660
  14.880         64.17	     8.775
  14.900         72.50	     9.327
  14.920         74.17	     9.434
  14.940         52.50	     7.937
  14.960         74.17	     9.434
  14.980         65.83	     8.888
  15.000         72.50	     9.327
  15.020         64.17	     8.775
  15.040         69.17	     9.110
  15.060         59.17	     8.426
  15.080         68.33	     9.055
  15.100         59.17	     8.426
  15.120         58.33	     8.367
  15.140         73.33	     9.381
  15.160         47.50	     7.550
  15.180         49.17	     7.681
  15.200         55.00	     8.124
  15.220         50.00	     7.746
  15.240         59.17	     8.426
  15.260         63.33	     8.718
  15.280         71.67	     9.274
  15.300         71.67	     9.274
  15.320         61.67	     8.602
  15.340         53.33	     8.000
  15.360         70.83	     9.220
  15.380         59.17	     8.426
  15.400         57.50	     8.307
  15.420         61.67	     8.602
  15.440         70.00	     9.165
  15.460         70.00	     9.165
  15.480         55.00	     8.124
  15.500         67.50	     9.000
  15.520         58.33	     8.367
  15.540         66.67	     8.944
  15.560         60.83	     8.544
  15.580         78.33	     9.695
  15.600         78.33	     9.695
  15.620         55.00	     8.124
  15.640         55.83	     8.185
  15.660         49.17	     7.681
  15.680         59.17	     8.426
  15.700         69.17	     9.110
  15.720         64.17	     8.775
  15.740         56.67	     8.246
  15.760         62.50	     8.660
  15.780         63.33	     8.718
  15.800         51.67	     7.874
  15.820         75.83	     9.539
  15.840         66.67	     8.944
  15.860         63.33	     8.718
  15.880         74.17	     9.434
  15.900         57.50	     8.307
  15.920         56.67	     8.246
  15.940         57.50	     8.307
  15.960         50.00	     7.746
  15.980         65.00	     8.832
  16.000         61.67	     8.602
  16.020         65.83	     8.888
  16.040         66.67	     8.944
  16.060         61.67	     8.602
  16.080         58.33	     8.367
  16.100         44.17	     7.280
  16.120         55.00	     8.124
  16.140         64.17	     8.775
  16.160         53.33	     8.000
  16.180         59.17	     8.426
  16.200         54.17	     8.062
  16.220         53.33	     8.000
  16.240         71.67	     9.274
  16.260         75.83	     9.539
  16.280         60.00	     8.485
  16.300         50.83	     7.810
  16.320         45.83	     7.416
  16.340         61.67	     8.602
  16.360         57.50	     8.307
  16.380         65.00	     8.832
  16.400         62.50	     8.660
  16.420         70.00	     9.165
  16.440         50.83	     7.810
  16.460         68.33	     9.055
  16.480         57.50	     8.307
  16.500         69.17	     9.110
  16.520         58.33	     8.367
  16.540         55.00	     8.124
  16.560         68.33	     9.055
  16.580         53.33	     8.000
  16.600         52.50	     7.937
  16.620         72.50	     9.327
  16.640         55.83	     8.185
  16.660         67.50	     9.000
  16.680         55.00	     8.124
  16.700         52.50	     7.937
  16.720         55.00	     8.124
  16.740         67.50	     9.000
  16.760         60.00	     8.485
  16.780         62.50	     8.660
  16.800         59.17	     8.426
  16.820         51.67	     7.874
  16.840         51.67	     7.874
  16.860         49.17	     7.681
  16.880         58.33	     8.367
  16.900         61.67	     8.602
  16.920         56.67	     8.246
  16.940         55.00	     8.124
  16.960         57.50	     8.307
  16.980         56.67	     8.246
  17.000         68.33	     9.055
  17.020         56.67	     8.246
  17.040         56.67	     8.246
  17.060         55.83	     8.185
  17.080         55.00	     8.124
  17.100         60.00	     8.485
  17.120         60.83	     8.544
  17.140         61.67	     8.602
  17.160         54.17	     8.062
  17.180         45.00	     7.348
  17.200         55.83	     8.185
  17.220         49.17	     7.681
  17.240         55.83	     8.185
  17.260         53.33	     8.000
  17.280         65.83	     8.888
  17.300         40.00	     6.928
  17.320         60.83	     8.544
  17.340         53.33	     8.000
  17.360         55.00	     8.124
  17.380         65.83	     8.888
  17.400         57.50	     8.307
  17.420         59.17	     8.426
  17.440         53.33	     8.000
  17.460         61.67	     8.602
  17.480         66.67	     8.944
  17.500         49.17	     7.681
  17.520         49.17	     7.681
  17.540         54.17	     8.062
  17.560         70.83	     9.220
  17.580         91.67	    10.488
  17.600         87.50	    10.247
  17.620         85.00	    10.100
  17.640         73.33	     9.381
  17.660         68.33	     9.055
  17.680         64.17	     8.775
  17.700         66.67	     8.944
  17.720         65.00	     8.832
  17.740         72.50	     9.327
  17.760         77.50	     9.644
  17.780         90.00	    10.392
  17.800         61.67	     8.602
  17.820         71.67	     9.274
  17.840         54.17	     8.062
  17.860         51.67	     7.874
  17.880         51.67	     7.874
  17.900         51.67	     7.874
  17.920         50.00	     7.746
  17.940         58.33	     8.367
  17.960         62.50	     8.660
  17.980         60.83	     8.544
  18.000         60.83	     8.544
  18.020         61.67	     8.602
  18.040         53.33	     8.000
  18.060         70.00	     9.165
  18.080         50.00	     7.746
  18.100         59.17	     8.426
  18.120         53.33	     8.000
  18.140         55.00	     8.124
  18.160         57.50	     8.307
  18.180         64.17	     8.775
  18.200         50.00	     7.746
  18.220         53.33	     8.000
  18.240         52.50	     7.937
  18.260         59.17	     8.426
  18.280         65.83	     8.888
  18.300         42.50	     7.141
  18.320         58.33	     8.367
  18.340         48.33	     7.616
  18.360         66.67	     8.944
  18.380         45.83	     7.416
  18.400         74.17	     9.434
  18.420         45.00	     7.348
  18.440         60.83	     8.544
  18.460         56.67	     8.246
  18.480         59.17	     8.426
  18.500         62.50	     8.660
  18.520         50.00	     7.746
  18.540         61.67	     8.602
  18.560         55.83	     8.185
  18.580         57.50	     8.307
  18.600         51.67	     7.874
  18.620         50.83	     7.810
  18.640         67.50	     9.000
  18.660         60.83	     8.544
  18.680         67.50	     9.000
  18.700         75.00	     9.487
  18.720         80.00	     9.798
  18.740         80.00	     9.798
  18.760         60.83	     8.544
  18.780         70.00	     9.165
  18.800         48.33	     7.616
  18.820         58.33	     8.367
  18.840         50.00	     7.746
  18.860         52.50	     7.937
  18.880         50.00	     7.746
  18.900         41.67	     7.071
  18.920         53.33	     8.000
  18.940         62.50	     8.660
  18.960         45.83	     7.416
  18.980         43.33	     7.211
  19.000         57.50	     8.307
  19.020         43.33	     7.211
  19.040         39.17	     6.856
  19.060         56.67	     8.246
  19.080         53.33	     8.000
  19.100         66.67	     8.944
  19.120         65.00	     8.832
  19.140         50.83	     7.810
  19.160         53.33	     8.000
  19.180         56.67	     8.246
  19.200         59.17	     8.426
  19.220         65.00	     8.832
  19.240         54.17	     8.062
  19.260         51.67	     7.874
  19.280         71.67	     9.274
  19.300         51.67	     7.874
  19.320         48.33	     7.616
  19.340         53.33	     8.000
  19.360         60.00	     8.485
  19.380         63.33	     8.718
  19.400         61.67	     8.602
  19.420         57.50	     8.307
  19.440         56.67	     8.246
  19.460         50.00	     7.746
  19.480         52.50	     7.937
  19.500         62.50	     8.660
  19.520         59.17	     8.426
  19.540         53.33	     8.000
  19.560         76.67	     9.592
  19.580         75.83	     9.539
  19.600         76.67	     9.592
  19.620         71.67	     9.274
  19.640         62.50	     8.660
  19.660         63.33	     8.718
  19.680         65.00	     8.832
  19.700         65.00	     8.832
  19.720         74.17	     9.434
  19.740         75.00	     9.487
  19.760         71.67	     9.274
  19.780         81.67	     9.899
  19.800         65.00	     8.832
  19.820         62.50	     8.660
  19.840         66.67	     8.944
  19.860         61.67	     8.602
  19.880         53.33	     8.000
  19.900         53.33	     8.000
  19.920         47.50	     7.550
  19.940         61.67	     8.602
  19.960         50.00	     7.746
  19.980         48.33	     7.616
  20.000         50.83	     7.810
  20.020         49.17	     7.681
  20.040         37.50	     6.708
  20.060         60.00	     8.485
  20.080         45.00	     7.348
  20.100         40.83	     7.000
  20.120         62.50	     8.660
  20.140         65.00	     8.832
  20.160         51.67	     7.874
  20.180         47.50	     7.550
  20.200         51.67	     7.874
  20.220         65.00	     8.832
  20.240         49.17	     7.681
  20.260         49.17	     7.681
  20.280         52.50	     7.937
  20.300         47.50	     7.550
  20.320         60.00	     8.485
  20.340         40.00	     6.928
  20.360         50.00	     7.746
  20.380         60.83	     8.544
  20.400         43.33	     7.211
  20.420         46.67	     7.483
  20.440         54.17	     8.062
  20.460         61.67	     8.602
  20.480         47.50	     7.550
  20.500         41.67	     7.071
  20.520         54.17	     8.062
  20.540         55.83	     8.185
  20.560         61.67	     8.602
  20.580         50.83	     7.810
  20.600         61.67	     8.602
  20.620         68.33	     9.055
  20.640         60.83	     8.544
  20.660         64.17	     8.775
  20.680         65.83	     8.888
  20.700         76.67	     9.592
  20.720         82.50	     9.950
  20.740        124.17	    12.207
  20.760        130.00	    12.490
  20.780        140.00	    12.961
  20.800        110.00	    11.489
  20.820        120.83	    12.042
  20.840         97.50	    10.817
  20.860         68.33	     9.055
  20.880         65.83	     8.888
  20.900         49.17	     7.681
  20.920         73.33	     9.381
  20.940         55.00	     8.124
  20.960         67.50	     9.000
  20.980         59.17	     8.426
  21.000         60.83	     8.544
  21.020         61.67	     8.602
  21.040         49.17	     7.681
  21.060         60.00	     8.485
  21.080         51.67	     7.874
  21.100         56.67	     8.246
  21.120         47.50	     7.550
  21.140         52.50	     7.937
  21.160         32.50	     6.245
  21.180         49.17	     7.681
  21.200         47.50	     7.550
  21.220         45.00	     7.348
  21.240         48.33	     7.616
  21.260         43.33	     7.211
  21.280         45.00	     7.348
  21.300         40.83	     7.000
  21.320         48.33	     7.616
  21.340         45.00	     7.348
  21.360         48.33	     7.616
  21.380         50.83	     7.810
  21.400         48.33	     7.616
  21.420         48.33	     7.616
  21.440         57.50	     8.307
  21.460         42.50	     7.141
  21.480         47.50	     7.550
  21.500         55.00	     8.124
  21.520         46.67	     7.483
  21.540         42.50	     7.141
  21.560         53.33	     8.000
  21.580         40.83	     7.000
  21.600         45.00	     7.348
  21.620         43.33	     7.211
  21.640         60.00	     8.485
  21.660         50.83	     7.810
  21.680         54.17	     8.062
  21.700         55.83	     8.185
  21.720         50.83	     7.810
  21.740         46.67	     7.483
  21.760         46.67	     7.483
  21.780         51.67	     7.874
  21.800         58.33	     8.367
  21.820         51.67	     7.874
  21.840         57.50	     8.307
  21.860         65.83	     8.888
  21.880         60.83	     8.544
  21.900         82.50	     9.950
  21.920         88.33	    10.296
  21.940         96.67	    10.770
  21.960         82.50	     9.950
  21.980         87.50	    10.247
  22.000         85.83	    10.149
  22.020         77.50	     9.644
  22.040         58.33	     8.367
  22.060         57.50	     8.307
  22.080         47.50	     7.550
  22.100         64.17	     8.775
  22.120         56.67	     8.246
  22.140         51.67	     7.874
  22.160         47.50	     7.550
  22.180         51.67	     7.874
  22.200         52.50	     7.937
  22.220         55.00	     8.124
  22.240         40.83	     7.000
  22.260         44.17	     7.280
  22.280         48.33	     7.616
  22.300         45.83	     7.416
  22.320         44.17	     7.280
  22.340         41.67	     7.071
  22.360         50.83	     7.810
  22.380         55.00	     8.124
  22.400         55.83	     8.185
  22.420         54.17	     8.062
  22.440         38.33	     6.782
  22.460         48.33	     7.616
  22.480         50.83	     7.810
  22.500         51.67	     7.874
  22.520         41.67	     7.071
  22.540         36.67	     6.633
  22.560         50.83	     7.810
  22.580         51.67	     7.874
  22.600         50.00	     7.746
  22.620         50.00	     7.746
  22.640         46.67	     7.483
  22.660         49.17	     7.681
  22.680         48.33	     7.616
  22.700         54.17	     8.062
  22.720         55.83	     8.185
  22.740         75.00	     9.487
  22.760         63.33	     8.718
  22.780         72.50	     9.327
  22.800         55.83	     8.185
  22.820         58.33	     8.367
  22.840         44.17	     7.280
  22.860         58.33	     8.367
  22.880         55.00	     8.124
  22.900         42.50	     7.141
  22.920         52.50	     7.937
  22.940         51.67	     7.874
  22.960         51.67	     7.874
  22.980         50.00	     7.746
  23.000         51.67	     7.874
  23.020         50.83	     7.810
  23.040         47.50	     7.550
  23.060         38.33	     6.782
  23.080         58.33	     8.367
  23.100         45.83	     7.416
  23.120         46.67	     7.483
  23.140         54.17	     8.062
  23.160         46.67	     7.483
  23.180         45.83	     7.416
  23.200         53.33	     8.000
  23.220         55.83	     8.185
  23.240         42.50	     7.141
  23.260         52.50	     7.937
  23.280         50.83	     7.810
  23.300         51.67	     7.874
  23.320         53.33	     8.000
  23.340         56.67	     8.246
  23.360         55.00	     8.124
  23.380         63.33	     8.718
  23.400         44.17	     7.280
  23.420         51.67	     7.874
  23.440         69.17	     9.110
  23.460         69.17	     9.110
  23.480         52.50	     7.937
  23.500         58.33	     8.367
  23.520         61.67	     8.602
  23.540         45.83	     7.416
  23.560         54.17	     8.062
  23.580         45.83	     7.416
  23.600         49.17	     7.681
  23.620         49.17	     7.681
  23.640         42.50	     7.141
  23.660         51.67	     7.874
  23.680         43.33	     7.211
  23.700         65.00	     8.832
  23.720         64.17	     8.775
  23.740         45.00	     7.348
  23.760         50.00	     7.746
  23.780         63.33	     8.718
  23.800         53.33	     8.000
  23.820         62.50	     8.660
  23.840         64.17	     8.775
  23.860         46.67	     7.483
  23.880         58.33	     8.367
  23.900         47.50	     7.550
  23.920         55.00	     8.124
  23.940         55.83	     8.185
  23.960         46.67	     7.483
  23.980         53.33	     8.000
  24.000         67.50	     9.000
  24.020         63.33	     8.718
  24.040         61.67	     8.602
  24.060         81.67	     9.899
  24.080         68.33	     9.055
  24.100         72.50	     9.327
  24.120         68.33	     9.055
  24.140         71.67	     9.274
  24.160         74.17	     9.434
  24.180         62.50	     8.660
  24.200         87.50	    10.247
  24.220         81.67	     9.899
  24.240         78.33	     9.695
  24.260         81.67	     9.899
  24.280         56.67	     8.246
  24.300         55.83	     8.185
  24.320         60.00	     8.485
  24.340         48.33	     7.616
  24.360         44.17	     7.280
  24.380         64.17	     8.775
  24.400         47.50	     7.550
  24.420         56.67	     8.246
  24.440         55.00	     8.124
  24.460         61.67	     8.602
  24.480         67.50	     9.000
  24.500         65.83	     8.888
  24.520         88.33	    10.296
  24.540         78.33	     9.695
  24.560         75.83	     9.539
  24.580         76.67	     9.592
  24.600         80.00	     9.798
  24.620         84.17	    10.050
  24.640         60.00	     8.485
  24.660         65.83	     8.888
  24.680         59.17	     8.426
  24.700         59.17	     8.426
  24.720         65.83	     8.888
  24.740         45.00	     7.348
  24.760         40.83	     7.000
  24.780         54.17	     8.062
  24.800         57.50	     8.307
  24.820         50.83	     7.810
  24.840         50.00	     7.746
  24.860         50.83	     7.810
  24.880         52.50	     7.937
  24.900         68.33	     9.055
  24.920         44.17	     7.280
  24.940         52.50	     7.937
  24.960         52.50	     7.937
  24.980         57.50	     8.307
  25.000         57.50	     8.307
  25.020         73.33	     9.381
  25.040         68.33	     9.055
  25.060        100.00	    10.954
  25.080         85.83	    10.149
  25.100         73.33	     9.381
  25.120         82.50	     9.950
  25.140         70.00	     9.165
  25.160         66.67	     8.944
  25.180         82.50	     9.950
  25.200         50.00	     7.746
  25.220         47.50	     7.550
  25.240         44.17	     7.280
  25.260         49.17	     7.681
  25.280         45.83	     7.416
  25.300         61.67	     8.602
  25.320         58.33	     8.367
  25.340         57.50	     8.307
  25.360         55.00	     8.124
  25.380         65.00	     8.832
  25.400         77.50	     9.644
  25.420         57.50	     8.307
  25.440         74.17	     9.434
  25.460         70.00	     9.165
  25.480         63.33	     8.718
  25.500         63.33	     8.718
  25.520         80.83	     9.849
  25.540         62.50	     8.660
  25.560         70.83	     9.220
  25.580         63.33	     8.718
  25.600         59.17	     8.426
  25.620         54.17	     8.062
  25.640         53.33	     8.000
  25.660         52.50	     7.937
  25.680         38.33	     6.782
  25.700         46.67	     7.483
  25.720         43.33	     7.211
  25.740         49.17	     7.681
  25.760         51.67	     7.874
  25.780         41.67	     7.071
  25.800         42.50	     7.141
  25.820         34.17	     6.403
  25.840         43.33	     7.211
  25.860         33.33	     6.325
  25.880         41.67	     7.071
  25.900         39.17	     6.856
  25.920         40.83	     7.000
  25.940         49.17	     7.681
  25.960         40.83	     7.000
  25.980         45.00	     7.348
  26.000         51.67	     7.874
  26.020         43.33	     7.211
  26.040         46.67	     7.483
  26.060         45.00	     7.348
  26.080         44.17	     7.280
  26.100         55.00	     8.124
  26.120         56.67	     8.246
  26.140         55.00	     8.124
  26.160         62.50	     8.660
  26.180         63.33	     8.718
  26.200         59.17	     8.426
  26.220         61.67	     8.602
  26.240         63.33	     8.718
  26.260         65.00	     8.832
  26.280         58.33	     8.367
  26.300         93.33	    10.583
  26.320         90.83	    10.440
  26.340         72.50	     9.327
  26.360         84.17	    10.050
  26.380         98.33	    10.863
  26.400        120.83	    12.042
  26.420        160.00	    13.856
  26.440        195.83	    15.330
  26.460        190.83	    15.133
  26.480        210.00	    15.875
  26.500        276.67	    18.221
  26.520        342.50	    20.273
  26.540        515.00	    24.860
  26.560        646.67	    27.857
  26.580        597.50	    26.777
  26.600        500.83	    24.515
  26.620        365.83	    20.952
  26.640        351.67	    20.543
  26.660        251.67	    17.378
  26.680        140.83	    13.000
  26.700         99.17	    10.909
  26.720        115.00	    11.747
  26.740         96.67	    10.770
  26.760        107.50	    11.358
  26.780        122.50	    12.124
  26.800        118.33	    11.916
  26.820        108.33	    11.402
  26.840        109.17	    11.446
  26.860        103.33	    11.136
  26.880         87.50	    10.247
  26.900         82.50	     9.950
  26.920         75.83	     9.539
  26.940         38.33	     6.782
  26.960         54.17	     8.062
  26.980         49.17	     7.681
  27.000         60.83	     8.544
  27.020         50.83	     7.810
  27.040         46.67	     7.483
  27.060         69.17	     9.110
  27.080         55.83	     8.185
  27.100         41.67	     7.071
  27.120         51.67	     7.874
  27.140         45.00	     7.348
  27.160         53.33	     8.000
  27.180         41.67	     7.071
  27.200         37.50	     6.708
  27.220         57.50	     8.307
  27.240         36.67	     6.633
  27.260         51.67	     7.874
  27.280         55.83	     8.185
  27.300         51.67	     7.874
  27.320         56.67	     8.246
  27.340         55.83	     8.185
  27.360         64.17	     8.775
  27.380         60.00	     8.485
  27.400         77.50	     9.644
  27.420         82.50	     9.950
  27.440         80.83	     9.849
  27.460         75.00	     9.487
  27.480         72.50	     9.327
  27.500         85.83	    10.149
  27.520         64.17	     8.775
  27.540         70.83	     9.220
  27.560         60.83	     8.544
  27.580         75.00	     9.487
  27.600         90.83	    10.440
  27.620        129.17	    12.450
  27.640        153.33	    13.565
  27.660        150.00	    13.416
  27.680        133.33	    12.649
  27.700        138.33	    12.884
  27.720        123.33	    12.166
  27.740        101.67	    11.045
  27.760         90.00	    10.392
  27.780        115.83	    11.790
  27.800        110.83	    11.533
  27.820        121.67	    12.083
  27.840        120.83	    12.042
  27.860        156.67	    13.711
  27.880        175.00	    14.491
  27.900        162.50	    13.964
  27.920        133.33	    12.649
  27.940        112.50	    11.619
  27.960        110.83	    11.533
  27.980         90.00	    10.392
  28.000         77.50	     9.644
  28.020         90.83	    10.440
  28.040         91.67	    10.488
  28.060         75.83	     9.539
  28.080         50.00	     7.746
  28.100         71.67	     9.274
  28.120         50.00	     7.746
  28.140         54.17	     8.062
  28.160         62.50	     8.660
  28.180         86.67	    10.198
  28.200         55.83	     8.185
  28.220         72.50	     9.327
  28.240         61.67	     8.602
  28.260         68.33	     9.055
  28.280         65.83	     8.888
  28.300         38.33	     6.782
  28.320         38.33	     6.782
  28.340         35.83	     6.557
  28.360         39.17	     6.856
  28.380         33.33	     6.325
  28.400         35.00	     6.481
  28.420         42.50	     7.141
  28.440         41.67	     7.071
  28.460         43.33	     7.211
  28.480         45.00	     7.348
  28.500         51.67	     7.874
  28.520         57.50	     8.307
  28.540         52.50	     7.937
  28.560         53.33	     8.000
  28.580         54.17	     8.062
  28.600         55.83	     8.185
  28.620         66.67	     8.944
  28.640         73.33	     9.381
  28.660         79.17	     9.747
  28.680         70.00	     9.165
  28.700         59.17	     8.426
  28.720         58.33	     8.367
  28.740         70.83	     9.220
  28.760         50.00	     7.746
  28.780         50.00	     7.746
  28.800         35.83	     6.557
  28.820         47.50	     7.550
  28.840         29.17	     5.916
  28.860         36.67	     6.633
  28.880         25.83	     5.568
  28.900         32.50	     6.245
  28.920         30.00	     6.000
  28.940         33.33	     6.325
  28.960         45.00	     7.348
  28.980         35.83	     6.557
  29.000         26.67	     5.657
  29.020         35.00	     6.481
  29.040         33.33	     6.325
  29.060         41.67	     7.071
  29.080         35.83	     6.557
  29.100         34.17	     6.403
  29.120         23.33	     5.292
  29.140         34.17	     6.403
  29.160         33.33	     6.325
  29.180         31.67	     6.164
  29.200         44.17	     7.280
  29.220         39.17	     6.856
  29.240         19.17	     4.796
  29.260         39.17	     6.856
  29.280         40.00	     6.928
  29.300         37.50	     6.708
  29.320         30.00	     6.000
  29.340         26.67	     5.657
  29.360         33.33	     6.325
  29.380         32.50	     6.245
  29.400         34.17	     6.403
  29.420         32.50	     6.245
  29.440         45.00	     7.348
  29.460         41.67	     7.071
  29.480         32.50	     6.245
  29.500         36.67	     6.633
  29.520         40.83	     7.000
  29.540         38.33	     6.782
  29.560         41.67	     7.071
  29.580         47.50	     7.550
  29.600         41.67	     7.071
  29.620         45.83	     7.416
  29.640         50.00	     7.746
  29.660         58.33	     8.367
  29.680         55.83	     8.185
  29.700         60.83	     8.544
  29.720         54.17	     8.062
  29.740         87.50	    10.247
  29.760         75.00	     9.487
  29.780         68.33	     9.055
  29.800         68.33	     9.055
  29.820         57.50	     8.307
  29.840         53.33	     8.000
  29.860         63.33	     8.718
  29.880         50.00	     7.746
  29.900         43.33	     7.211
  29.920         49.17	     7.681
  29.940         45.00	     7.348
  29.960         55.00	     8.124
  29.980         40.00	     6.928
  30.000         47.50	     7.550
  30.020         51.67	     7.874
  30.040         70.83	     9.220
  30.060         46.67	     7.483
  30.080         47.50	     7.550
  30.100         53.33	     8.000
  30.120         45.83	     7.416
  30.140         64.17	     8.775
  30.160         75.83	     9.539
  30.180         71.67	     9.274
  30.200         47.50	     7.550
  30.220         52.50	     7.937
  30.240         57.50	     8.307
  30.260         55.83	     8.185
  30.280         37.50	     6.708
  30.300         46.67	     7.483
  30.320         48.33	     7.616
  30.340         46.67	     7.483
  30.360         59.17	     8.426
  30.380         48.33	     7.616
  30.400         43.33	     7.211
  30.420         36.67	     6.633
  30.440         49.17	     7.681
  30.460         37.50	     6.708
  30.480         47.50	     7.550
  30.500         44.17	     7.280
  30.520         35.00	     6.481
  30.540         44.17	     7.280
  30.560         37.50	     6.708
  30.580         35.83	     6.557
  30.600         37.50	     6.708
  30.620         37.50	     6.708
  30.640         40.83	     7.000
  30.660         45.00	     7.348
  30.680         53.33	     8.000
  30.700         48.33	     7.616
  30.720         40.00	     6.928
  30.740         35.83	     6.557
  30.760         30.83	     6.083
  30.780         43.33	     7.211
  30.800         45.00	     7.348
  30.820         35.00	     6.481
  30.840         45.00	     7.348
  30.860         50.00	     7.746
  30.880         45.00	     7.348
  30.900         49.17	     7.681
  30.920         42.50	     7.141
  30.940         32.50	     6.245
  30.960         47.50	     7.550
  30.980         41.67	     7.071
  31.000         46.67	     7.483
  31.020         40.83	     7.000
  31.040         49.17	     7.681
  31.060         56.67	     8.246
  31.080         35.83	     6.557
  31.100         45.83	     7.416
  31.120         61.67	     8.602
  31.140         65.00	     8.832
  31.160         65.00	     8.832
  31.180         53.33	     8.000
  31.200         50.83	     7.810
  31.220         57.50	     8.307
  31.240         54.17	     8.062
  31.260         57.50	     8.307
  31.280         49.17	     7.681
  31.300         42.50	     7.141
  31.320         39.17	     6.856
  31.340         34.17	     6.403
  31.360         47.50	     7.550
  31.380         33.33	     6.325
  31.400         26.67	     5.657
  31.420         43.33	     7.211
  31.440         39.17	     6.856
  31.460         34.17	     6.403
  31.480         45.00	     7.348
  31.500         55.83	     8.185
  31.520         40.00	     6.928
  31.540         44.17	     7.280
  31.560         43.33	     7.211
  31.580         35.00	     6.481
  31.600         63.33	     8.718
  31.620         52.50	     7.937
  31.640         47.50	     7.550
  31.660         48.33	     7.616
  31.680         52.50	     7.937
  31.700         44.17	     7.280
  31.720         37.50	     6.708
  31.740         54.17	     8.062
  31.760         55.00	     8.124
  31.780         53.33	     8.000
  31.800         35.00	     6.481
  31.820         40.83	     7.000
  31.840         59.17	     8.426
  31.860         42.50	     7.141
  31.880         33.33	     6.325
  31.900         36.67	     6.633
  31.920         43.33	     7.211
  31.940         40.00	     6.928
  31.960         33.33	     6.325
  31.980         35.00	     6.481
  32.000         35.83	     6.557
  32.020         47.50	     7.550
  32.040         45.83	     7.416
  32.060         37.50	     6.708
  32.080         30.83	     6.083
  32.100         40.00	     6.928
  32.120         39.17	     6.856
  32.140         34.17	     6.403
  32.160         30.83	     6.083
  32.180         50.00	     7.746
  32.200         37.50	     6.708
  32.220         36.67	     6.633
  32.240         31.67	     6.164
  32.260         34.17	     6.403
  32.280         26.67	     5.657
  32.300         37.50	     6.708
  32.320         34.17	     6.403
  32.340         22.50	     5.196
  32.360         34.17	     6.403
  32.380         31.67	     6.164
  32.400         29.17	     5.916
  32.420         40.83	     7.000
  32.440         30.00	     6.000
  32.460         28.33	     5.831
  32.480         15.00	     4.243
  32.500         25.83	     5.568
  32.520         22.50	     5.196
  32.540         34.17	     6.403
  32.560         22.50	     5.196
  32.580         31.67	     6.164
  32.600         30.83	     6.083
  32.620         25.00	     5.477
  32.640         33.33	     6.325
  32.660         32.50	     6.245
  32.680         30.83	     6.083
  32.700         33.33	     6.325
  32.720         29.17	     5.916
  32.740         34.17	     6.403
  32.760         25.83	     5.568
  32.780         25.00	     5.477
  32.800         33.33	     6.325
  32.820         29.17	     5.916
  32.840         37.50	     6.708
  32.860         31.67	     6.164
  32.880         35.83	     6.557
  32.900         43.33	     7.211
  32.920         51.67	     7.874
  32.940         45.00	     7.348
  32.960         59.17	     8.426
  32.980         57.50	     8.307
  33.000         37.50	     6.708
  33.020         45.83	     7.416
  33.040         36.67	     6.633
  33.060         34.17	     6.403
  33.080         33.33	     6.325
  33.100         28.33	     5.831
  33.120         25.83	     5.568
  33.140         38.33	     6.782
  33.160         31.67	     6.164
  33.180         35.00	     6.481
  33.200         40.83	     7.000
  33.220         35.83	     6.557
  33.240         38.33	     6.782
  33.260         26.67	     5.657
  33.280         33.33	     6.325
  33.300         30.83	     6.083
  33.320         40.83	     7.000
  33.340         36.67	     6.633
  33.360         27.50	     5.745
  33.380         36.67	     6.633
  33.400         30.83	     6.083
  33.420         36.67	     6.633
  33.440         25.00	     5.477
  33.460         29.17	     5.916
  33.480         26.67	     5.657
  33.500         31.67	     6.164
  33.520         27.50	     5.745
  33.540         38.33	     6.782
  33.560         35.00	     6.481
  33.580         35.00	     6.481
  33.600         35.00	     6.481
  33.620         36.67	     6.633
  33.640         25.83	     5.568
  33.660         40.00	     6.928
  33.680         31.67	     6.164
  33.700         47.50	     7.550
  33.720         37.50	     6.708
  33.740         39.17	     6.856
  33.760         38.33	     6.782
  33.780         40.00	     6.928
  33.800         32.50	     6.245
  33.820         30.00	     6.000
  33.840         37.50	     6.708
  33.860         35.83	     6.557
  33.880         37.50	     6.708
  33.900         40.00	     6.928
  33.920         40.83	     7.000
  33.940         35.00	     6.481
  33.960         53.33	     8.000
  33.980         36.67	     6.633
  34.000         39.17	     6.856
  34.020         44.17	     7.280
  34.040         43.33	     7.211
  34.060         45.83	     7.416
  34.080         27.50	     5.745
  34.100         48.33	     7.616
  34.120         32.50	     6.245
  34.140         29.17	     5.916
  34.160         31.67	     6.164
  34.180         40.00	     6.928
  34.200         44.17	     7.280
  34.220         49.17	     7.681
  34.240         41.67	     7.071
  34.260         36.67	     6.633
  34.280         50.83	     7.810
  34.300         42.50	     7.141
  34.320         59.17	     8.426
  34.340         65.00	     8.832
  34.360         63.33	     8.718
  34.380         61.67	     8.602
  34.400         58.33	     8.367
  34.420         58.33	     8.367
  34.440         56.67	     8.246
  34.460         47.50	     7.550
  34.480         65.00	     8.832
  34.500         63.33	     8.718
  34.520         65.83	     8.888
  34.540         53.33	     8.000
  34.560         60.83	     8.544
  34.580         95.83	    10.724
  34.600        100.00	    10.954
  34.620         85.83	    10.149
  34.640         68.33	     9.055
  34.660         57.50	     8.307
  34.680         70.00	     9.165
  34.700         67.50	     9.000
  34.720         73.33	     9.381
  34.740         64.17	     8.775
  34.760         70.00	     9.165
  34.780         73.33	     9.381
  34.800         65.83	     8.888
  34.820         76.67	     9.592
  34.840         87.50	    10.247
  34.860         83.33	    10.000
  34.880         88.33	    10.296
  34.900         77.50	     9.644
  34.920         90.83	    10.440
  34.940         70.83	     9.220
  34.960         63.33	     8.718
  34.980         65.00	     8.832
  35.000         65.00	     8.832
  35.020         76.67	     9.592
  35.040         37.50	     6.708
  35.060         62.50	     8.660
  35.080         50.00	     7.746
  35.100         49.17	     7.681
  35.120         69.17	     9.110
  35.140         62.50	     8.660
  35.160         67.50	     9.000
  35.180         70.00	     9.165
  35.200         55.00	     8.124
  35.220         47.50	     7.550
  35.240         73.33	     9.381
  35.260         72.50	     9.327
  35.280         56.67	     8.246
  35.300         66.67	     8.944
  35.320         55.83	     8.185
  35.340         71.67	     9.274
  35.360         64.17	     8.775
  35.380         57.50	     8.307
  35.400         71.67	     9.274
  35.420         70.00	     9.165
  35.440         89.17	    10.344
  35.460         75.00	     9.487
  35.480         89.17	    10.344
  35.500         92.50	    10.536
  35.520        104.17	    11.180
  35.540         94.17	    10.630
  35.560         78.33	     9.695
  35.580         56.67	     8.246
  35.600         61.67	     8.602
  35.620         53.33	     8.000
  35.640         40.83	     7.000
  35.660         41.67	     7.071
  35.680         40.83	     7.000
  35.700         43.33	     7.211
  35.720         43.33	     7.211
  35.740         42.50	     7.141
  35.760         43.33	     7.211
  35.780         30.00	     6.000
  35.800         42.50	     7.141
  35.820         47.50	     7.550
  35.840         34.17	     6.403
  35.860         33.33	     6.325
  35.880         41.67	     7.071
  35.900         33.33	     6.325
  35.920         42.50	     7.141
  35.940         34.17	     6.403
  35.960         48.33	     7.616
  35.980         36.67	     6.633
  36.000         35.00	     6.481
  36.020         30.83	     6.083
  36.040         43.33	     7.211
  36.060         43.33	     7.211
  36.080         36.67	     6.633
  36.100         41.67	     7.071
  36.120         42.50	     7.141
  36.140         51.67	     7.874
  36.160         37.50	     6.708
  36.180         40.00	     6.928
  36.200         50.83	     7.810
  36.220         50.00	     7.746
  36.240         49.17	     7.681
  36.260         49.17	     7.681
  36.280         63.33	     8.718
  36.300         89.17	    10.344
  36.320        105.83	    11.269
  36.340         64.17	     8.775
  36.360         75.83	     9.539
  36.380         66.67	     8.944
  36.400         85.83	    10.149
  36.420         89.17	    10.344
  36.440         84.17	    10.050
  36.460         97.50	    10.817
  36.480         68.33	     9.055
  36.500         62.50	     8.660
  36.520         74.17	     9.434
  36.540         65.00	     8.832
  36.560         72.50	     9.327
  36.580         77.50	     9.644
  36.600         57.50	     8.307
  36.620         60.00	     8.485
  36.640         44.17	     7.280
  36.660         63.33	     8.718
  36.680         45.83	     7.416
  36.700         30.83	     6.083
  36.720         45.00	     7.348
  36.740         51.67	     7.874
  36.760         42.50	     7.141
  36.780         53.33	     8.000
  36.800         35.83	     6.557
  36.820         43.33	     7.211
  36.840         38.33	     6.782
  36.860         39.17	     6.856
  36.880         37.50	     6.708
  36.900         34.17	     6.403
  36.920         38.33	     6.782
  36.940         35.00	     6.481
  36.960         30.83	     6.083
  36.980         34.17	     6.403
  37.000         51.67	     7.874
  37.020         34.17	     6.403
  37.040         37.50	     6.708
  37.060         43.33	     7.211
  37.080         26.67	     5.657
  37.100         47.50	     7.550
  37.120         37.50	     6.708
  37.140         42.50	     7.141
  37.160         40.83	     7.000
  37.180         43.33	     7.211
  37.200         48.33	     7.616
  37.220         45.00	     7.348
  37.240         35.83	     6.557
  37.260         45.83	     7.416
  37.280         42.50	     7.141
  37.300         55.83	     8.185
  37.320         47.50	     7.550
  37.340         50.00	     7.746
  37.360         57.50	     8.307
  37.380         45.83	     7.416
  37.400         54.17	     8.062
  37.420         53.33	     8.000
  37.440         46.67	     7.483
  37.460         45.83	     7.416
  37.480         53.33	     8.000
  37.500         59.17	     8.426
  37.520         50.00	     7.746
  37.540         54.17	     8.062
  37.560         55.83	     8.185
  37.580         53.33	     8.000
  37.600         40.00	     6.928
  37.620         55.00	     8.124
  37.640         57.50	     8.307
  37.660         48.33	     7.616
  37.680         40.83	     7.000
  37.700         35.00	     6.481
  37.720         40.83	     7.000
  37.740         42.50	     7.141
  37.760         27.50	     5.745
  37.780         35.00	     6.481
  37.800         23.33	     5.292
  37.820         32.50	     6.245
  37.840         35.00	     6.481
  37.860         31.67	     6.164
  37.880         33.33	     6.325
  37.900         23.33	     5.292
  37.920         30.83	     6.083
  37.940         28.33	     5.831
  37.960         16.67	     4.472
  37.980         33.33	     6.325
  38.000         27.50	     5.745
  38.020         35.00	     6.481
  38.040         28.33	     5.831
  38.060         19.17	     4.796
  38.080         20.83	     5.000
  38.100         25.83	     5.568
  38.120         25.83	     5.568
  38.140         24.17	     5.385
  38.160         26.67	     5.657
  38.180         29.17	     5.916
  38.200         30.00	     6.000
  38.220         30.00	     6.000
  38.240         24.17	     5.385
  38.260         26.67	     5.657
  38.280         22.50	     5.196
  38.300         35.00	     6.481
  38.320         29.17	     5.916
  38.340         26.67	     5.657
  38.360         25.83	     5.568
  38.380         31.67	     6.164
  38.400         31.67	     6.164
  38.420         28.33	     5.831
  38.440         37.50	     6.708
  38.460         37.50	     6.708
  38.480         28.33	     5.831
  38.500         32.50	     6.245
  38.520         30.00	     6.000
  38.540         30.83	     6.083
  38.560         40.83	     7.000
  38.580         25.00	     5.477
  38.600         30.00	     6.000
  38.620         28.33	     5.831
  38.640         30.00	     6.000
  38.660         35.00	     6.481
  38.680         40.00	     6.928
  38.700         36.67	     6.633
  38.720         47.50	     7.550
  38.740         27.50	     5.745
  38.760         30.00	     6.000
  38.780         39.17	     6.856
  38.800         23.33	     5.292
  38.820         36.67	     6.633
  38.840         30.83	     6.083
  38.860         24.17	     5.385
  38.880         35.83	     6.557
  38.900         22.50	     5.196
  38.920         22.50	     5.196
  38.940         30.83	     6.083
  38.960         26.67	     5.657
  38.980         37.50	     6.708
  39.000         28.33	     5.831
  39.020         33.33	     6.325
  39.040         24.17	     5.385
  39.060         39.17	     6.856
  39.080         40.00	     6.928
  39.100         25.00	     5.477
  39.120         37.50	     6.708
  39.140         31.67	     6.164
  39.160         30.00	     6.000
  39.180         35.00	     6.481
  39.200         34.17	     6.403
  39.220         47.50	     7.550
  39.240         27.50	     5.745
  39.260         39.17	     6.856
  39.280         47.50	     7.550
  39.300         49.17	     7.681
  39.320         50.00	     7.746
  39.340         97.50	    10.817
  39.360         80.00	     9.798
  39.380        104.17	    11.180
  39.400         88.33	    10.296
  39.420         75.00	     9.487
  39.440         77.50	     9.644
  39.460         72.50	     9.327
  39.480         57.50	     8.307
  39.500         66.67	     8.944
  39.520         50.83	     7.810
  39.540         42.50	     7.141
  39.560         40.00	     6.928
  39.580         36.67	     6.633
  39.600         48.33	     7.616
  39.620         42.50	     7.141
  39.640         38.33	     6.782
  39.660         28.33	     5.831
  39.680         35.83	     6.557
  39.700         40.83	     7.000
  39.720         37.50	     6.708
  39.740         40.00	     6.928
  39.760         28.33	     5.831
  39.780         40.83	     7.000
  39.800         49.17	     7.681
  39.820         42.50	     7.141
  39.840         40.83	     7.000
  39.860         40.83	     7.000
  39.880         38.33	     6.782
  39.900         32.50	     6.245
  39.920         30.00	     6.000
  39.940         38.33	     6.782
  39.960         37.50	     6.708
  39.980         49.17	     7.681
  40.000         43.33	     7.211
  40.020         38.33	     6.782
  40.040         31.67	     6.164
  40.060         49.17	     7.681
  40.080         29.17	     5.916
  40.100         30.00	     6.000
  40.120         45.00	     7.348
  40.140         46.67	     7.483
  40.160         38.33	     6.782
  40.180         54.17	     8.062
  40.200         55.83	     8.185
  40.220         47.50	     7.550
  40.240         52.50	     7.937
  40.260         36.67	     6.633
  40.280         45.00	     7.348
  40.300         37.50	     6.708
  40.320         44.17	     7.280
  40.340         35.00	     6.481
  40.360         30.00	     6.000
  40.380         36.67	     6.633
  40.400         31.67	     6.164
  40.420         34.17	     6.403
  40.440         26.67	     5.657
  40.460         34.17	     6.403
  40.480         35.00	     6.481
  40.500         43.33	     7.211
  40.520         27.50	     5.745
  40.540         35.83	     6.557
  40.560         35.83	     6.557
  40.580         47.50	     7.550
  40.600         30.83	     6.083
  40.620         35.00	     6.481
  40.640         40.83	     7.000
  40.660         29.17	     5.916
  40.680         35.83	     6.557
  40.700         35.00	     6.481
  40.720         40.00	     6.928
  40.740         41.67	     7.071
  40.760         30.00	     6.000
  40.780         38.33	     6.782
  40.800         35.00	     6.481
  40.820         35.00	     6.481
  40.840         30.00	     6.000
  40.860         29.17	     5.916
  40.880         50.83	     7.810
  40.900         44.17	     7.280
  40.920         29.17	     5.916
  40.940         38.33	     6.782
  40.960         44.17	     7.280
  40.980         43.33	     7.211
  41.000         30.83	     6.083
  41.020         35.83	     6.557
  41.040         34.17	     6.403
  41.060         35.00	     6.481
  41.080         34.17	     6.403
  41.100         39.17	     6.856
  41.120         39.17	     6.856
  41.140         29.17	     5.916
  41.160         20.83	     5.000
  41.180         31.67	     6.164
  41.200         36.67	     6.633
  41.220         45.00	     7.348
  41.240         37.50	     6.708
  41.260         39.17	     6.856
  41.280         33.33	     6.325
  41.300         35.00	     6.481
  41.320         28.33	     5.831
  41.340         35.83	     6.557
  41.360         38.33	     6.782
  41.380         40.00	     6.928
  41.400         40.83	     7.000
  41.420         44.17	     7.280
  41.440         37.50	     6.708
  41.460         40.00	     6.928
  41.480         51.67	     7.874
  41.500         45.00	     7.348
  41.520         42.50	     7.141
  41.540         52.50	     7.937
  41.560         49.17	     7.681
  41.580         66.67	     8.944
  41.600         98.33	    10.863
  41.620        105.00	    11.225
  41.640        129.17	    12.450
  41.660         99.17	    10.909
  41.680         72.50	     9.327
  41.700         79.17	     9.747
  41.720         75.00	     9.487
  41.740         81.67	     9.899
  41.760         81.67	     9.899
  41.780         73.33	     9.381
  41.800         57.50	     8.307
  41.820         65.00	     8.832
  41.840         59.17	     8.426
  41.860         57.50	     8.307
  41.880         50.83	     7.810
  41.900         46.67	     7.483
  41.920         45.00	     7.348
  41.940         50.00	     7.746
  41.960         56.67	     8.246
  41.980         52.50	     7.937
  42.000         45.00	     7.348
  42.020         35.00	     6.481
  42.040         42.50	     7.141
  42.060         46.67	     7.483
  42.080         35.00	     6.481
  42.100         55.00	     8.124
  42.120         41.67	     7.071
  42.140         35.83	     6.557
  42.160         41.67	     7.071
  42.180         40.00	     6.928
  42.200         55.83	     8.185
  42.220         45.00	     7.348
  42.240         41.67	     7.071
  42.260         54.17	     8.062
  42.280         64.17	     8.775
  42.300         75.00	     9.487
  42.320         66.67	     8.944
  42.340         86.67	    10.198
  42.360         93.33	    10.583
  42.380        105.00	    11.225
  42.400        102.50	    11.091
  42.420         84.17	    10.050
  42.440         65.83	     8.888
  42.460         67.50	     9.000
  42.480         66.67	     8.944
  42.500         49.17	     7.681
  42.520         49.17	     7.681
  42.540         55.00	     8.124
  42.560         50.00	     7.746
  42.580         37.50	     6.708
  42.600         49.17	     7.681
  42.620         32.50	     6.245
  42.640         35.83	     6.557
  42.660         39.17	     6.856
  42.680         40.83	     7.000
  42.700         43.33	     7.211
  42.720         47.50	     7.550
  42.740         30.83	     6.083
  42.760         39.17	     6.856
  42.780         46.67	     7.483
  42.800         37.50	     6.708
  42.820         40.83	     7.000
  42.840         61.67	     8.602
  42.860         53.33	     8.000
  42.880         43.33	     7.211
  42.900         35.83	     6.557
  42.920         45.00	     7.348
  42.940         42.50	     7.141
  42.960         66.67	     8.944
  42.980         60.00	     8.485
  43.000         49.17	     7.681
  43.020         48.33	     7.616
  43.040         31.67	     6.164
  43.060         48.33	     7.616
  43.080         50.83	     7.810
  43.100         47.50	     7.550
  43.120         38.33	     6.782
  43.140         39.17	     6.856
  43.160         51.67	     7.874
  43.180         40.83	     7.000
  43.200         30.83	     6.083
  43.220         42.50	     7.141
  43.240         34.17	     6.403
  43.260         61.67	     8.602
  43.280         45.83	     7.416
  43.300         48.33	     7.616
  43.320         52.50	     7.937
  43.340         63.33	     8.718
  43.360         70.00	     9.165
  43.380         75.00	     9.487
  43.400         67.50	     9.000
  43.420         95.00	    10.677
  43.440         95.00	    10.677
  43.460         80.00	     9.798
  43.480        106.67	    11.314
  43.500         88.33	    10.296
  43.520         84.17	    10.050
  43.540        104.17	    11.180
  43.560         86.67	    10.198
  43.580        100.83	    11.000
  43.600        102.50	    11.091
  43.620        102.50	    11.091
  43.640         80.00	     9.798
  43.660         90.83	    10.440
  43.680        111.67	    11.576
  43.700         89.17	    10.344
  43.720        110.83	    11.533
  43.740         87.50	    10.247
  43.760         91.67	    10.488
  43.780        100.83	    11.000
  43.800         83.33	    10.000
  43.820         81.67	     9.899
  43.840         81.67	     9.899
  43.860         77.50	     9.644
  43.880         73.33	     9.381
  43.900         75.00	     9.487
  43.920         82.50	     9.950
  43.940         75.00	     9.487
  43.960         92.50	    10.536
  43.980         80.00	     9.798
  44.000         90.00	    10.392
  44.020        104.17	    11.180
  44.040         95.00	    10.677
  44.060         82.50	     9.950
  44.080         97.50	    10.817
  44.100        103.33	    11.136
  44.120        123.33	    12.166
  44.140        108.33	    11.402
  44.160        137.50	    12.845
  44.180        130.83	    12.530
  44.200        133.33	    12.649
  44.220        143.33	    13.115
  44.240        138.33	    12.884
  44.260        181.67	    14.765
  44.280        160.00	    13.856
  44.300        176.67	    14.560
  44.320        190.83	    15.133
  44.340        195.83	    15.330
  44.360        216.67	    16.125
  44.380        229.17	    16.583
  44.400        244.17	    17.117
  44.420        246.67	    17.205
  44.440        255.83	    17.521
  44.460        255.00	    17.493
  44.480        243.33	    17.088
  44.500        213.33	    16.000
  44.520        239.17	    16.941
  44.540        268.33	    17.944
  44.560        220.00	    16.248
  44.580        225.83	    16.462
  44.600        206.67	    15.748
  44.620        181.67	    14.765
  44.640        190.00	    15.100
  44.660        165.83	    14.107
  44.680        187.50	    15.000
  44.700        156.67	    13.711
  44.720        152.50	    13.528
  44.740        140.83	    13.000
  44.760        129.17	    12.450
  44.780        112.50	    11.619
  44.800        111.67	    11.576
  44.820        104.17	    11.180
  44.840         89.17	    10.344
  44.860        104.17	    11.180
  44.880         99.17	    10.909
  44.900         90.83	    10.440
  44.920         81.67	     9.899
  44.940         95.00	    10.677
  44.960         72.50	     9.327
  44.980         71.67	     9.274
  45.000         88.33	    10.296
  45.020         68.33	     9.055
  45.040         78.33	     9.695
  45.060         75.00	     9.487
  45.080         52.50	     7.937
  45.100         70.00	     9.165
  45.120         64.17	     8.775
  45.140         56.67	     8.246
  45.160         69.17	     9.110
  45.180         55.83	     8.185
  45.200         55.83	     8.185
  45.220         45.83	     7.416
  45.240         64.17	     8.775
  45.260         51.67	     7.874
  45.280         55.00	     8.124
  45.300         55.00	     8.124
  45.320         51.67	     7.874
  45.340         48.33	     7.616
  45.360         51.67	     7.874
  45.380         51.67	     7.874
  45.400         60.83	     8.544
  45.420         59.17	     8.426
  45.440         58.33	     8.367
  45.460         49.17	     7.681
  45.480         55.83	     8.185
  45.500         63.33	     8.718
  45.520         59.17	     8.426
  45.540         64.17	     8.775
  45.560         52.50	     7.937
  45.580         63.33	     8.718
  45.600         61.67	     8.602
  45.620         57.50	     8.307
  45.640         63.33	     8.718
  45.660         60.83	     8.544
  45.680         81.67	     9.899
  45.700         81.67	     9.899
  45.720         66.67	     8.944
  45.740         44.17	     7.280
  45.760         58.33	     8.367
  45.780         54.17	     8.062
  45.800         58.33	     8.367
  45.820         47.50	     7.550
  45.840         45.00	     7.348
  45.860         46.67	     7.483
  45.880         52.50	     7.937
  45.900         33.33	     6.325
  45.920         41.67	     7.071
  45.940         42.50	     7.141
  45.960         38.33	     6.782
  45.980         29.17	     5.916
  46.000         30.83	     6.083
  46.020         30.83	     6.083
  46.040         32.50	     6.245
  46.060         27.50	     5.745
  46.080         37.50	     6.708
  46.100         30.00	     6.000
  46.120         28.33	     5.831
  46.140         25.00	     5.477
  46.160         38.33	     6.782
  46.180         33.33	     6.325
  46.200         33.33	     6.325
  46.220         29.17	     5.916
  46.240         30.00	     6.000
  46.260         25.83	     5.568
  46.280         25.83	     5.568
  46.300         25.00	     5.477
  46.320         34.17	     6.403
  46.340         27.50	     5.745
  46.360         18.33	     4.690
  46.380         27.50	     5.745
  46.400         36.67	     6.633
  46.420         28.33	     5.831
  46.440         32.50	     6.245
  46.460         29.17	     5.916
  46.480         28.33	     5.831
  46.500         31.67	     6.164
  46.520         32.50	     6.245
  46.540         27.50	     5.745
  46.560         30.83	     6.083
  46.580         26.67	     5.657
  46.600         25.00	     5.477
  46.620         28.33	     5.831
  46.640         26.67	     5.657
  46.660         28.33	     5.831
  46.680         18.33	     4.690
  46.700         28.33	     5.831
  46.720         31.67	     6.164
  46.740         27.50	     5.745
  46.760         28.33	     5.831
  46.780         25.83	     5.568
  46.800         22.50	     5.196
  46.820         32.50	     6.245
  46.840         39.17	     6.856
  46.860         21.67	     5.099
  46.880         22.50	     5.196
  46.900         21.67	     5.099
  46.920         28.33	     5.831
  46.940         20.83	     5.000
  46.960         31.67	     6.164
  46.980         30.83	     6.083
  47.000         30.83	     6.083
  47.020         32.50	     6.245
  47.040         30.00	     6.000
  47.060         35.00	     6.481
  47.080         38.33	     6.782
  47.100         29.17	     5.916
  47.120         29.17	     5.916
  47.140         29.17	     5.916
  47.160         21.67	     5.099
  47.180         17.50	     4.583
  47.200         26.67	     5.657
  47.220         28.33	     5.831
  47.240         26.67	     5.657
  47.260         25.83	     5.568
  47.280         30.00	     6.000
  47.300         26.67	     5.657
  47.320         18.33	     4.690
  47.340         24.17	     5.385
  47.360         19.17	     4.796
  47.380         25.83	     5.568
  47.400         24.17	     5.385
  47.420         29.17	     5.916
  47.440         27.50	     5.745
  47.460         21.67	     5.099
  47.480         27.50	     5.745
  47.500         29.17	     5.916
  47.520         25.00	     5.477
  47.540         20.83	     5.000
  47.560         25.00	     5.477
  47.580         27.50	     5.745
  47.600         27.50	     5.745
  47.620         20.83	     5.000
  47.640         20.83	     5.000
  47.660         25.00	     5.477
  47.680         35.83	     6.557
  47.700         24.17	     5.385
  47.720         25.83	     5.568
  47.740         27.50	     5.745
  47.760         30.00	     6.000
  47.780         24.17	     5.385
  47.800         25.00	     5.477
  47.820         30.00	     6.000
  47.840         20.00	     4.899
  47.860         30.83	     6.083
  47.880         29.17	     5.916
  47.900         24.17	     5.385
  47.920         30.83	     6.083
  47.940         23.33	     5.292
  47.960         34.17	     6.403
  47.980         20.00	     4.899
  48.000         25.00	     5.477
  48.020         36.67	     6.633
  48.040         30.83	     6.083
  48.060         31.67	     6.164
  48.080         25.83	     5.568
  48.100         25.00	     5.477
  48.120         40.00	     6.928
  48.140         28.33	     5.831
  48.160         33.33	     6.325
  48.180         28.33	     5.831
  48.200         34.17	     6.403
  48.220         30.00	     6.000
  48.240         30.00	     6.000
  48.260         33.33	     6.325
  48.280         27.50	     5.745
  48.300         30.00	     6.000
  48.320         30.83	     6.083
  48.340         35.83	     6.557
  48.360         39.17	     6.856
  48.380         27.50	     5.745
  48.400         30.00	     6.000
  48.420         20.00	     4.899
  48.440         30.00	     6.000
  48.460         29.17	     5.916
  48.480         23.33	     5.292
  48.500         38.33	     6.782
  48.520         24.17	     5.385
  48.540         34.17	     6.403
  48.560         30.83	     6.083
  48.580         28.33	     5.831
  48.600         32.50	     6.245
  48.620         24.17	     5.385
  48.640         20.83	     5.000
  48.660         32.50	     6.245
  48.680         28.33	     5.831
  48.700         35.00	     6.481
  48.720         26.67	     5.657
  48.740         15.83	     4.359
  48.760         22.50	     5.196
  48.780         26.67	     5.657
  48.800         20.83	     5.000
  48.820         31.67	     6.164
  48.840         28.33	     5.831
  48.860         26.67	     5.657
  48.880         25.83	     5.568
  48.900         24.17	     5.385
  48.920         29.17	     5.916
  48.940         30.83	     6.083
  48.960         30.00	     6.000
  48.980         21.67	     5.099
  49.000         31.67	     6.164
  49.020         30.83	     6.083
  49.040         25.00	     5.477
  49.060         27.50	     5.745
  49.080         24.17	     5.385
  49.100         29.17	     5.916
  49.120         30.00	     6.000
  49.140         30.00	     6.000
  49.160         40.83	     7.000
  49.180         32.50	     6.245
  49.200         26.67	     5.657
  49.220         29.17	     5.916
  49.240         29.17	     5.916
  49.260         38.33	     6.782
  49.280         27.50	     5.745
  49.300         27.50	     5.745
  49.320         35.83	     6.557
  49.340         38.33	     6.782
  49.360         36.67	     6.633
  49.380         37.50	     6.708
  49.400         29.17	     5.916
  49.420         33.33	     6.325
  49.440         40.83	     7.000
  49.460         37.50	     6.708
  49.480         49.17	     7.681
  49.500         29.17	     5.916
  49.520         45.83	     7.416
  49.540         39.17	     6.856
  49.560         36.67	     6.633
  49.580         36.67	     6.633
  49.600         33.33	     6.325
  49.620         45.00	     7.348
  49.640         65.00	     8.832
  49.660         62.50	     8.660
  49.680         43.33	     7.211
  49.700         49.17	     7.681
  49.720         47.50	     7.550
  49.740         65.83	     8.888
  49.760         68.33	     9.055
  49.780         56.67	     8.246
  49.800         57.50	     8.307
  49.820         50.83	     7.810
  49.840         61.67	     8.602
  49.860         60.00	     8.485
  49.880         54.17	     8.062
  49.900         67.50	     9.000
  49.920         66.67	     8.944
  49.940         65.00	     8.832
  49.960         59.17	     8.426
  49.980         71.67	     9.274
  50.000         80.83	     9.849
  50.020        102.50	    11.091
  50.040        113.33	    11.662
  50.060        130.00	    12.490
  50.080         99.17	    10.909
  50.100         70.83	     9.220
  50.120         70.00	     9.165
  50.140         57.50	     8.307
  50.160         84.17	    10.050
  50.180         62.50	     8.660
  50.200         85.83	    10.149
  50.220         64.17	     8.775
  50.240         65.00	     8.832
  50.260         40.00	     6.928
  50.280         38.33	     6.782
  50.300         42.50	     7.141
  50.320         33.33	     6.325
  50.340         36.67	     6.633
  50.360         46.67	     7.483
  50.380         43.33	     7.211
  50.400         42.50	     7.141
  50.420         45.00	     7.348
  50.440         50.83	     7.810
  50.460         31.67	     6.164
  50.480         60.00	     8.485
  50.500         58.33	     8.367
  50.520         65.00	     8.832
  50.540         70.00	     9.165
  50.560         61.67	     8.602
  50.580         61.67	     8.602
  50.600         59.17	     8.426
  50.620         52.50	     7.937
  50.640         55.00	     8.124
  50.660         45.83	     7.416
  50.680         55.00	     8.124
  50.700         56.67	     8.246
  50.720         40.00	     6.928
  50.740         37.50	     6.708
  50.760         41.67	     7.071
  50.780         44.17	     7.280
  50.800         30.00	     6.000
  50.820         30.00	     6.000
  50.840         33.33	     6.325
  50.860         35.00	     6.481
  50.880         25.83	     5.568
  50.900         32.50	     6.245
  50.920         40.00	     6.928
  50.940         33.33	     6.325
  50.960         25.00	     5.477
  50.980         33.33	     6.325
  51.000         29.17	     5.916
  51.020         35.83	     6.557
  51.040         44.17	     7.280
  51.060         55.83	     8.185
  51.080         42.50	     7.141
  51.100         41.67	     7.071
  51.120         40.00	     6.928
  51.140         35.00	     6.481
  51.160         42.50	     7.141
  51.180         35.00	     6.481
  51.200         40.00	     6.928
  51.220         35.83	     6.557
  51.240         34.17	     6.403
  51.260         28.33	     5.831
  51.280         31.67	     6.164
  51.300         33.33	     6.325
  51.320         19.17	     4.796
  51.340         21.67	     5.099
  51.360         20.00	     4.899
  51.380         27.50	     5.745
  51.400         35.00	     6.481
  51.420         25.00	     5.477
  51.440         25.00	     5.477
  51.460         24.17	     5.385
  51.480         25.00	     5.477
  51.500         25.83	     5.568
  51.520         13.33	     4.000
  51.540         20.83	     5.000
  51.560         23.33	     5.292
  51.580         26.67	     5.657
  51.600         26.67	     5.657
  51.620         28.33	     5.831
  51.640         20.00	     4.899
  51.660         23.33	     5.292
  51.680         17.50	     4.583
  51.700         19.17	     4.796
  51.720         22.50	     5.196
  51.740         24.17	     5.385
  51.760         22.50	     5.196
  51.780         22.50	     5.196
  51.800         18.33	     4.690
  51.820         16.67	     4.472
  51.840         25.83	     5.568
  51.860         25.00	     5.477
  51.880         24.17	     5.385
  51.900         26.67	     5.657
  51.920         37.50	     6.708
  51.940         36.67	     6.633
  51.960         20.00	     4.899
  51.980         32.50	     6.245
  52.000         27.50	     5.745
  52.020         30.83	     6.083
  52.040         35.00	     6.481
  52.060         29.17	     5.916
  52.080         32.50	     6.245
  52.100         28.33	     5.831
  52.120         35.00	     6.481
  52.140         28.33	     5.831
  52.160         23.33	     5.292
  52.180         28.33	     5.831
  52.200         25.00	     5.477
  52.220         30.83	     6.083
  52.240         28.33	     5.831
  52.260         30.00	     6.000
  52.280         29.17	     5.916
  52.300         25.00	     5.477
  52.320         33.33	     6.325
  52.340         35.00	     6.481
  52.360         35.83	     6.557
  52.380         35.83	     6.557
  52.400         31.67	     6.164
  52.420         34.17	     6.403
  52.440         33.33	     6.325
  52.460         30.83	     6.083
  52.480         27.50	     5.745
  52.500         35.83	     6.557
  52.520         18.33	     4.690
  52.540         36.67	     6.633
  52.560         30.83	     6.083
  52.580         21.67	     5.099
  52.600         30.83	     6.083
  52.620         32.50	     6.245
  52.640         27.50	     5.745
  52.660         27.50	     5.745
  52.680         21.67	     5.099
  52.700         34.17	     6.403
  52.720         22.50	     5.196
  52.740         31.67	     6.164
  52.760         28.33	     5.831
  52.780         26.67	     5.657
  52.800         23.33	     5.292
  52.820         29.17	     5.916
  52.840         30.00	     6.000
  52.860         28.33	     5.831
  52.880         30.00	     6.000
  52.900         30.83	     6.083
  52.920         36.67	     6.633
  52.940         28.33	     5.831
  52.960         25.00	     5.477
  52.980         32.50	     6.245
  53.000         33.33	     6.325
  53.020         37.50	     6.708
  53.040         32.50	     6.245
  53.060         22.50	     5.196
  53.080         37.50	     6.708
  53.100         38.33	     6.782
  53.120         55.00	     8.124
  53.140         47.50	     7.550
  53.160         44.17	     7.280
  53.180         30.83	     6.083
  53.200         35.83	     6.557
  53.220         44.17	     7.280
  53.240         34.17	     6.403
  53.260         44.17	     7.280
  53.280         30.83	     6.083
  53.300         30.83	     6.083
  53.320         23.33	     5.292
  53.340         29.17	     5.916
  53.360         30.83	     6.083
  53.380         34.17	     6.403
  53.400         29.17	     5.916
  53.420         24.17	     5.385
  53.440         28.33	     5.831
  53.460         26.67	     5.657
  53.480         20.00	     4.899
  53.500         33.33	     6.325
  53.520         25.00	     5.477
  53.540         29.17	     5.916
  53.560         19.17	     4.796
  53.580         30.00	     6.000
  53.600         27.50	     5.745
  53.620         26.67	     5.657
  53.640         21.67	     5.099
  53.660         26.67	     5.657
  53.680         24.17	     5.385
  53.700         31.67	     6.164
  53.720         22.50	     5.196
  53.740         32.50	     6.245
  53.760         31.67	     6.164
  53.780         22.50	     5.196
  53.800         32.50	     6.245
  53.820         29.17	     5.916
  53.840         30.83	     6.083
  53.860         26.67	     5.657
  53.880         27.50	     5.745
  53.900         28.33	     5.831
  53.920         24.17	     5.385
  53.940         22.50	     5.196
  53.960         30.00	     6.000
  53.980         27.50	     5.745
  54.000         27.50	     5.745
  54.020         31.67	     6.164
  54.040         30.00	     6.000
  54.060         37.50	     6.708
  54.080         38.33	     6.782
  54.100         32.50	     6.245
  54.120         34.17	     6.403
  54.140         34.17	     6.403
  54.160         45.83	     7.416
  54.180         40.83	     7.000
  54.200         52.50	     7.937
  54.220         36.67	     6.633
  54.240         44.17	     7.280
  54.260         40.00	     6.928
  54.280         36.67	     6.633
  54.300         32.50	     6.245
  54.320         40.83	     7.000
  54.340         38.33	     6.782
  54.360         48.33	     7.616
  54.380         49.17	     7.681
  54.400         37.50	     6.708
  54.420         27.50	     5.745
  54.440         30.83	     6.083
  54.460         30.83	     6.083
  54.480         27.50	     5.745
  54.500         30.00	     6.000
  54.520         32.50	     6.245
  54.540         36.67	     6.633
  54.560         41.67	     7.071
  54.580         35.00	     6.481
  54.600         33.33	     6.325
  54.620         33.33	     6.325
  54.640         36.67	     6.633
  54.660         36.67	     6.633
  54.680         35.00	     6.481
  54.700         34.17	     6.403
  54.720         53.33	     8.000
  54.740         47.50	     7.550
  54.760         58.33	     8.367
  54.780         74.17	     9.434
  54.800         68.33	     9.055
  54.820         51.67	     7.874
  54.840         40.00	     6.928
  54.860         47.50	     7.550
  54.880         36.67	     6.633
  54.900         37.50	     6.708
  54.920         50.83	     7.810
  54.940         55.00	     8.124
  54.960         44.17	     7.280
  54.980         40.00	     6.928
  55.000         32.50	     6.245
  55.020         25.83	     5.568
  55.040         30.00	     6.000
  55.060         32.50	     6.245
  55.080         36.67	     6.633
  55.100         35.00	     6.481
  55.120         31.67	     6.164
  55.140         31.67	     6.164
  55.160         40.00	     6.928
  55.180         43.33	     7.211
  55.200         54.17	     8.062
  55.220         46.67	     7.483
  55.240         41.67	     7.071
  55.260         55.00	     8.124
  55.280         35.00	     6.481
  55.300         40.83	     7.000
  55.320         36.67	     6.633
  55.340         40.00	     6.928
  55.360         35.00	     6.481
  55.380         43.33	     7.211
  55.400         32.50	     6.245
  55.420         35.83	     6.557
  55.440         40.00	     6.928
  55.460         39.17	     6.856
  55.480         34.17	     6.403
  55.500         25.83	     5.568
  55.520         25.83	     5.568
  55.540         42.50	     7.141
  55.560         33.33	     6.325
  55.580         36.67	     6.633
  55.600         39.17	     6.856
  55.620         30.83	     6.083
  55.640         40.83	     7.000
  55.660         50.00	     7.746
  55.680         39.17	     6.856
  55.700         40.00	     6.928
  55.720         50.83	     7.810
  55.740         58.33	     8.367
  55.760         50.00	     7.746
  55.780         45.83	     7.416
  55.800         44.17	     7.280
  55.820         37.50	     6.708
  55.840         38.33	     6.782
  55.860         47.50	     7.550
  55.880         52.50	     7.937
  55.900         34.17	     6.403
  55.920         43.33	     7.211
  55.940         32.50	     6.245
  55.960         29.17	     5.916
  55.980         27.50	     5.745
  56.000         31.67	     6.164
  56.020         33.33	     6.325
  56.040         30.00	     6.000
  56.060         23.33	     5.292
  56.080         30.83	     6.083
  56.100         35.00	     6.481
  56.120         41.67	     7.071
  56.140         37.50	     6.708
  56.160         30.00	     6.000
  56.180         27.50	     5.745
  56.200         28.33	     5.831
  56.220         39.17	     6.856
  56.240         35.00	     6.481
  56.260         32.50	     6.245
  56.280         33.33	     6.325
  56.300         29.17	     5.916
  56.320         25.83	     5.568
  56.340         27.50	     5.745
  56.360         20.00	     4.899
  56.380         25.83	     5.568
  56.400         22.50	     5.196
  56.420         28.33	     5.831
  56.440         28.33	     5.831
  56.460         24.17	     5.385
  56.480         26.67	     5.657
  56.500         30.83	     6.083
  56.520         30.83	     6.083
  56.540         35.00	     6.481
  56.560         30.83	     6.083
  56.580         34.17	     6.403
  56.600         30.00	     6.000
  56.620         40.83	     7.000
  56.640         51.67	     7.874
  56.660         43.33	     7.211
  56.680         38.33	     6.782
  56.700         35.00	     6.481
  56.720         38.33	     6.782
  56.740         41.67	     7.071
  56.760         25.00	     5.477
  56.780         25.00	     5.477
  56.800         47.50	     7.550
  56.820         33.33	     6.325
  56.840         27.50	     5.745
  56.860         26.67	     5.657
  56.880         31.67	     6.164
  56.900         32.50	     6.245
  56.920         31.67	     6.164
  56.940         38.33	     6.782
  56.960         26.67	     5.657
  56.980         28.33	     5.831
  57.000         23.33	     5.292
  57.020         28.33	     5.831
  57.040         29.17	     5.916
  57.060         33.33	     6.325
  57.080         23.33	     5.292
  57.100         26.67	     5.657
  57.120         31.67	     6.164
  57.140         33.33	     6.325
  57.160         28.33	     5.831
  57.180         33.33	     6.325
  57.200         18.33	     4.690
  57.220         28.33	     5.831
  57.240         30.83	     6.083
  57.260         25.83	     5.568
  57.280         31.67	     6.164
  57.300         30.83	     6.083
  57.320         25.00	     5.477
  57.340         29.17	     5.916
  57.360         30.83	     6.083
  57.380         24.17	     5.385
  57.400         24.17	     5.385
  57.420         29.17	     5.916
  57.440         32.50	     6.245
  57.460         30.83	     6.083
  57.480         29.17	     5.916
  57.500         30.00	     6.000
  57.520         28.33	     5.831
  57.540         27.50	     5.745
  57.560         40.83	     7.000
  57.580         39.17	     6.856
  57.600         30.00	     6.000
  57.620         34.17	     6.403
  57.640         27.50	     5.745
  57.660         25.00	     5.477
  57.680         25.83	     5.568
  57.700         25.83	     5.568
  57.720         30.00	     6.000
  57.740         32.50	     6.245
  57.760         28.33	     5.831
  57.780         23.33	     5.292
  57.800         32.50	     6.245
  57.820         25.83	     5.568
  57.840         29.17	     5.916
  57.860         26.67	     5.657
  57.880         28.33	     5.831
  57.900         24.17	     5.385
  57.920         27.50	     5.745
  57.940         27.50	     5.745
  57.960         25.00	     5.477
  57.980         23.33	     5.292
  58.000         22.50	     5.196
  58.020         20.83	     5.000
  58.040         30.00	     6.000
  58.060         29.17	     5.916
  58.080         27.50	     5.745
  58.100         25.00	     5.477
  58.120         37.50	     6.708
  58.140         23.33	     5.292
  58.160         30.83	     6.083
  58.180         31.67	     6.164
  58.200         18.33	     4.690
  58.220         30.83	     6.083
  58.240         29.17	     5.916
  58.260         29.17	     5.916
  58.280         24.17	     5.385
  58.300         23.33	     5.292
  58.320         25.83	     5.568
  58.340         25.83	     5.568
  58.360         24.17	     5.385
  58.380         26.67	     5.657
  58.400         30.00	     6.000
  58.420         28.33	     5.831
  58.440         43.33	     7.211
  58.460         88.33	    10.296
  58.480        171.67	    14.353
  58.500        148.33	    13.342
  58.520         70.83	     9.220
  58.540         42.50	     7.141
  58.560         40.83	     7.000
  58.580         37.50	     6.708
  58.600         35.83	     6.557
  58.620         75.83	     9.539
  58.640        103.33	    11.136
  58.660         71.67	     9.274
  58.680         42.50	     7.141
  58.700         31.67	     6.164
  58.720         45.83	     7.416
  58.740         29.17	     5.916
  58.760         24.17	     5.385
  58.780         28.33	     5.831
  58.800         28.33	     5.831
  58.820         30.00	     6.000
  58.840         30.00	     6.000
  58.860         35.00	     6.481
  58.880         32.50	     6.245
  58.900         33.33	     6.325
  58.920         39.17	     6.856
  58.940         35.00	     6.481
  58.960         45.00	     7.348
  58.980         40.00	     6.928
  59.000         32.50	     6.245
  59.020         34.17	     6.403
  59.040         37.50	     6.708
  59.060         35.83	     6.557
  59.080         44.17	     7.280
  59.100         43.33	     7.211
  59.120         48.33	     7.616
  59.140         40.83	     7.000
  59.160         38.33	     6.782
  59.180         28.33	     5.831
  59.200         35.83	     6.557
  59.220         43.33	     7.211
  59.240         38.33	     6.782
  59.260         35.83	     6.557
  59.280         25.83	     5.568
  59.300         30.83	     6.083
  59.320         35.00	     6.481
  59.340         39.17	     6.856
  59.360         34.17	     6.403
  59.380         28.33	     5.831
  59.400         29.17	     5.916
  59.420         30.83	     6.083
  59.440         30.83	     6.083
  59.460         29.17	     5.916
  59.480         28.33	     5.831
  59.500         31.67	     6.164
  59.520         25.83	     5.568
  59.540         27.50	     5.745
  59.560         38.33	     6.782
  59.580         40.00	     6.928
  59.600         51.67	     7.874
  59.620         25.83	     5.568
  59.640         50.83	     7.810
  59.660         35.00	     6.481
  59.680         49.17	     7.681
  59.700         37.50	     6.708
  59.720         65.83	     8.888
  59.740         79.17	     9.747
  59.760         92.50	    10.536
  59.780         94.17	    10.630
  59.800         91.67	    10.488
  59.820        111.67	    11.576
  59.840        119.17	    11.958
  59.860        145.83	    13.229
  59.880        163.33	    14.000
  59.900        151.67	    13.491
  59.920        140.00	    12.961
  59.940        111.67	    11.576
  59.960         78.33	     9.695
  59.980         81.67	     9.899
  60.000         98.33	    10.863
  60.020         90.83	    10.440
  60.040        116.67	    11.832
  60.060        102.50	    11.091
  60.080         75.00	     9.487
  60.100         57.50	     8.307
  60.120         56.67	     8.246
  60.140         47.50	     7.550
  60.160         45.83	     7.416
  60.180         46.67	     7.483
  60.200         45.83	     7.416
  60.220         32.50	     6.245
  60.240         50.83	     7.810
  60.260         41.67	     7.071
  60.280         41.67	     7.071
  60.300         41.67	     7.071
  60.320         25.00	     5.477
  60.340         48.33	     7.616
  60.360         36.67	     6.633
  60.380         40.00	     6.928
  60.400         38.33	     6.782
  60.420         42.50	     7.141
  60.440         45.83	     7.416
  60.460         50.00	     7.746
  60.480         37.50	     6.708
  60.500         39.17	     6.856
  60.520         41.67	     7.071
  60.540         37.50	     6.708
  60.560         30.00	     6.000
  60.580         54.17	     8.062
  60.600         36.67	     6.633
  60.620         58.33	     8.367
  60.640         41.67	     7.071
  60.660         45.00	     7.348
  60.680         39.17	     6.856
  60.700         34.17	     6.403
  60.720         47.50	     7.550
  60.740         45.83	     7.416
  60.760         51.67	     7.874
  60.780         60.00	     8.485
  60.800         35.83	     6.557
  60.820         55.83	     8.185
  60.840         52.50	     7.937
  60.860         41.67	     7.071
  60.880         40.00	     6.928
  60.900         55.83	     8.185
  60.920         39.17	     6.856
  60.940         38.33	     6.782
  60.960         32.50	     6.245
  60.980         40.83	     7.000
  61.000         42.50	     7.141
  61.020         34.17	     6.403
  61.040         37.50	     6.708
  61.060         48.33	     7.616
  61.080         34.17	     6.403
  61.100         40.00	     6.928
  61.120         44.17	     7.280
  61.140         45.00	     7.348
  61.160         30.83	     6.083
  61.180         30.00	     6.000
  61.200         51.67	     7.874
  61.220         39.17	     6.856
  61.240         44.17	     7.280
  61.260         53.33	     8.000
  61.280         53.33	     8.000
  61.300         60.83	     8.544
  61.320         49.17	     7.681
  61.340         53.33	     8.000
  61.360         44.17	     7.280
  61.380         59.17	     8.426
  61.400         65.83	     8.888
  61.420         50.83	     7.810
  61.440         64.17	     8.775
  61.460         43.33	     7.211
  61.480         73.33	     9.381
  61.500         50.83	     7.810
  61.520         49.17	     7.681
  61.540         40.83	     7.000
  61.560         50.00	     7.746
  61.580         40.83	     7.000
  61.600         51.67	     7.874
  61.620         59.17	     8.426
  61.640         35.83	     6.557
  61.660         37.50	     6.708
  61.680         45.83	     7.416
  61.700         46.67	     7.483
  61.720         35.00	     6.481
  61.740         33.33	     6.325
  61.760         45.00	     7.348
  61.780         30.00	     6.000
  61.800         40.83	     7.000
  61.820         30.83	     6.083
  61.840         30.83	     6.083
  61.860         30.83	     6.083
  61.880         29.17	     5.916
  61.900         25.00	     5.477
  61.920         29.17	     5.916
  61.940         34.17	     6.403
  61.960         34.17	     6.403
  61.980         32.50	     6.245
  62.000         27.50	     5.745
  62.020         31.67	     6.164
  62.040         23.33	     5.292
  62.060         25.83	     5.568
  62.080         36.67	     6.633
  62.100         33.33	     6.325
  62.120         39.17	     6.856
  62.140         22.50	     5.196
  62.160         23.33	     5.292
  62.180         25.00	     5.477
  62.200         22.50	     5.196
  62.220         34.17	     6.403
  62.240         26.67	     5.657
  62.260         30.83	     6.083
  62.280         27.50	     5.745
  62.300         22.50	     5.196
  62.320         22.50	     5.196
  62.340         25.83	     5.568
  62.360         25.83	     5.568
  62.380         21.67	     5.099
  62.400         24.17	     5.385
  62.420         27.50	     5.745
  62.440         22.50	     5.196
  62.460         21.67	     5.099
  62.480         30.00	     6.000
  62.500         29.17	     5.916
  62.520         35.83	     6.557
  62.540         35.00	     6.481
  62.560         40.00	     6.928
  62.580         26.67	     5.657
  62.600         29.17	     5.916
  62.620         37.50	     6.708
  62.640         22.50	     5.196
  62.660         19.17	     4.796
  62.680         25.83	     5.568
  62.700         21.67	     5.099
  62.720         24.17	     5.385
  62.740         30.00	     6.000
  62.760         35.00	     6.481
  62.780         26.67	     5.657
  62.800         20.00	     4.899
  62.820         23.33	     5.292
  62.840         30.00	     6.000
  62.860         24.17	     5.385
  62.880         26.67	     5.657
  62.900         27.50	     5.745
  62.920         20.00	     4.899
  62.940         23.33	     5.292
  62.960         28.33	     5.831
  62.980         31.67	     6.164
  63.000         21.67	     5.099
  63.020         23.33	     5.292
  63.040         17.50	     4.583
  63.060         19.17	     4.796
  63.080         26.67	     5.657
  63.100         29.17	     5.916
  63.120         24.17	     5.385
  63.140         30.00	     6.000
  63.160         20.83	     5.000
  63.180         30.00	     6.000
  63.200         35.83	     6.557
  63.220         27.50	     5.745
  63.240         31.67	     6.164
  63.260         29.17	     5.916
  63.280         35.83	     6.557
  63.300         35.83	     6.557
  63.320         40.83	     7.000
  63.340         26.67	     5.657
  63.360         32.50	     6.245
  63.380         37.50	     6.708
  63.400         25.83	     5.568
  63.420         25.00	     5.477
  63.440         35.83	     6.557
  63.460         32.50	     6.245
  63.480         30.00	     6.000
  63.500         39.17	     6.856
  63.520         40.83	     7.000
  63.540         22.50	     5.196
  63.560         39.17	     6.856
  63.580         48.33	     7.616
  63.600         40.83	     7.000
  63.620         34.17	     6.403
  63.640         33.33	     6.325
  63.660         39.17	     6.856
  63.680         40.00	     6.928
  63.700         45.00	     7.348
  63.720         33.33	     6.325
  63.740         30.00	     6.000
  63.760         35.83	     6.557
  63.780         36.67	     6.633
  63.800         36.67	     6.633
  63.820         36.67	     6.633
  63.840         34.17	     6.403
  63.860         33.33	     6.325
  63.880         34.17	     6.403
  63.900         38.33	     6.782
  63.920         48.33	     7.616
  63.940         48.33	     7.616
  63.960         47.50	     7.550
  63.980         54.17	     8.062
  64.000         48.33	     7.616
  64.020         45.83	     7.416
  64.040         35.00	     6.481
  64.060         48.33	     7.616
  64.080         39.17	     6.856
  64.100         38.33	     6.782
  64.120         30.83	     6.083
  64.140         59.17	     8.426
  64.160         49.17	     7.681
  64.180         33.33	     6.325
  64.200         43.33	     7.211
  64.220         33.33	     6.325
  64.240         24.17	     5.385
  64.260         43.33	     7.211
  64.280         29.17	     5.916
  64.300         35.00	     6.481
  64.320         32.50	     6.245
  64.340         35.83	     6.557
  64.360         29.17	     5.916
  64.380         24.17	     5.385
  64.400         23.33	     5.292
  64.420         35.00	     6.481
  64.440         33.33	     6.325
  64.460         25.83	     5.568
  64.480         20.83	     5.000
  64.500         29.17	     5.916
  64.520         24.17	     5.385
  64.540         37.50	     6.708
  64.560         39.17	     6.856
  64.580         23.33	     5.292
  64.600         30.83	     6.083
  64.620         25.83	     5.568
  64.640         29.17	     5.916
  64.660         35.00	     6.481
  64.680         21.67	     5.099
  64.700         30.00	     6.000
  64.720         38.33	     6.782
  64.740         32.50	     6.245
  64.760         36.67	     6.633
  64.780         22.50	     5.196
  64.800         30.83	     6.083
  64.820         31.67	     6.164
  64.840         25.83	     5.568
  64.860         29.17	     5.916
  64.880         35.00	     6.481
  64.900         30.83	     6.083
  64.920         40.00	     6.928
  64.940         35.00	     6.481
  64.960         24.17	     5.385
  64.980         34.17	     6.403
  65.000         25.83	     5.568
