
Filename:
	C:\Program Files\Thermo Electron\WinXRD\Datafiles\F_HERMAN\GEO\G84_RT.raw

File Created:
	February 21, 2020 - 03:19 AM

Specimen Id:
	G84_RT

Specimen Name:
	

Specimen Description:
	

Comment:
Scan Type: 2Theta Scan
Start Angle: 3 deg.
Stop Angle: 65 deg.
Num Points: 3101
Step Size: 0.02 deg.
Scan Rate: 1.000000
Scan Mode: Continuous
Wavelength: 1.540562
\Kalpha1: 1.540562	\Kalpha2: 1.544390	\Kbeta: 1.392218

Optics:
		Detector:
			 Type: Fixed Slits
		Tube: 
			 Type: Fixed Slits


Datas:
 Pos [deg]       Rate [CPS]      ESD [-]

Range 1 ---> Iteration 1
   3.000        466.67	    23.664
   3.020        461.67	    23.537
   3.040        449.17	    23.216
   3.060        446.67	    23.152
   3.080        433.33	    22.804
   3.100        435.83	    22.869
   3.120        445.00	    23.108
   3.140        476.67	    23.917
   3.160        440.00	    22.978
   3.180        439.17	    22.956
   3.200        420.00	    22.450
   3.220        431.67	    22.760
   3.240        394.17	    21.749
   3.260        400.00	    21.909
   3.280        430.83	    22.738
   3.300        401.67	    21.954
   3.320        360.83	    20.809
   3.340        408.33	    22.136
   3.360        367.50	    21.000
   3.380        392.50	    21.703
   3.400        418.33	    22.405
   3.420        404.17	    22.023
   3.440        403.33	    22.000
   3.460        383.33	    21.448
   3.480        358.33	    20.736
   3.500        381.67	    21.401
   3.520        379.17	    21.331
   3.540        384.17	    21.471
   3.560        387.50	    21.564
   3.580        380.00	    21.354
   3.600        387.50	    21.564
   3.620        359.17	    20.761
   3.640        358.33	    20.736
   3.660        342.50	    20.273
   3.680        370.00	    21.071
   3.700        330.00	    19.900
   3.720        350.83	    20.518
   3.740        338.33	    20.149
   3.760        370.00	    21.071
   3.780        335.00	    20.050
   3.800        380.83	    21.378
   3.820        378.33	    21.307
   3.840        318.33	    19.545
   3.860        362.50	    20.857
   3.880        317.50	    19.519
   3.900        340.00	    20.199
   3.920        310.00	    19.287
   3.940        331.67	    19.950
   3.960        350.00	    20.494
   3.980        336.67	    20.100
   4.000        310.83	    19.313
   4.020        290.83	    18.682
   4.040        331.67	    19.950
   4.060        309.17	    19.261
   4.080        325.00	    19.748
   4.100        317.50	    19.519
   4.120        310.83	    19.313
   4.140        310.00	    19.287
   4.160        305.83	    19.157
   4.180        300.83	    19.000
   4.200        336.67	    20.100
   4.220        307.50	    19.209
   4.240        315.00	    19.442
   4.260        311.67	    19.339
   4.280        300.83	    19.000
   4.300        281.67	    18.385
   4.320        265.83	    17.861
   4.340        292.50	    18.735
   4.360        271.67	    18.055
   4.380        295.00	    18.815
   4.400        270.83	    18.028
   4.420        297.50	    18.894
   4.440        288.33	    18.601
   4.460        300.00	    18.974
   4.480        272.50	    18.083
   4.500        263.33	    17.776
   4.520        247.50	    17.234
   4.540        288.33	    18.601
   4.560        310.00	    19.287
   4.580        265.83	    17.861
   4.600        263.33	    17.776
   4.620        266.67	    17.889
   4.640        267.50	    17.916
   4.660        266.67	    17.889
   4.680        272.50	    18.083
   4.700        260.83	    17.692
   4.720        267.50	    17.916
   4.740        263.33	    17.776
   4.760        240.00	    16.971
   4.780        238.33	    16.912
   4.800        260.83	    17.692
   4.820        254.17	    17.464
   4.840        241.67	    17.029
   4.860        280.83	    18.358
   4.880        234.17	    16.763
   4.900        233.33	    16.733
   4.920        258.33	    17.607
   4.940        247.50	    17.234
   4.960        265.83	    17.861
   4.980        251.67	    17.378
   5.000        300.83	    19.000
   5.020        240.00	    16.971
   5.040        218.33	    16.186
   5.060        235.83	    16.823
   5.080        230.83	    16.643
   5.100        260.83	    17.692
   5.120        210.00	    15.875
   5.140        255.00	    17.493
   5.160        230.83	    16.643
   5.180        222.50	    16.340
   5.200        217.50	    16.155
   5.220        258.33	    17.607
   5.240        248.33	    17.263
   5.260        234.17	    16.763
   5.280        259.17	    17.635
   5.300        228.33	    16.553
   5.320        252.50	    17.407
   5.340        232.50	    16.703
   5.360        235.83	    16.823
   5.380        204.17	    15.652
   5.400        224.17	    16.401
   5.420        225.00	    16.432
   5.440        218.33	    16.186
   5.460        237.50	    16.882
   5.480        224.17	    16.401
   5.500        238.33	    16.912
   5.520        238.33	    16.912
   5.540        214.17	    16.031
   5.560        210.83	    15.906
   5.580        253.33	    17.436
   5.600        223.33	    16.371
   5.620        228.33	    16.553
   5.640        216.67	    16.125
   5.660        208.33	    15.811
   5.680        205.00	    15.684
   5.700        218.33	    16.186
   5.720        221.67	    16.310
   5.740        213.33	    16.000
   5.760        211.67	    15.937
   5.780        202.50	    15.588
   5.800        198.33	    15.427
   5.820        219.17	    16.217
   5.840        209.17	    15.843
   5.860        204.17	    15.652
   5.880        230.00	    16.613
   5.900        230.83	    16.643
   5.920        209.17	    15.843
   5.940        240.83	    17.000
   5.960        225.00	    16.432
   5.980        199.17	    15.460
   6.000        205.00	    15.684
   6.020        237.50	    16.882
   6.040        255.00	    17.493
   6.060        236.67	    16.852
   6.080        250.00	    17.321
   6.100        273.33	    18.111
   6.120        254.17	    17.464
   6.140        226.67	    16.492
   6.160        232.50	    16.703
   6.180        214.17	    16.031
   6.200        215.00	    16.062
   6.220        196.67	    15.362
   6.240        191.67	    15.166
   6.260        192.50	    15.199
   6.280        171.67	    14.353
   6.300        220.83	    16.279
   6.320        210.00	    15.875
   6.340        193.33	    15.232
   6.360        192.50	    15.199
   6.380        186.67	    14.967
   6.400        181.67	    14.765
   6.420        176.67	    14.560
   6.440        177.50	    14.595
   6.460        184.17	    14.866
   6.480        204.17	    15.652
   6.500        189.17	    15.067
   6.520        195.00	    15.297
   6.540        195.83	    15.330
   6.560        189.17	    15.067
   6.580        195.00	    15.297
   6.600        199.17	    15.460
   6.620        171.67	    14.353
   6.640        193.33	    15.232
   6.660        187.50	    15.000
   6.680        160.00	    13.856
   6.700        172.50	    14.387
   6.720        202.50	    15.588
   6.740        196.67	    15.362
   6.760        170.00	    14.283
   6.780        178.33	    14.629
   6.800        185.83	    14.933
   6.820        170.00	    14.283
   6.840        159.17	    13.820
   6.860        185.83	    14.933
   6.880        174.17	    14.457
   6.900        197.50	    15.395
   6.920        180.83	    14.731
   6.940        176.67	    14.560
   6.960        179.17	    14.663
   6.980        175.83	    14.526
   7.000        175.83	    14.526
   7.020        179.17	    14.663
   7.040        178.33	    14.629
   7.060        172.50	    14.387
   7.080        160.00	    13.856
   7.100        160.00	    13.856
   7.120        153.33	    13.565
   7.140        201.67	    15.556
   7.160        174.17	    14.457
   7.180        160.00	    13.856
   7.200        160.83	    13.892
   7.220        152.50	    13.528
   7.240        182.50	    14.799
   7.260        147.50	    13.304
   7.280        175.00	    14.491
   7.300        148.33	    13.342
   7.320        168.33	    14.213
   7.340        175.83	    14.526
   7.360        145.83	    13.229
   7.380        185.83	    14.933
   7.400        160.83	    13.892
   7.420        148.33	    13.342
   7.440        160.83	    13.892
   7.460        160.83	    13.892
   7.480        151.67	    13.491
   7.500        173.33	    14.422
   7.520        155.00	    13.638
   7.540        144.17	    13.153
   7.560        165.83	    14.107
   7.580        161.67	    13.928
   7.600        160.00	    13.856
   7.620        157.50	    13.748
   7.640        155.83	    13.675
   7.660        175.83	    14.526
   7.680        158.33	    13.784
   7.700        164.17	    14.036
   7.720        140.00	    12.961
   7.740        147.50	    13.304
   7.760        155.83	    13.675
   7.780        164.17	    14.036
   7.800        138.33	    12.884
   7.820        148.33	    13.342
   7.840        153.33	    13.565
   7.860        155.83	    13.675
   7.880        145.00	    13.191
   7.900        150.83	    13.454
   7.920        174.17	    14.457
   7.940        135.00	    12.728
   7.960        158.33	    13.784
   7.980        137.50	    12.845
   8.000        145.00	    13.191
   8.020        151.67	    13.491
   8.040        132.50	    12.610
   8.060        154.17	    13.601
   8.080        150.83	    13.454
   8.100        137.50	    12.845
   8.120        138.33	    12.884
   8.140        144.17	    13.153
   8.160        141.67	    13.038
   8.180        145.83	    13.229
   8.200        160.83	    13.892
   8.220        139.17	    12.923
   8.240        165.83	    14.107
   8.260        165.83	    14.107
   8.280        145.83	    13.229
   8.300        155.00	    13.638
   8.320        136.67	    12.806
   8.340        172.50	    14.387
   8.360        155.00	    13.638
   8.380        161.67	    13.928
   8.400        149.17	    13.379
   8.420        135.00	    12.728
   8.440        152.50	    13.528
   8.460        150.00	    13.416
   8.480        176.67	    14.560
   8.500        142.50	    13.077
   8.520        176.67	    14.560
   8.540        158.33	    13.784
   8.560        163.33	    14.000
   8.580        179.17	    14.663
   8.600        175.83	    14.526
   8.620        205.00	    15.684
   8.640        198.33	    15.427
   8.660        199.17	    15.460
   8.680        197.50	    15.395
   8.700        240.83	    17.000
   8.720        259.17	    17.635
   8.740        313.33	    19.391
   8.760        352.50	    20.567
   8.780        385.00	    21.494
   8.800        315.00	    19.442
   8.820        227.50	    16.523
   8.840        166.67	    14.142
   8.860        153.33	    13.565
   8.880        144.17	    13.153
   8.900        156.67	    13.711
   8.920        155.00	    13.638
   8.940        145.00	    13.191
   8.960        121.67	    12.083
   8.980        135.00	    12.728
   9.000        160.00	    13.856
   9.020        142.50	    13.077
   9.040        133.33	    12.649
   9.060        150.00	    13.416
   9.080        145.83	    13.229
   9.100        129.17	    12.450
   9.120        125.00	    12.247
   9.140        136.67	    12.806
   9.160        120.00	    12.000
   9.180        135.00	    12.728
   9.200        115.83	    11.790
   9.220        113.33	    11.662
   9.240        122.50	    12.124
   9.260        125.00	    12.247
   9.280        120.83	    12.042
   9.300        117.50	    11.874
   9.320        131.67	    12.570
   9.340        130.83	    12.530
   9.360        142.50	    13.077
   9.380        131.67	    12.570
   9.400        133.33	    12.649
   9.420        122.50	    12.124
   9.440        111.67	    11.576
   9.460        135.00	    12.728
   9.480        118.33	    11.916
   9.500        125.83	    12.288
   9.520        118.33	    11.916
   9.540        137.50	    12.845
   9.560        118.33	    11.916
   9.580        120.00	    12.000
   9.600        115.83	    11.790
   9.620        133.33	    12.649
   9.640        108.33	    11.402
   9.660        134.17	    12.689
   9.680        115.00	    11.747
   9.700        137.50	    12.845
   9.720        126.67	    12.329
   9.740        126.67	    12.329
   9.760        110.00	    11.489
   9.780        100.00	    10.954
   9.800        115.83	    11.790
   9.820        105.00	    11.225
   9.840        100.83	    11.000
   9.860        120.83	    12.042
   9.880        126.67	    12.329
   9.900        120.83	    12.042
   9.920        111.67	    11.576
   9.940        100.83	    11.000
   9.960        115.00	    11.747
   9.980        115.00	    11.747
  10.000        105.83	    11.269
  10.020        116.67	    11.832
  10.040         93.33	    10.583
  10.060         99.17	    10.909
  10.080        112.50	    11.619
  10.100        121.67	    12.083
  10.120        110.00	    11.489
  10.140        115.00	    11.747
  10.160        112.50	    11.619
  10.180        122.50	    12.124
  10.200        125.83	    12.288
  10.220         94.17	    10.630
  10.240        103.33	    11.136
  10.260        116.67	    11.832
  10.280        122.50	    12.124
  10.300        117.50	    11.874
  10.320        110.00	    11.489
  10.340        135.00	    12.728
  10.360        142.50	    13.077
  10.380        162.50	    13.964
  10.400        185.83	    14.933
  10.420        174.17	    14.457
  10.440        143.33	    13.115
  10.460        139.17	    12.923
  10.480        106.67	    11.314
  10.500        116.67	    11.832
  10.520        110.83	    11.533
  10.540        111.67	    11.576
  10.560         97.50	    10.817
  10.580         95.83	    10.724
  10.600         96.67	    10.770
  10.620        100.83	    11.000
  10.640        110.00	    11.489
  10.660         85.83	    10.149
  10.680        111.67	    11.576
  10.700        100.83	    11.000
  10.720         97.50	    10.817
  10.740         98.33	    10.863
  10.760        107.50	    11.358
  10.780        102.50	    11.091
  10.800        112.50	    11.619
  10.820         98.33	    10.863
  10.840         97.50	    10.817
  10.860        120.83	    12.042
  10.880         95.83	    10.724
  10.900        112.50	    11.619
  10.920         89.17	    10.344
  10.940         99.17	    10.909
  10.960         98.33	    10.863
  10.980         87.50	    10.247
  11.000         96.67	    10.770
  11.020        109.17	    11.446
  11.040         85.00	    10.100
  11.060        100.00	    10.954
  11.080         94.17	    10.630
  11.100        102.50	    11.091
  11.120        109.17	    11.446
  11.140        107.50	    11.358
  11.160         93.33	    10.583
  11.180        106.67	    11.314
  11.200         95.00	    10.677
  11.220         96.67	    10.770
  11.240         90.83	    10.440
  11.260        115.83	    11.790
  11.280        101.67	    11.045
  11.300        111.67	    11.576
  11.320         94.17	    10.630
  11.340         95.83	    10.724
  11.360         98.33	    10.863
  11.380        101.67	    11.045
  11.400         90.83	    10.440
  11.420        100.00	    10.954
  11.440        129.17	    12.450
  11.460        100.00	    10.954
  11.480         92.50	    10.536
  11.500        105.00	    11.225
  11.520         86.67	    10.198
  11.540         91.67	    10.488
  11.560        101.67	    11.045
  11.580        100.00	    10.954
  11.600         98.33	    10.863
  11.620        105.00	    11.225
  11.640        106.67	    11.314
  11.660         90.83	    10.440
  11.680         95.83	    10.724
  11.700        113.33	    11.662
  11.720        111.67	    11.576
  11.740         87.50	    10.247
  11.760         89.17	    10.344
  11.780        102.50	    11.091
  11.800         98.33	    10.863
  11.820         89.17	    10.344
  11.840         89.17	    10.344
  11.860        115.83	    11.790
  11.880        105.83	    11.269
  11.900         98.33	    10.863
  11.920         99.17	    10.909
  11.940        117.50	    11.874
  11.960        130.83	    12.530
  11.980        152.50	    13.528
  12.000        174.17	    14.457
  12.020        195.00	    15.297
  12.040        274.17	    18.138
  12.060        368.33	    21.024
  12.080        421.67	    22.494
  12.100        315.83	    19.468
  12.120        240.83	    17.000
  12.140        165.83	    14.107
  12.160        158.33	    13.784
  12.180        135.83	    12.767
  12.200        147.50	    13.304
  12.220        155.00	    13.638
  12.240        130.83	    12.530
  12.260        158.33	    13.784
  12.280        137.50	    12.845
  12.300        154.17	    13.601
  12.320        152.50	    13.528
  12.340        178.33	    14.629
  12.360        235.83	    16.823
  12.380        230.00	    16.613
  12.400        211.67	    15.937
  12.420        159.17	    13.820
  12.440        128.33	    12.410
  12.460         99.17	    10.909
  12.480        108.33	    11.402
  12.500        105.00	    11.225
  12.520        100.83	    11.000
  12.540         90.00	    10.392
  12.560         90.00	    10.392
  12.580         88.33	    10.296
  12.600         95.83	    10.724
  12.620         71.67	     9.274
  12.640         94.17	    10.630
  12.660         84.17	    10.050
  12.680         92.50	    10.536
  12.700        102.50	    11.091
  12.720         93.33	    10.583
  12.740         86.67	    10.198
  12.760         90.00	    10.392
  12.780         88.33	    10.296
  12.800         74.17	     9.434
  12.820         95.83	    10.724
  12.840         87.50	    10.247
  12.860         76.67	     9.592
  12.880         81.67	     9.899
  12.900         93.33	    10.583
  12.920         77.50	     9.644
  12.940         93.33	    10.583
  12.960         86.67	    10.198
  12.980         75.00	     9.487
  13.000         85.00	    10.100
  13.020         63.33	     8.718
  13.040         78.33	     9.695
  13.060         78.33	     9.695
  13.080         80.83	     9.849
  13.100         93.33	    10.583
  13.120         83.33	    10.000
  13.140         91.67	    10.488
  13.160         95.83	    10.724
  13.180         90.00	    10.392
  13.200         86.67	    10.198
  13.220         84.17	    10.050
  13.240         90.83	    10.440
  13.260         76.67	     9.592
  13.280         75.83	     9.539
  13.300         89.17	    10.344
  13.320         92.50	    10.536
  13.340         64.17	     8.775
  13.360         90.83	    10.440
  13.380         92.50	    10.536
  13.400        103.33	    11.136
  13.420         85.83	    10.149
  13.440         91.67	    10.488
  13.460         79.17	     9.747
  13.480         74.17	     9.434
  13.500         93.33	    10.583
  13.520         75.83	     9.539
  13.540         80.83	     9.849
  13.560         76.67	     9.592
  13.580         89.17	    10.344
  13.600         85.83	    10.149
  13.620         71.67	     9.274
  13.640         95.83	    10.724
  13.660         79.17	     9.747
  13.680         99.17	    10.909
  13.700         87.50	    10.247
  13.720        102.50	    11.091
  13.740        125.00	    12.247
  13.760        100.83	    11.000
  13.780        105.83	    11.269
  13.800        109.17	    11.446
  13.820         88.33	    10.296
  13.840         79.17	     9.747
  13.860         65.83	     8.888
  13.880         81.67	     9.899
  13.900         87.50	    10.247
  13.920         82.50	     9.950
  13.940         69.17	     9.110
  13.960         90.83	    10.440
  13.980         87.50	    10.247
  14.000         81.67	     9.899
  14.020         74.17	     9.434
  14.040         70.00	     9.165
  14.060         83.33	    10.000
  14.080         72.50	     9.327
  14.100         65.00	     8.832
  14.120         83.33	    10.000
  14.140         73.33	     9.381
  14.160         74.17	     9.434
  14.180         62.50	     8.660
  14.200         71.67	     9.274
  14.220         81.67	     9.899
  14.240         85.83	    10.149
  14.260         75.00	     9.487
  14.280         89.17	    10.344
  14.300         79.17	     9.747
  14.320         71.67	     9.274
  14.340         74.17	     9.434
  14.360         90.00	    10.392
  14.380         83.33	    10.000
  14.400         70.00	     9.165
  14.420         67.50	     9.000
  14.440         70.83	     9.220
  14.460         70.83	     9.220
  14.480         64.17	     8.775
  14.500         73.33	     9.381
  14.520         66.67	     8.944
  14.540         79.17	     9.747
  14.560         81.67	     9.899
  14.580         68.33	     9.055
  14.600         86.67	    10.198
  14.620         87.50	    10.247
  14.640         59.17	     8.426
  14.660         65.00	     8.832
  14.680         75.00	     9.487
  14.700         83.33	    10.000
  14.720         75.00	     9.487
  14.740         57.50	     8.307
  14.760         63.33	     8.718
  14.780         69.17	     9.110
  14.800         80.83	     9.849
  14.820         81.67	     9.899
  14.840         81.67	     9.899
  14.860         85.00	    10.100
  14.880        100.00	    10.954
  14.900         82.50	     9.950
  14.920         80.83	     9.849
  14.940         62.50	     8.660
  14.960         75.83	     9.539
  14.980         71.67	     9.274
  15.000         80.00	     9.798
  15.020         67.50	     9.000
  15.040         60.00	     8.485
  15.060         73.33	     9.381
  15.080         75.83	     9.539
  15.100         65.00	     8.832
  15.120         72.50	     9.327
  15.140         70.00	     9.165
  15.160         70.00	     9.165
  15.180         65.00	     8.832
  15.200         71.67	     9.274
  15.220         78.33	     9.695
  15.240         74.17	     9.434
  15.260         80.00	     9.798
  15.280         65.83	     8.888
  15.300         74.17	     9.434
  15.320         77.50	     9.644
  15.340         55.83	     8.185
  15.360         70.00	     9.165
  15.380         63.33	     8.718
  15.400         70.83	     9.220
  15.420         60.83	     8.544
  15.440         71.67	     9.274
  15.460         66.67	     8.944
  15.480         73.33	     9.381
  15.500         59.17	     8.426
  15.520         77.50	     9.644
  15.540         68.33	     9.055
  15.560         62.50	     8.660
  15.580         56.67	     8.246
  15.600         65.00	     8.832
  15.620         68.33	     9.055
  15.640         72.50	     9.327
  15.660         79.17	     9.747
  15.680         75.00	     9.487
  15.700         57.50	     8.307
  15.720         87.50	    10.247
  15.740         79.17	     9.747
  15.760         67.50	     9.000
  15.780         69.17	     9.110
  15.800         51.67	     7.874
  15.820         70.00	     9.165
  15.840         66.67	     8.944
  15.860         56.67	     8.246
  15.880         71.67	     9.274
  15.900         61.67	     8.602
  15.920         60.83	     8.544
  15.940         67.50	     9.000
  15.960         79.17	     9.747
  15.980         52.50	     7.937
  16.000         65.83	     8.888
  16.020         50.83	     7.810
  16.040         60.83	     8.544
  16.060         78.33	     9.695
  16.080         67.50	     9.000
  16.100         71.67	     9.274
  16.120         74.17	     9.434
  16.140         70.83	     9.220
  16.160         73.33	     9.381
  16.180         68.33	     9.055
  16.200         58.33	     8.367
  16.220         65.00	     8.832
  16.240         62.50	     8.660
  16.260         54.17	     8.062
  16.280         59.17	     8.426
  16.300         70.83	     9.220
  16.320         67.50	     9.000
  16.340         65.83	     8.888
  16.360         73.33	     9.381
  16.380         60.83	     8.544
  16.400         61.67	     8.602
  16.420         73.33	     9.381
  16.440         55.83	     8.185
  16.460         65.00	     8.832
  16.480         64.17	     8.775
  16.500         72.50	     9.327
  16.520         58.33	     8.367
  16.540         77.50	     9.644
  16.560         64.17	     8.775
  16.580         68.33	     9.055
  16.600         40.83	     7.000
  16.620         50.00	     7.746
  16.640         72.50	     9.327
  16.660         51.67	     7.874
  16.680         67.50	     9.000
  16.700         54.17	     8.062
  16.720         65.83	     8.888
  16.740         64.17	     8.775
  16.760         67.50	     9.000
  16.780         67.50	     9.000
  16.800         66.67	     8.944
  16.820         62.50	     8.660
  16.840         62.50	     8.660
  16.860         65.00	     8.832
  16.880         64.17	     8.775
  16.900         54.17	     8.062
  16.920         77.50	     9.644
  16.940         55.83	     8.185
  16.960         69.17	     9.110
  16.980         50.83	     7.810
  17.000         63.33	     8.718
  17.020         67.50	     9.000
  17.040         60.83	     8.544
  17.060         64.17	     8.775
  17.080         61.67	     8.602
  17.100         70.00	     9.165
  17.120         70.00	     9.165
  17.140         66.67	     8.944
  17.160         67.50	     9.000
  17.180         79.17	     9.747
  17.200         62.50	     8.660
  17.220         54.17	     8.062
  17.240         50.83	     7.810
  17.260         66.67	     8.944
  17.280         61.67	     8.602
  17.300         65.83	     8.888
  17.320         64.17	     8.775
  17.340         60.00	     8.485
  17.360         66.67	     8.944
  17.380         63.33	     8.718
  17.400         60.00	     8.485
  17.420         74.17	     9.434
  17.440         55.00	     8.124
  17.460         70.00	     9.165
  17.480         66.67	     8.944
  17.500         79.17	     9.747
  17.520         70.83	     9.220
  17.540         65.00	     8.832
  17.560         65.83	     8.888
  17.580         70.83	     9.220
  17.600         84.17	    10.050
  17.620        100.83	    11.000
  17.640         97.50	    10.817
  17.660        135.00	    12.728
  17.680        144.17	    13.153
  17.700        113.33	    11.662
  17.720        143.33	    13.115
  17.740        135.00	    12.728
  17.760        118.33	    11.916
  17.780         88.33	    10.296
  17.800         81.67	     9.899
  17.820         76.67	     9.592
  17.840         72.50	     9.327
  17.860         64.17	     8.775
  17.880         68.33	     9.055
  17.900         73.33	     9.381
  17.920         55.83	     8.185
  17.940         61.67	     8.602
  17.960         63.33	     8.718
  17.980         70.83	     9.220
  18.000         77.50	     9.644
  18.020         70.83	     9.220
  18.040         66.67	     8.944
  18.060         60.00	     8.485
  18.080         51.67	     7.874
  18.100         58.33	     8.367
  18.120         70.00	     9.165
  18.140         67.50	     9.000
  18.160         67.50	     9.000
  18.180         69.17	     9.110
  18.200         67.50	     9.000
  18.220         60.83	     8.544
  18.240         68.33	     9.055
  18.260         70.00	     9.165
  18.280         55.83	     8.185
  18.300         50.83	     7.810
  18.320         60.83	     8.544
  18.340         70.00	     9.165
  18.360         67.50	     9.000
  18.380         54.17	     8.062
  18.400         67.50	     9.000
  18.420         72.50	     9.327
  18.440         71.67	     9.274
  18.460         65.83	     8.888
  18.480         60.83	     8.544
  18.500         65.00	     8.832
  18.520         75.00	     9.487
  18.540         79.17	     9.747
  18.560         87.50	    10.247
  18.580         84.17	    10.050
  18.600         79.17	     9.747
  18.620         85.83	    10.149
  18.640         88.33	    10.296
  18.660        103.33	    11.136
  18.680         97.50	    10.817
  18.700        103.33	    11.136
  18.720         89.17	    10.344
  18.740         63.33	     8.718
  18.760         89.17	    10.344
  18.780         69.17	     9.110
  18.800         83.33	    10.000
  18.820         63.33	     8.718
  18.840         69.17	     9.110
  18.860         69.17	     9.110
  18.880         64.17	     8.775
  18.900         60.00	     8.485
  18.920         60.83	     8.544
  18.940         59.17	     8.426
  18.960         64.17	     8.775
  18.980         56.67	     8.246
  19.000         68.33	     9.055
  19.020         60.00	     8.485
  19.040         70.83	     9.220
  19.060         78.33	     9.695
  19.080         60.00	     8.485
  19.100         75.00	     9.487
  19.120         88.33	    10.296
  19.140         85.00	    10.100
  19.160         75.00	     9.487
  19.180         62.50	     8.660
  19.200         69.17	     9.110
  19.220         70.83	     9.220
  19.240         65.83	     8.888
  19.260         60.83	     8.544
  19.280         67.50	     9.000
  19.300         70.83	     9.220
  19.320         62.50	     8.660
  19.340         71.67	     9.274
  19.360         75.00	     9.487
  19.380         74.17	     9.434
  19.400         60.83	     8.544
  19.420         65.83	     8.888
  19.440         66.67	     8.944
  19.460         66.67	     8.944
  19.480         65.83	     8.888
  19.500         80.00	     9.798
  19.520         93.33	    10.583
  19.540         81.67	     9.899
  19.560         82.50	     9.950
  19.580         95.83	    10.724
  19.600         83.33	    10.000
  19.620         94.17	    10.630
  19.640        105.00	    11.225
  19.660        100.00	    10.954
  19.680         95.00	    10.677
  19.700        110.00	    11.489
  19.720        100.83	    11.000
  19.740         93.33	    10.583
  19.760        100.83	    11.000
  19.780        105.83	    11.269
  19.800         88.33	    10.296
  19.820         80.83	     9.849
  19.840         73.33	     9.381
  19.860         66.67	     8.944
  19.880         75.83	     9.539
  19.900         73.33	     9.381
  19.920         64.17	     8.775
  19.940         76.67	     9.592
  19.960         62.50	     8.660
  19.980         63.33	     8.718
  20.000         83.33	    10.000
  20.020         70.83	     9.220
  20.040         73.33	     9.381
  20.060         85.83	    10.149
  20.080         57.50	     8.307
  20.100         82.50	     9.950
  20.120         58.33	     8.367
  20.140         55.83	     8.185
  20.160         67.50	     9.000
  20.180         56.67	     8.246
  20.200         65.83	     8.888
  20.220         57.50	     8.307
  20.240         70.83	     9.220
  20.260         66.67	     8.944
  20.280         73.33	     9.381
  20.300         60.00	     8.485
  20.320         54.17	     8.062
  20.340         59.17	     8.426
  20.360         65.83	     8.888
  20.380         55.00	     8.124
  20.400         71.67	     9.274
  20.420         68.33	     9.055
  20.440         68.33	     9.055
  20.460         71.67	     9.274
  20.480         74.17	     9.434
  20.500         78.33	     9.695
  20.520         69.17	     9.110
  20.540         62.50	     8.660
  20.560         81.67	     9.899
  20.580         69.17	     9.110
  20.600         65.83	     8.888
  20.620         76.67	     9.592
  20.640         89.17	    10.344
  20.660        112.50	    11.619
  20.680        141.67	    13.038
  20.700        207.50	    15.780
  20.720        295.83	    18.841
  20.740        354.17	    20.616
  20.760        310.00	    19.287
  20.780        264.17	    17.804
  20.800        208.33	    15.811
  20.820        153.33	    13.565
  20.840        106.67	    11.314
  20.860        110.83	    11.533
  20.880        112.50	    11.619
  20.900         98.33	    10.863
  20.920        113.33	    11.662
  20.940         81.67	     9.899
  20.960         81.67	     9.899
  20.980         62.50	     8.660
  21.000         66.67	     8.944
  21.020         67.50	     9.000
  21.040         60.83	     8.544
  21.060         67.50	     9.000
  21.080         64.17	     8.775
  21.100         66.67	     8.944
  21.120         61.67	     8.602
  21.140         50.83	     7.810
  21.160         54.17	     8.062
  21.180         81.67	     9.899
  21.200         65.83	     8.888
  21.220         62.50	     8.660
  21.240         62.50	     8.660
  21.260         57.50	     8.307
  21.280         60.00	     8.485
  21.300         56.67	     8.246
  21.320         69.17	     9.110
  21.340         72.50	     9.327
  21.360         73.33	     9.381
  21.380         69.17	     9.110
  21.400         66.67	     8.944
  21.420         57.50	     8.307
  21.440         55.00	     8.124
  21.460         80.00	     9.798
  21.480         55.00	     8.124
  21.500         69.17	     9.110
  21.520         57.50	     8.307
  21.540         58.33	     8.367
  21.560         51.67	     7.874
  21.580         67.50	     9.000
  21.600         69.17	     9.110
  21.620         60.83	     8.544
  21.640         66.67	     8.944
  21.660         55.83	     8.185
  21.680         76.67	     9.592
  21.700         60.83	     8.544
  21.720         66.67	     8.944
  21.740         64.17	     8.775
  21.760         64.17	     8.775
  21.780         68.33	     9.055
  21.800         79.17	     9.747
  21.820         72.50	     9.327
  21.840         75.83	     9.539
  21.860        100.00	    10.954
  21.880        125.00	    12.247
  21.900        151.67	    13.491
  21.920        184.17	    14.866
  21.940        255.83	    17.521
  21.960        206.67	    15.748
  21.980        165.00	    14.071
  22.000        145.83	    13.229
  22.020        108.33	    11.402
  22.040        102.50	    11.091
  22.060         70.00	     9.165
  22.080         62.50	     8.660
  22.100         70.83	     9.220
  22.120         65.00	     8.832
  22.140         68.33	     9.055
  22.160         56.67	     8.246
  22.180         55.83	     8.185
  22.200         55.00	     8.124
  22.220         66.67	     8.944
  22.240         52.50	     7.937
  22.260         72.50	     9.327
  22.280         75.00	     9.487
  22.300         55.00	     8.124
  22.320         60.83	     8.544
  22.340         52.50	     7.937
  22.360         69.17	     9.110
  22.380         56.67	     8.246
  22.400         70.00	     9.165
  22.420         71.67	     9.274
  22.440         70.83	     9.220
  22.460         66.67	     8.944
  22.480         49.17	     7.681
  22.500         74.17	     9.434
  22.520         66.67	     8.944
  22.540         65.00	     8.832
  22.560         62.50	     8.660
  22.580         55.00	     8.124
  22.600         61.67	     8.602
  22.620         60.00	     8.485
  22.640         65.00	     8.832
  22.660         56.67	     8.246
  22.680         75.00	     9.487
  22.700         76.67	     9.592
  22.720         82.50	     9.950
  22.740         75.00	     9.487
  22.760         84.17	    10.050
  22.780         92.50	    10.536
  22.800         72.50	     9.327
  22.820         85.00	    10.100
  22.840         87.50	    10.247
  22.860         84.17	    10.050
  22.880         82.50	     9.950
  22.900         96.67	    10.770
  22.920         97.50	    10.817
  22.940         90.83	    10.440
  22.960         93.33	    10.583
  22.980         85.00	    10.100
  23.000         83.33	    10.000
  23.020         84.17	    10.050
  23.040         75.00	     9.487
  23.060         70.00	     9.165
  23.080         75.83	     9.539
  23.100         70.00	     9.165
  23.120         58.33	     8.367
  23.140         68.33	     9.055
  23.160         63.33	     8.718
  23.180         65.83	     8.888
  23.200         78.33	     9.695
  23.220         67.50	     9.000
  23.240         58.33	     8.367
  23.260         74.17	     9.434
  23.280         63.33	     8.718
  23.300         63.33	     8.718
  23.320         81.67	     9.899
  23.340         85.00	    10.100
  23.360        111.67	    11.576
  23.380        160.83	    13.892
  23.400        195.83	    15.330
  23.420        161.67	    13.928
  23.440        175.83	    14.526
  23.460        155.00	    13.638
  23.480        136.67	    12.806
  23.500        132.50	    12.610
  23.520         97.50	    10.817
  23.540         91.67	    10.488
  23.560         83.33	    10.000
  23.580         74.17	     9.434
  23.600         95.00	    10.677
  23.620         78.33	     9.695
  23.640         79.17	     9.747
  23.660         70.83	     9.220
  23.680         75.83	     9.539
  23.700         78.33	     9.695
  23.720         75.83	     9.539
  23.740         67.50	     9.000
  23.760         55.83	     8.185
  23.780         68.33	     9.055
  23.800         74.17	     9.434
  23.820         95.00	    10.677
  23.840         64.17	     8.775
  23.860         63.33	     8.718
  23.880         81.67	     9.899
  23.900         82.50	     9.950
  23.920         84.17	    10.050
  23.940         83.33	    10.000
  23.960         67.50	     9.000
  23.980         77.50	     9.644
  24.000         80.83	     9.849
  24.020         93.33	    10.583
  24.040         91.67	    10.488
  24.060        121.67	    12.083
  24.080        128.33	    12.410
  24.100        150.00	    13.416
  24.120        132.50	    12.610
  24.140        142.50	    13.077
  24.160        202.50	    15.588
  24.180        178.33	    14.629
  24.200        175.83	    14.526
  24.220        117.50	    11.874
  24.240        123.33	    12.166
  24.260        110.00	    11.489
  24.280         87.50	    10.247
  24.300         70.00	     9.165
  24.320         84.17	    10.050
  24.340         75.83	     9.539
  24.360         86.67	    10.198
  24.380        113.33	    11.662
  24.400        116.67	    11.832
  24.420        143.33	    13.115
  24.440        145.83	    13.229
  24.460        145.00	    13.191
  24.480        179.17	    14.663
  24.500        141.67	    13.038
  24.520        137.50	    12.845
  24.540        134.17	    12.689
  24.560        122.50	    12.124
  24.580        100.83	    11.000
  24.600        104.17	    11.180
  24.620        100.00	    10.954
  24.640         92.50	    10.536
  24.660         84.17	    10.050
  24.680         82.50	     9.950
  24.700        105.83	    11.269
  24.720        104.17	    11.180
  24.740         92.50	    10.536
  24.760         81.67	     9.899
  24.780         78.33	     9.695
  24.800         84.17	    10.050
  24.820         80.00	     9.798
  24.840         84.17	    10.050
  24.860         80.00	     9.798
  24.880         94.17	    10.630
  24.900         95.00	    10.677
  24.920         75.83	     9.539
  24.940         98.33	    10.863
  24.960         85.83	    10.149
  24.980        108.33	    11.402
  25.000        115.00	    11.747
  25.020        124.17	    12.207
  25.040        148.33	    13.342
  25.060        148.33	    13.342
  25.080        125.00	    12.247
  25.100        123.33	    12.166
  25.120         89.17	    10.344
  25.140         85.83	    10.149
  25.160         91.67	    10.488
  25.180         75.83	     9.539
  25.200         82.50	     9.950
  25.220         71.67	     9.274
  25.240         90.00	    10.392
  25.260         85.83	    10.149
  25.280         96.67	    10.770
  25.300        108.33	    11.402
  25.320        110.00	    11.489
  25.340        110.00	    11.489
  25.360        128.33	    12.410
  25.380        125.00	    12.247
  25.400        134.17	    12.689
  25.420        141.67	    13.038
  25.440        127.50	    12.369
  25.460        157.50	    13.748
  25.480        133.33	    12.649
  25.500        135.83	    12.767
  25.520        141.67	    13.038
  25.540        125.83	    12.288
  25.560        120.83	    12.042
  25.580        125.83	    12.288
  25.600        102.50	    11.091
  25.620         79.17	     9.747
  25.640         80.00	     9.798
  25.660         88.33	    10.296
  25.680         55.00	     8.124
  25.700         56.67	     8.246
  25.720         70.00	     9.165
  25.740         60.83	     8.544
  25.760         73.33	     9.381
  25.780         75.83	     9.539
  25.800         62.50	     8.660
  25.820         58.33	     8.367
  25.840         75.83	     9.539
  25.860         70.00	     9.165
  25.880         52.50	     7.937
  25.900         69.17	     9.110
  25.920         71.67	     9.274
  25.940         82.50	     9.950
  25.960         69.17	     9.110
  25.980         77.50	     9.644
  26.000         88.33	    10.296
  26.020         75.00	     9.487
  26.040         82.50	     9.950
  26.060         93.33	    10.583
  26.080         86.67	    10.198
  26.100         83.33	    10.000
  26.120         95.83	    10.724
  26.140         92.50	    10.536
  26.160        104.17	    11.180
  26.180        120.00	    12.000
  26.200        115.00	    11.747
  26.220        110.83	    11.533
  26.240        137.50	    12.845
  26.260        110.00	    11.489
  26.280        110.83	    11.533
  26.300        139.17	    12.923
  26.320        148.33	    13.342
  26.340        156.67	    13.711
  26.360        187.50	    15.000
  26.380        182.50	    14.799
  26.400        226.67	    16.492
  26.420        275.83	    18.193
  26.440        395.00	    21.772
  26.460        563.33	    26.000
  26.480        998.33	    34.612
  26.500       1642.50	    44.396
  26.520       1973.33	    48.662
  26.540       1685.00	    44.967
  26.560       1253.33	    38.781
  26.580       1155.00	    37.229
  26.600        921.67	    33.257
  26.620        570.00	    26.153
  26.640        380.83	    21.378
  26.660        281.67	    18.385
  26.680        294.17	    18.788
  26.700        295.83	    18.841
  26.720        308.33	    19.235
  26.740        344.17	    20.322
  26.760        345.83	    20.372
  26.780        323.33	    19.698
  26.800        250.83	    17.349
  26.820        227.50	    16.523
  26.840        240.83	    17.000
  26.860        167.50	    14.177
  26.880        161.67	    13.928
  26.900        135.00	    12.728
  26.920        140.83	    13.000
  26.940        132.50	    12.610
  26.960        117.50	    11.874
  26.980        123.33	    12.166
  27.000        119.17	    11.958
  27.020        110.00	    11.489
  27.040         96.67	    10.770
  27.060         90.00	    10.392
  27.080         80.83	     9.849
  27.100         85.00	    10.100
  27.120         76.67	     9.592
  27.140         80.83	     9.849
  27.160         95.00	    10.677
  27.180         92.50	    10.536
  27.200         85.83	    10.149
  27.220         80.00	     9.798
  27.240         87.50	    10.247
  27.260         96.67	    10.770
  27.280        111.67	    11.576
  27.300        117.50	    11.874
  27.320        140.00	    12.961
  27.340        127.50	    12.369
  27.360        150.83	    13.454
  27.380        201.67	    15.556
  27.400        221.67	    16.310
  27.420        181.67	    14.765
  27.440        139.17	    12.923
  27.460        140.83	    13.000
  27.480        122.50	    12.124
  27.500        102.50	    11.091
  27.520        109.17	    11.446
  27.540        116.67	    11.832
  27.560        153.33	    13.565
  27.580        159.17	    13.820
  27.600        222.50	    16.340
  27.620        221.67	    16.310
  27.640        233.33	    16.733
  27.660        331.67	    19.950
  27.680        466.67	    23.664
  27.700        432.50	    22.782
  27.720        326.67	    19.799
  27.740        373.33	    21.166
  27.760        464.17	    23.601
  27.780        810.83	    31.193
  27.800       1485.00	    42.214
  27.820       1082.50	    36.042
  27.840        531.67	    25.259
  27.860        698.33	    28.948
  27.880        800.83	    31.000
  27.900        359.17	    20.761
  27.920        195.83	    15.330
  27.940        160.00	    13.856
  27.960        130.00	    12.490
  27.980        124.17	    12.207
  28.000        133.33	    12.649
  28.020        120.83	    12.042
  28.040        111.67	    11.576
  28.060        147.50	    13.304
  28.080        130.00	    12.490
  28.100        115.83	    11.790
  28.120        124.17	    12.207
  28.140        103.33	    11.136
  28.160        132.50	    12.610
  28.180        160.83	    13.892
  28.200        269.17	    17.972
  28.220        379.17	    21.331
  28.240        408.33	    22.136
  28.260        318.33	    19.545
  28.280        228.33	    16.553
  28.300        247.50	    17.234
  28.320        194.17	    15.264
  28.340        155.83	    13.675
  28.360         83.33	    10.000
  28.380         80.83	     9.849
  28.400         73.33	     9.381
  28.420         83.33	    10.000
  28.440         85.83	    10.149
  28.460         91.67	    10.488
  28.480         90.00	    10.392
  28.500         86.67	    10.198
  28.520         92.50	    10.536
  28.540         73.33	     9.381
  28.560         87.50	    10.247
  28.580         97.50	    10.817
  28.600         87.50	    10.247
  28.620         76.67	     9.592
  28.640         72.50	     9.327
  28.660         80.00	     9.798
  28.680         89.17	    10.344
  28.700         77.50	     9.644
  28.720         69.17	     9.110
  28.740         60.00	     8.485
  28.760         67.50	     9.000
  28.780         51.67	     7.874
  28.800         54.17	     8.062
  28.820         43.33	     7.211
  28.840         48.33	     7.616
  28.860         45.83	     7.416
  28.880         50.83	     7.810
  28.900         56.67	     8.246
  28.920         45.00	     7.348
  28.940         50.00	     7.746
  28.960         54.17	     8.062
  28.980         52.50	     7.937
  29.000         46.67	     7.483
  29.020         53.33	     8.000
  29.040         55.83	     8.185
  29.060         63.33	     8.718
  29.080         52.50	     7.937
  29.100         49.17	     7.681
  29.120         42.50	     7.141
  29.140         50.00	     7.746
  29.160         37.50	     6.708
  29.180         40.83	     7.000
  29.200         50.83	     7.810
  29.220         57.50	     8.307
  29.240         55.83	     8.185
  29.260         65.83	     8.888
  29.280         60.83	     8.544
  29.300         49.17	     7.681
  29.320         69.17	     9.110
  29.340         70.00	     9.165
  29.360         64.17	     8.775
  29.380         60.00	     8.485
  29.400         60.83	     8.544
  29.420         70.83	     9.220
  29.440         82.50	     9.950
  29.460         65.00	     8.832
  29.480         51.67	     7.874
  29.500         66.67	     8.944
  29.520         60.00	     8.485
  29.540         74.17	     9.434
  29.560         68.33	     9.055
  29.580         72.50	     9.327
  29.600         80.83	     9.849
  29.620         97.50	    10.817
  29.640        116.67	    11.832
  29.660        105.00	    11.225
  29.680        130.00	    12.490
  29.700        115.83	    11.790
  29.720        127.50	    12.369
  29.740        132.50	    12.610
  29.760        132.50	    12.610
  29.780        119.17	    11.958
  29.800         96.67	    10.770
  29.820        115.83	    11.790
  29.840        108.33	    11.402
  29.860        105.83	    11.269
  29.880         94.17	    10.630
  29.900        105.00	    11.225
  29.920        101.67	    11.045
  29.940        105.83	    11.269
  29.960         89.17	    10.344
  29.980        106.67	    11.314
  30.000         96.67	    10.770
  30.020        108.33	    11.402
  30.040        111.67	    11.576
  30.060         91.67	    10.488
  30.080         97.50	    10.817
  30.100        126.67	    12.329
  30.120        147.50	    13.304
  30.140        143.33	    13.115
  30.160        106.67	    11.314
  30.180         97.50	    10.817
  30.200        117.50	    11.874
  30.220         98.33	    10.863
  30.240         71.67	     9.274
  30.260         81.67	     9.899
  30.280         89.17	    10.344
  30.300         90.83	    10.440
  30.320         87.50	    10.247
  30.340         91.67	    10.488
  30.360         80.83	     9.849
  30.380         93.33	    10.583
  30.400         76.67	     9.592
  30.420         80.83	     9.849
  30.440         77.50	     9.644
  30.460         83.33	    10.000
  30.480         63.33	     8.718
  30.500         68.33	     9.055
  30.520         57.50	     8.307
  30.540         55.00	     8.124
  30.560         59.17	     8.426
  30.580         56.67	     8.246
  30.600         66.67	     8.944
  30.620         65.00	     8.832
  30.640         62.50	     8.660
  30.660         87.50	    10.247
  30.680         86.67	    10.198
  30.700         78.33	     9.695
  30.720         90.83	    10.440
  30.740         86.67	    10.198
  30.760         84.17	    10.050
  30.780         75.83	     9.539
  30.800         70.83	     9.220
  30.820         75.00	     9.487
  30.840         60.00	     8.485
  30.860         50.83	     7.810
  30.880         62.50	     8.660
  30.900         64.17	     8.775
  30.920         60.83	     8.544
  30.940         65.00	     8.832
  30.960         67.50	     9.000
  30.980         65.83	     8.888
  31.000         56.67	     8.246
  31.020         60.83	     8.544
  31.040         70.83	     9.220
  31.060         80.83	     9.849
  31.080        106.67	    11.314
  31.100        127.50	    12.369
  31.120        170.83	    14.318
  31.140        123.33	    12.166
  31.160        103.33	    11.136
  31.180        101.67	    11.045
  31.200        110.83	    11.533
  31.220         80.00	     9.798
  31.240         66.67	     8.944
  31.260         55.00	     8.124
  31.280         60.83	     8.544
  31.300         63.33	     8.718
  31.320         53.33	     8.000
  31.340         51.67	     7.874
  31.360         55.00	     8.124
  31.380         50.83	     7.810
  31.400         50.00	     7.746
  31.420         73.33	     9.381
  31.440         60.83	     8.544
  31.460         63.33	     8.718
  31.480         55.00	     8.124
  31.500         70.83	     9.220
  31.520         62.50	     8.660
  31.540         75.83	     9.539
  31.560         71.67	     9.274
  31.580         68.33	     9.055
  31.600         63.33	     8.718
  31.620         49.17	     7.681
  31.640         54.17	     8.062
  31.660         45.83	     7.416
  31.680         47.50	     7.550
  31.700         52.50	     7.937
  31.720         62.50	     8.660
  31.740         68.33	     9.055
  31.760        115.83	    11.790
  31.780        100.83	    11.000
  31.800         75.00	     9.487
  31.820         85.83	    10.149
  31.840         87.50	    10.247
  31.860         73.33	     9.381
  31.880         82.50	     9.950
  31.900         66.67	     8.944
  31.920         59.17	     8.426
  31.940         75.00	     9.487
  31.960         55.83	     8.185
  31.980         64.17	     8.775
  32.000         85.83	    10.149
  32.020         59.17	     8.426
  32.040         70.00	     9.165
  32.060         57.50	     8.307
  32.080         65.00	     8.832
  32.100         51.67	     7.874
  32.120         49.17	     7.681
  32.140         56.67	     8.246
  32.160         68.33	     9.055
  32.180         47.50	     7.550
  32.200         61.67	     8.602
  32.220         60.83	     8.544
  32.240         65.00	     8.832
  32.260         57.50	     8.307
  32.280         38.33	     6.782
  32.300         60.00	     8.485
  32.320         38.33	     6.782
  32.340         58.33	     8.367
  32.360         50.83	     7.810
  32.380         42.50	     7.141
  32.400         50.83	     7.810
  32.420         43.33	     7.211
  32.440         32.50	     6.245
  32.460         41.67	     7.071
  32.480         51.67	     7.874
  32.500         35.83	     6.557
  32.520         34.17	     6.403
  32.540         40.00	     6.928
  32.560         47.50	     7.550
  32.580         41.67	     7.071
  32.600         44.17	     7.280
  32.620         36.67	     6.633
  32.640         58.33	     8.367
  32.660         45.83	     7.416
  32.680         39.17	     6.856
  32.700         37.50	     6.708
  32.720         40.83	     7.000
  32.740         49.17	     7.681
  32.760         49.17	     7.681
  32.780         42.50	     7.141
  32.800         60.00	     8.485
  32.820         47.50	     7.550
  32.840         50.83	     7.810
  32.860         65.00	     8.832
  32.880         61.67	     8.602
  32.900         71.67	     9.274
  32.920         68.33	     9.055
  32.940         67.50	     9.000
  32.960         68.33	     9.055
  32.980         60.83	     8.544
  33.000         60.83	     8.544
  33.020         75.00	     9.487
  33.040         50.83	     7.810
  33.060         48.33	     7.616
  33.080         52.50	     7.937
  33.100         52.50	     7.937
  33.120         39.17	     6.856
  33.140         47.50	     7.550
  33.160         73.33	     9.381
  33.180         77.50	     9.644
  33.200         72.50	     9.327
  33.220         60.00	     8.485
  33.240         63.33	     8.718
  33.260         70.00	     9.165
  33.280         55.00	     8.124
  33.300         55.83	     8.185
  33.320         48.33	     7.616
  33.340         49.17	     7.681
  33.360         45.83	     7.416
  33.380         65.00	     8.832
  33.400         46.67	     7.483
  33.420         37.50	     6.708
  33.440         50.00	     7.746
  33.460         51.67	     7.874
  33.480         38.33	     6.782
  33.500         41.67	     7.071
  33.520         50.83	     7.810
  33.540         44.17	     7.280
  33.560         53.33	     8.000
  33.580         41.67	     7.071
  33.600         54.17	     8.062
  33.620         54.17	     8.062
  33.640         54.17	     8.062
  33.660         50.83	     7.810
  33.680         68.33	     9.055
  33.700         55.83	     8.185
  33.720         60.83	     8.544
  33.740         65.83	     8.888
  33.760         55.00	     8.124
  33.780         71.67	     9.274
  33.800         78.33	     9.695
  33.820         64.17	     8.775
  33.840         73.33	     9.381
  33.860         59.17	     8.426
  33.880         64.17	     8.775
  33.900         70.00	     9.165
  33.920         63.33	     8.718
  33.940         70.00	     9.165
  33.960         65.83	     8.888
  33.980         70.00	     9.165
  34.000         57.50	     8.307
  34.020         62.50	     8.660
  34.040         55.83	     8.185
  34.060         69.17	     9.110
  34.080         50.00	     7.746
  34.100         64.17	     8.775
  34.120         59.17	     8.426
  34.140         73.33	     9.381
  34.160         52.50	     7.937
  34.180         62.50	     8.660
  34.200         86.67	    10.198
  34.220         65.83	     8.888
  34.240         60.83	     8.544
  34.260         69.17	     9.110
  34.280         85.00	    10.100
  34.300        102.50	    11.091
  34.320         97.50	    10.817
  34.340        100.83	    11.000
  34.360        103.33	    11.136
  34.380        110.83	    11.533
  34.400        123.33	    12.166
  34.420        114.17	    11.705
  34.440        119.17	    11.958
  34.460        123.33	    12.166
  34.480        116.67	    11.832
  34.500        115.00	    11.747
  34.520         82.50	     9.950
  34.540         87.50	    10.247
  34.560         91.67	    10.488
  34.580         98.33	    10.863
  34.600         74.17	     9.434
  34.620         79.17	     9.747
  34.640         88.33	    10.296
  34.660         93.33	    10.583
  34.680        108.33	    11.402
  34.700        105.83	    11.269
  34.720        121.67	    12.083
  34.740         99.17	    10.909
  34.760        118.33	    11.916
  34.780        121.67	    12.083
  34.800        134.17	    12.689
  34.820        130.83	    12.530
  34.840        108.33	    11.402
  34.860        108.33	    11.402
  34.880        128.33	    12.410
  34.900        127.50	    12.369
  34.920        133.33	    12.649
  34.940        123.33	    12.166
  34.960        115.00	    11.747
  34.980         95.83	    10.724
  35.000         94.17	    10.630
  35.020        111.67	    11.576
  35.040         94.17	    10.630
  35.060         93.33	    10.583
  35.080         81.67	     9.899
  35.100         93.33	    10.583
  35.120         75.00	     9.487
  35.140         81.67	     9.899
  35.160         73.33	     9.381
  35.180         81.67	     9.899
  35.200        102.50	    11.091
  35.220         70.83	     9.220
  35.240         72.50	     9.327
  35.260         85.83	    10.149
  35.280         92.50	    10.536
  35.300        109.17	    11.446
  35.320        103.33	    11.136
  35.340        115.00	    11.747
  35.360        135.00	    12.728
  35.380        153.33	    13.565
  35.400        163.33	    14.000
  35.420        158.33	    13.784
  35.440        137.50	    12.845
  35.460        168.33	    14.213
  35.480        145.00	    13.191
  35.500        165.83	    14.107
  35.520        155.83	    13.675
  35.540        133.33	    12.649
  35.560        101.67	    11.045
  35.580         91.67	    10.488
  35.600         86.67	    10.198
  35.620         97.50	    10.817
  35.640         96.67	    10.770
  35.660         70.83	     9.220
  35.680         67.50	     9.000
  35.700         58.33	     8.367
  35.720         67.50	     9.000
  35.740         59.17	     8.426
  35.760         59.17	     8.426
  35.780         55.00	     8.124
  35.800         54.17	     8.062
  35.820         53.33	     8.000
  35.840         58.33	     8.367
  35.860         59.17	     8.426
  35.880         63.33	     8.718
  35.900         57.50	     8.307
  35.920         65.83	     8.888
  35.940         73.33	     9.381
  35.960         51.67	     7.874
  35.980         67.50	     9.000
  36.000         60.83	     8.544
  36.020         67.50	     9.000
  36.040         59.17	     8.426
  36.060         55.00	     8.124
  36.080         49.17	     7.681
  36.100         65.00	     8.832
  36.120         60.00	     8.485
  36.140         54.17	     8.062
  36.160         51.67	     7.874
  36.180         58.33	     8.367
  36.200         55.83	     8.185
  36.220         60.83	     8.544
  36.240         78.33	     9.695
  36.260         77.50	     9.644
  36.280         80.00	     9.798
  36.300         87.50	    10.247
  36.320         85.00	    10.100
  36.340        115.83	    11.790
  36.360        127.50	    12.369
  36.380        122.50	    12.124
  36.400        180.83	    14.731
  36.420        178.33	    14.629
  36.440        144.17	    13.153
  36.460        121.67	    12.083
  36.480        130.83	    12.530
  36.500        115.83	    11.790
  36.520        142.50	    13.077
  36.540        109.17	    11.446
  36.560        115.00	    11.747
  36.580        101.67	    11.045
  36.600         90.83	    10.440
  36.620         95.83	    10.724
  36.640         84.17	    10.050
  36.660        100.00	    10.954
  36.680         87.50	    10.247
  36.700         81.67	     9.899
  36.720         72.50	     9.327
  36.740         54.17	     8.062
  36.760         74.17	     9.434
  36.780         60.83	     8.544
  36.800         53.33	     8.000
  36.820         55.83	     8.185
  36.840         63.33	     8.718
  36.860         57.50	     8.307
  36.880         56.67	     8.246
  36.900         50.00	     7.746
  36.920         52.50	     7.937
  36.940         47.50	     7.550
  36.960         52.50	     7.937
  36.980         59.17	     8.426
  37.000         50.00	     7.746
  37.020         56.67	     8.246
  37.040         65.83	     8.888
  37.060         61.67	     8.602
  37.080         60.00	     8.485
  37.100         62.50	     8.660
  37.120         57.50	     8.307
  37.140         60.83	     8.544
  37.160         66.67	     8.944
  37.180         75.00	     9.487
  37.200         55.83	     8.185
  37.220         75.83	     9.539
  37.240         71.67	     9.274
  37.260         81.67	     9.899
  37.280         67.50	     9.000
  37.300         67.50	     9.000
  37.320         70.00	     9.165
  37.340         69.17	     9.110
  37.360         74.17	     9.434
  37.380         70.83	     9.220
  37.400         90.83	    10.440
  37.420         95.83	    10.724
  37.440         98.33	    10.863
  37.460         95.83	    10.724
  37.480         92.50	    10.536
  37.500         91.67	    10.488
  37.520         98.33	    10.863
  37.540        108.33	    11.402
  37.560         89.17	    10.344
  37.580         85.83	    10.149
  37.600         83.33	    10.000
  37.620         85.00	    10.100
  37.640        101.67	    11.045
  37.660         88.33	    10.296
  37.680         75.00	     9.487
  37.700         70.00	     9.165
  37.720         70.00	     9.165
  37.740         56.67	     8.246
  37.760         53.33	     8.000
  37.780         52.50	     7.937
  37.800         36.67	     6.633
  37.820         60.00	     8.485
  37.840         41.67	     7.071
  37.860         47.50	     7.550
  37.880         31.67	     6.164
  37.900         45.83	     7.416
  37.920         35.00	     6.481
  37.940         41.67	     7.071
  37.960         48.33	     7.616
  37.980         42.50	     7.141
  38.000         40.00	     6.928
  38.020         40.83	     7.000
  38.040         36.67	     6.633
  38.060         47.50	     7.550
  38.080         35.83	     6.557
  38.100         35.00	     6.481
  38.120         42.50	     7.141
  38.140         34.17	     6.403
  38.160         26.67	     5.657
  38.180         39.17	     6.856
  38.200         40.83	     7.000
  38.220         45.00	     7.348
  38.240         48.33	     7.616
  38.260         25.83	     5.568
  38.280         49.17	     7.681
  38.300         55.83	     8.185
  38.320         45.00	     7.348
  38.340         51.67	     7.874
  38.360         47.50	     7.550
  38.380         46.67	     7.483
  38.400         42.50	     7.141
  38.420         57.50	     8.307
  38.440         47.50	     7.550
  38.460         45.83	     7.416
  38.480         61.67	     8.602
  38.500         68.33	     9.055
  38.520         50.83	     7.810
  38.540         55.00	     8.124
  38.560         50.83	     7.810
  38.580         48.33	     7.616
  38.600         55.00	     8.124
  38.620         49.17	     7.681
  38.640         65.00	     8.832
  38.660         40.83	     7.000
  38.680         56.67	     8.246
  38.700         64.17	     8.775
  38.720         65.83	     8.888
  38.740         44.17	     7.280
  38.760         49.17	     7.681
  38.780         54.17	     8.062
  38.800         50.00	     7.746
  38.820         39.17	     6.856
  38.840         54.17	     8.062
  38.860         45.00	     7.348
  38.880         47.50	     7.550
  38.900         53.33	     8.000
  38.920         35.00	     6.481
  38.940         46.67	     7.483
  38.960         40.00	     6.928
  38.980         56.67	     8.246
  39.000         40.00	     6.928
  39.020         46.67	     7.483
  39.040         57.50	     8.307
  39.060         55.83	     8.185
  39.080         52.50	     7.937
  39.100         50.00	     7.746
  39.120         47.50	     7.550
  39.140         60.00	     8.485
  39.160         50.00	     7.746
  39.180         56.67	     8.246
  39.200         50.83	     7.810
  39.220         60.83	     8.544
  39.240         68.33	     9.055
  39.260         74.17	     9.434
  39.280         95.83	    10.724
  39.300        125.83	    12.288
  39.320        134.17	    12.689
  39.340        167.50	    14.177
  39.360        150.83	    13.454
  39.380        110.00	    11.489
  39.400         91.67	    10.488
  39.420        101.67	    11.045
  39.440        100.83	    11.000
  39.460         97.50	    10.817
  39.480         89.17	    10.344
  39.500         90.83	    10.440
  39.520         60.83	     8.544
  39.540         55.00	     8.124
  39.560         90.83	    10.440
  39.580        132.50	    12.610
  39.600        194.17	    15.264
  39.620        234.17	    16.763
  39.640        220.00	    16.248
  39.660        123.33	    12.166
  39.680        115.00	    11.747
  39.700        120.00	    12.000
  39.720        145.00	    13.191
  39.740        141.67	    13.038
  39.760         91.67	    10.488
  39.780         77.50	     9.644
  39.800         60.00	     8.485
  39.820         50.00	     7.746
  39.840         65.00	     8.832
  39.860         63.33	     8.718
  39.880         51.67	     7.874
  39.900         50.00	     7.746
  39.920         47.50	     7.550
  39.940         48.33	     7.616
  39.960         43.33	     7.211
  39.980         55.83	     8.185
  40.000         55.83	     8.185
  40.020         49.17	     7.681
  40.040         69.17	     9.110
  40.060         50.83	     7.810
  40.080         68.33	     9.055
  40.100         63.33	     8.718
  40.120         80.00	     9.798
  40.140         86.67	    10.198
  40.160        118.33	    11.916
  40.180        125.00	    12.247
  40.200         72.50	     9.327
  40.220         79.17	     9.747
  40.240         88.33	    10.296
  40.260         69.17	     9.110
  40.280         84.17	    10.050
  40.300         75.00	     9.487
  40.320         52.50	     7.937
  40.340         50.00	     7.746
  40.360         67.50	     9.000
  40.380         63.33	     8.718
  40.400         39.17	     6.856
  40.420         38.33	     6.782
  40.440         39.17	     6.856
  40.460         46.67	     7.483
  40.480         42.50	     7.141
  40.500         44.17	     7.280
  40.520         46.67	     7.483
  40.540         53.33	     8.000
  40.560         40.83	     7.000
  40.580         45.83	     7.416
  40.600         58.33	     8.367
  40.620         56.67	     8.246
  40.640         56.67	     8.246
  40.660         61.67	     8.602
  40.680         66.67	     8.944
  40.700         54.17	     8.062
  40.720         57.50	     8.307
  40.740         53.33	     8.000
  40.760         45.00	     7.348
  40.780         40.83	     7.000
  40.800         49.17	     7.681
  40.820         48.33	     7.616
  40.840         36.67	     6.633
  40.860         54.17	     8.062
  40.880         51.67	     7.874
  40.900         40.00	     6.928
  40.920         53.33	     8.000
  40.940         46.67	     7.483
  40.960         44.17	     7.280
  40.980         38.33	     6.782
  41.000         62.50	     8.660
  41.020         53.33	     8.000
  41.040         67.50	     9.000
  41.060         75.83	     9.539
  41.080         75.83	     9.539
  41.100         90.83	    10.440
  41.120         87.50	    10.247
  41.140         86.67	    10.198
  41.160         67.50	     9.000
  41.180         60.83	     8.544
  41.200         60.83	     8.544
  41.220         87.50	    10.247
  41.240         75.00	     9.487
  41.260         50.00	     7.746
  41.280         54.17	     8.062
  41.300         60.83	     8.544
  41.320         47.50	     7.550
  41.340         59.17	     8.426
  41.360         51.67	     7.874
  41.380         47.50	     7.550
  41.400         55.00	     8.124
  41.420         50.83	     7.810
  41.440         55.00	     8.124
  41.460         63.33	     8.718
  41.480         62.50	     8.660
  41.500         65.00	     8.832
  41.520         78.33	     9.695
  41.540         91.67	    10.488
  41.560         96.67	    10.770
  41.580         80.83	     9.849
  41.600         90.00	    10.392
  41.620         77.50	     9.644
  41.640         78.33	     9.695
  41.660         87.50	    10.247
  41.680         64.17	     8.775
  41.700         77.50	     9.644
  41.720         70.00	     9.165
  41.740         65.00	     8.832
  41.760         64.17	     8.775
  41.780         60.00	     8.485
  41.800         58.33	     8.367
  41.820         59.17	     8.426
  41.840         60.00	     8.485
  41.860         70.83	     9.220
  41.880         62.50	     8.660
  41.900         58.33	     8.367
  41.920         65.83	     8.888
  41.940         62.50	     8.660
  41.960         50.83	     7.810
  41.980         63.33	     8.718
  42.000         66.67	     8.944
  42.020         55.00	     8.124
  42.040         71.67	     9.274
  42.060         53.33	     8.000
  42.080         57.50	     8.307
  42.100         69.17	     9.110
  42.120         56.67	     8.246
  42.140         61.67	     8.602
  42.160         80.00	     9.798
  42.180         67.50	     9.000
  42.200         84.17	    10.050
  42.220         79.17	     9.747
  42.240         85.00	    10.100
  42.260        106.67	    11.314
  42.280        119.17	    11.958
  42.300        140.83	    13.000
  42.320        148.33	    13.342
  42.340        152.50	    13.528
  42.360        155.00	    13.638
  42.380        138.33	    12.884
  42.400        107.50	    11.358
  42.420        111.67	    11.576
  42.440         94.17	    10.630
  42.460         96.67	    10.770
  42.480         78.33	     9.695
  42.500         63.33	     8.718
  42.520         56.67	     8.246
  42.540         63.33	     8.718
  42.560         73.33	     9.381
  42.580         60.83	     8.544
  42.600         48.33	     7.616
  42.620         60.83	     8.544
  42.640         47.50	     7.550
  42.660         70.83	     9.220
  42.680         62.50	     8.660
  42.700         71.67	     9.274
  42.720         57.50	     8.307
  42.740         50.00	     7.746
  42.760         55.83	     8.185
  42.780         60.00	     8.485
  42.800         55.83	     8.185
  42.820         61.67	     8.602
  42.840         45.83	     7.416
  42.860         39.17	     6.856
  42.880         52.50	     7.937
  42.900         44.17	     7.280
  42.920         53.33	     8.000
  42.940         56.67	     8.246
  42.960         71.67	     9.274
  42.980         59.17	     8.426
  43.000         54.17	     8.062
  43.020         57.50	     8.307
  43.040         46.67	     7.483
  43.060         61.67	     8.602
  43.080         65.83	     8.888
  43.100         60.83	     8.544
  43.120         55.83	     8.185
  43.140         61.67	     8.602
  43.160         65.00	     8.832
  43.180         50.00	     7.746
  43.200         53.33	     8.000
  43.220         61.67	     8.602
  43.240         74.17	     9.434
  43.260         63.33	     8.718
  43.280         70.00	     9.165
  43.300         58.33	     8.367
  43.320         67.50	     9.000
  43.340         82.50	     9.950
  43.360         78.33	     9.695
  43.380        101.67	    11.045
  43.400         83.33	    10.000
  43.420         95.00	    10.677
  43.440         98.33	    10.863
  43.460        115.83	    11.790
  43.480        104.17	    11.180
  43.500        112.50	    11.619
  43.520        120.83	    12.042
  43.540        106.67	    11.314
  43.560        121.67	    12.083
  43.580        113.33	    11.662
  43.600        118.33	    11.916
  43.620        107.50	    11.358
  43.640        104.17	    11.180
  43.660        120.83	    12.042
  43.680        101.67	    11.045
  43.700        101.67	    11.045
  43.720        100.83	    11.000
  43.740         85.00	    10.100
  43.760         85.83	    10.149
  43.780        100.83	    11.000
  43.800        104.17	    11.180
  43.820         93.33	    10.583
  43.840        103.33	    11.136
  43.860        106.67	    11.314
  43.880        100.83	    11.000
  43.900        103.33	    11.136
  43.920        110.00	    11.489
  43.940        104.17	    11.180
  43.960        105.00	    11.225
  43.980        110.00	    11.489
  44.000        132.50	    12.610
  44.020         95.00	    10.677
  44.040        125.83	    12.288
  44.060        129.17	    12.450
  44.080        140.83	    13.000
  44.100        158.33	    13.784
  44.120        160.83	    13.892
  44.140        163.33	    14.000
  44.160        175.83	    14.526
  44.180        215.83	    16.093
  44.200        215.00	    16.062
  44.220        214.17	    16.031
  44.240        227.50	    16.523
  44.260        250.00	    17.321
  44.280        246.67	    17.205
  44.300        298.33	    18.921
  44.320        280.00	    18.330
  44.340        305.00	    19.131
  44.360        300.83	    19.000
  44.380        294.17	    18.788
  44.400        327.50	    19.824
  44.420        313.33	    19.391
  44.440        275.00	    18.166
  44.460        295.00	    18.815
  44.480        268.33	    17.944
  44.500        265.00	    17.833
  44.520        223.33	    16.371
  44.540        261.67	    17.720
  44.560        225.00	    16.432
  44.580        238.33	    16.912
  44.600        225.00	    16.432
  44.620        225.00	    16.432
  44.640        200.83	    15.524
  44.660        158.33	    13.784
  44.680        190.83	    15.133
  44.700        159.17	    13.820
  44.720        135.00	    12.728
  44.740        136.67	    12.806
  44.760        142.50	    13.077
  44.780        155.83	    13.675
  44.800        141.67	    13.038
  44.820        110.00	    11.489
  44.840        109.17	    11.446
  44.860        109.17	    11.446
  44.880        128.33	    12.410
  44.900        110.00	    11.489
  44.920        103.33	    11.136
  44.940        113.33	    11.662
  44.960         87.50	    10.247
  44.980         79.17	     9.747
  45.000         93.33	    10.583
  45.020        105.00	    11.225
  45.040         90.83	    10.440
  45.060         75.83	     9.539
  45.080         85.83	    10.149
  45.100         91.67	    10.488
  45.120         84.17	    10.050
  45.140         81.67	     9.899
  45.160         87.50	    10.247
  45.180         91.67	    10.488
  45.200         77.50	     9.644
  45.220         73.33	     9.381
  45.240         85.83	    10.149
  45.260         84.17	    10.050
  45.280        100.00	    10.954
  45.300         88.33	    10.296
  45.320         86.67	    10.198
  45.340        104.17	    11.180
  45.360        106.67	    11.314
  45.380        120.00	    12.000
  45.400        106.67	    11.314
  45.420        116.67	    11.832
  45.440        122.50	    12.124
  45.460         93.33	    10.583
  45.480        123.33	    12.166
  45.500        134.17	    12.689
  45.520        110.83	    11.533
  45.540         84.17	    10.050
  45.560         81.67	     9.899
  45.580         96.67	    10.770
  45.600         90.83	    10.440
  45.620        106.67	    11.314
  45.640        126.67	    12.329
  45.660        140.83	    13.000
  45.680        135.00	    12.728
  45.700        127.50	    12.369
  45.720         84.17	    10.050
  45.740         74.17	     9.434
  45.760         80.00	     9.798
  45.780         98.33	    10.863
  45.800        100.83	    11.000
  45.820         91.67	    10.488
  45.840         82.50	     9.950
  45.860         63.33	     8.718
  45.880         55.00	     8.124
  45.900         66.67	     8.944
  45.920         49.17	     7.681
  45.940         59.17	     8.426
  45.960         56.67	     8.246
  45.980         55.00	     8.124
  46.000         58.33	     8.367
  46.020         45.83	     7.416
  46.040         49.17	     7.681
  46.060         45.83	     7.416
  46.080         46.67	     7.483
  46.100         42.50	     7.141
  46.120         45.83	     7.416
  46.140         33.33	     6.325
  46.160         46.67	     7.483
  46.180         43.33	     7.211
  46.200         40.83	     7.000
  46.220         50.00	     7.746
  46.240         36.67	     6.633
  46.260         39.17	     6.856
  46.280         44.17	     7.280
  46.300         43.33	     7.211
  46.320         33.33	     6.325
  46.340         43.33	     7.211
  46.360         43.33	     7.211
  46.380         40.83	     7.000
  46.400         44.17	     7.280
  46.420         46.67	     7.483
  46.440         44.17	     7.280
  46.460         41.67	     7.071
  46.480         33.33	     6.325
  46.500         40.83	     7.000
  46.520         45.83	     7.416
  46.540         48.33	     7.616
  46.560         59.17	     8.426
  46.580         48.33	     7.616
  46.600         41.67	     7.071
  46.620         38.33	     6.782
  46.640         65.83	     8.888
  46.660         81.67	     9.899
  46.680         60.00	     8.485
  46.700         52.50	     7.937
  46.720         45.83	     7.416
  46.740         50.00	     7.746
  46.760         53.33	     8.000
  46.780         62.50	     8.660
  46.800         60.83	     8.544
  46.820         49.17	     7.681
  46.840         36.67	     6.633
  46.860         51.67	     7.874
  46.880         46.67	     7.483
  46.900         36.67	     6.633
  46.920         52.50	     7.937
  46.940         48.33	     7.616
  46.960         47.50	     7.550
  46.980         55.83	     8.185
  47.000         45.00	     7.348
  47.020         43.33	     7.211
  47.040         48.33	     7.616
  47.060         45.83	     7.416
  47.080         41.67	     7.071
  47.100         39.17	     6.856
  47.120         43.33	     7.211
  47.140         36.67	     6.633
  47.160         41.67	     7.071
  47.180         37.50	     6.708
  47.200         33.33	     6.325
  47.220         35.00	     6.481
  47.240         35.83	     6.557
  47.260         45.83	     7.416
  47.280         35.00	     6.481
  47.300         47.50	     7.550
  47.320         39.17	     6.856
  47.340         38.33	     6.782
  47.360         42.50	     7.141
  47.380         42.50	     7.141
  47.400         37.50	     6.708
  47.420         43.33	     7.211
  47.440         36.67	     6.633
  47.460         43.33	     7.211
  47.480         43.33	     7.211
  47.500         43.33	     7.211
  47.520         39.17	     6.856
  47.540         47.50	     7.550
  47.560         40.83	     7.000
  47.580         35.00	     6.481
  47.600         29.17	     5.916
  47.620         34.17	     6.403
  47.640         25.83	     5.568
  47.660         39.17	     6.856
  47.680         40.00	     6.928
  47.700         37.50	     6.708
  47.720         41.67	     7.071
  47.740         42.50	     7.141
  47.760         40.00	     6.928
  47.780         45.83	     7.416
  47.800         43.33	     7.211
  47.820         50.00	     7.746
  47.840         45.00	     7.348
  47.860         60.00	     8.485
  47.880         53.33	     8.000
  47.900         50.00	     7.746
  47.920         50.00	     7.746
  47.940         61.67	     8.602
  47.960         49.17	     7.681
  47.980         51.67	     7.874
  48.000         61.67	     8.602
  48.020         60.83	     8.544
  48.040         55.83	     8.185
  48.060         67.50	     9.000
  48.080         75.83	     9.539
  48.100         97.50	    10.817
  48.120         75.00	     9.487
  48.140         61.67	     8.602
  48.160         54.17	     8.062
  48.180         61.67	     8.602
  48.200         57.50	     8.307
  48.220         60.83	     8.544
  48.240         73.33	     9.381
  48.260         50.00	     7.746
  48.280         46.67	     7.483
  48.300         50.00	     7.746
  48.320         37.50	     6.708
  48.340         44.17	     7.280
  48.360         45.83	     7.416
  48.380         41.67	     7.071
  48.400         50.83	     7.810
  48.420         51.67	     7.874
  48.440         41.67	     7.071
  48.460         43.33	     7.211
  48.480         41.67	     7.071
  48.500         30.83	     6.083
  48.520         44.17	     7.280
  48.540         46.67	     7.483
  48.560         39.17	     6.856
  48.580         39.17	     6.856
  48.600         33.33	     6.325
  48.620         37.50	     6.708
  48.640         34.17	     6.403
  48.660         33.33	     6.325
  48.680         48.33	     7.616
  48.700         36.67	     6.633
  48.720         33.33	     6.325
  48.740         39.17	     6.856
  48.760         35.83	     6.557
  48.780         44.17	     7.280
  48.800         35.00	     6.481
  48.820         33.33	     6.325
  48.840         41.67	     7.071
  48.860         43.33	     7.211
  48.880         43.33	     7.211
  48.900         38.33	     6.782
  48.920         28.33	     5.831
  48.940         38.33	     6.782
  48.960         46.67	     7.483
  48.980         51.67	     7.874
  49.000         34.17	     6.403
  49.020         40.00	     6.928
  49.040         44.17	     7.280
  49.060         55.00	     8.124
  49.080         45.00	     7.348
  49.100         54.17	     8.062
  49.120         56.67	     8.246
  49.140         50.83	     7.810
  49.160         40.83	     7.000
  49.180         50.83	     7.810
  49.200         49.17	     7.681
  49.220         48.33	     7.616
  49.240         35.83	     6.557
  49.260         40.83	     7.000
  49.280         48.33	     7.616
  49.300         38.33	     6.782
  49.320         36.67	     6.633
  49.340         52.50	     7.937
  49.360         40.83	     7.000
  49.380         44.17	     7.280
  49.400         49.17	     7.681
  49.420         30.00	     6.000
  49.440         45.00	     7.348
  49.460         50.83	     7.810
  49.480         55.83	     8.185
  49.500         45.00	     7.348
  49.520         57.50	     8.307
  49.540         51.67	     7.874
  49.560         52.50	     7.937
  49.580         51.67	     7.874
  49.600         61.67	     8.602
  49.620         69.17	     9.110
  49.640         73.33	     9.381
  49.660         61.67	     8.602
  49.680         84.17	    10.050
  49.700         90.83	    10.440
  49.720        102.50	    11.091
  49.740         73.33	     9.381
  49.760         74.17	     9.434
  49.780         72.50	     9.327
  49.800        100.00	    10.954
  49.820        111.67	    11.576
  49.840        100.83	    11.000
  49.860        105.83	    11.269
  49.880         98.33	    10.863
  49.900        121.67	    12.083
  49.920        135.00	    12.728
  49.940        154.17	    13.601
  49.960        208.33	    15.811
  49.980        241.67	    17.029
  50.000        291.67	    18.708
  50.020        276.67	    18.221
  50.040        235.00	    16.793
  50.060        197.50	    15.395
  50.080        175.00	    14.491
  50.100        157.50	    13.748
  50.120        162.50	    13.964
  50.140        197.50	    15.395
  50.160        181.67	    14.765
  50.180        139.17	    12.923
  50.200         92.50	    10.536
  50.220         75.00	     9.487
  50.240         65.83	     8.888
  50.260         54.17	     8.062
  50.280         52.50	     7.937
  50.300         46.67	     7.483
  50.320         61.67	     8.602
  50.340         49.17	     7.681
  50.360         55.83	     8.185
  50.380         65.00	     8.832
  50.400         64.17	     8.775
  50.420         66.67	     8.944
  50.440         75.00	     9.487
  50.460         86.67	    10.198
  50.480         80.83	     9.849
  50.500         80.83	     9.849
  50.520         72.50	     9.327
  50.540         70.83	     9.220
  50.560         66.67	     8.944
  50.580         75.00	     9.487
  50.600         78.33	     9.695
  50.620         77.50	     9.644
  50.640         59.17	     8.426
  50.660         61.67	     8.602
  50.680         56.67	     8.246
  50.700         70.00	     9.165
  50.720         51.67	     7.874
  50.740         59.17	     8.426
  50.760         60.83	     8.544
  50.780         43.33	     7.211
  50.800         50.00	     7.746
  50.820         32.50	     6.245
  50.840         47.50	     7.550
  50.860         43.33	     7.211
  50.880         44.17	     7.280
  50.900         35.83	     6.557
  50.920         54.17	     8.062
  50.940         47.50	     7.550
  50.960         40.83	     7.000
  50.980         44.17	     7.280
  51.000         76.67	     9.592
  51.020         98.33	    10.863
  51.040        107.50	    11.358
  51.060         80.83	     9.849
  51.080         71.67	     9.274
  51.100         59.17	     8.426
  51.120         61.67	     8.602
  51.140         67.50	     9.000
  51.160         77.50	     9.644
  51.180         69.17	     9.110
  51.200         63.33	     8.718
  51.220         53.33	     8.000
  51.240         50.00	     7.746
  51.260         37.50	     6.708
  51.280         40.00	     6.928
  51.300         39.17	     6.856
  51.320         32.50	     6.245
  51.340         40.83	     7.000
  51.360         38.33	     6.782
  51.380         40.00	     6.928
  51.400         35.00	     6.481
  51.420         41.67	     7.071
  51.440         35.00	     6.481
  51.460         36.67	     6.633
  51.480         40.83	     7.000
  51.500         36.67	     6.633
  51.520         32.50	     6.245
  51.540         39.17	     6.856
  51.560         31.67	     6.164
  51.580         39.17	     6.856
  51.600         32.50	     6.245
  51.620         32.50	     6.245
  51.640         30.00	     6.000
  51.660         32.50	     6.245
  51.680         35.00	     6.481
  51.700         35.83	     6.557
  51.720         41.67	     7.071
  51.740         34.17	     6.403
  51.760         33.33	     6.325
  51.780         35.00	     6.481
  51.800         30.00	     6.000
  51.820         34.17	     6.403
  51.840         28.33	     5.831
  51.860         23.33	     5.292
  51.880         30.83	     6.083
  51.900         32.50	     6.245
  51.920         39.17	     6.856
  51.940         35.00	     6.481
  51.960         32.50	     6.245
  51.980         45.00	     7.348
  52.000         43.33	     7.211
  52.020         36.67	     6.633
  52.040         49.17	     7.681
  52.060         50.00	     7.746
  52.080         47.50	     7.550
  52.100         47.50	     7.550
  52.120         50.00	     7.746
  52.140         44.17	     7.280
  52.160         41.67	     7.071
  52.180         53.33	     8.000
  52.200         60.83	     8.544
  52.220         58.33	     8.367
  52.240         59.17	     8.426
  52.260         65.83	     8.888
  52.280         53.33	     8.000
  52.300         50.00	     7.746
  52.320         50.00	     7.746
  52.340         67.50	     9.000
  52.360         51.67	     7.874
  52.380         46.67	     7.483
  52.400         34.17	     6.403
  52.420         41.67	     7.071
  52.440         54.17	     8.062
  52.460         40.83	     7.000
  52.480         52.50	     7.937
  52.500         50.00	     7.746
  52.520         41.67	     7.071
  52.540         52.50	     7.937
  52.560         38.33	     6.782
  52.580         37.50	     6.708
  52.600         34.17	     6.403
  52.620         47.50	     7.550
  52.640         35.00	     6.481
  52.660         30.83	     6.083
  52.680         41.67	     7.071
  52.700         32.50	     6.245
  52.720         37.50	     6.708
  52.740         43.33	     7.211
  52.760         40.83	     7.000
  52.780         45.83	     7.416
  52.800         40.83	     7.000
  52.820         42.50	     7.141
  52.840         42.50	     7.141
  52.860         41.67	     7.071
  52.880         51.67	     7.874
  52.900         52.50	     7.937
  52.920         43.33	     7.211
  52.940         51.67	     7.874
  52.960         48.33	     7.616
  52.980         32.50	     6.245
  53.000         43.33	     7.211
  53.020         56.67	     8.246
  53.040         44.17	     7.280
  53.060         54.17	     8.062
  53.080         48.33	     7.616
  53.100         39.17	     6.856
  53.120         58.33	     8.367
  53.140         53.33	     8.000
  53.160         40.83	     7.000
  53.180         44.17	     7.280
  53.200         45.83	     7.416
  53.220         49.17	     7.681
  53.240         52.50	     7.937
  53.260         35.00	     6.481
  53.280         50.83	     7.810
  53.300         41.67	     7.071
  53.320         40.00	     6.928
  53.340         41.67	     7.071
  53.360         25.83	     5.568
  53.380         44.17	     7.280
  53.400         37.50	     6.708
  53.420         35.83	     6.557
  53.440         34.17	     6.403
  53.460         36.67	     6.633
  53.480         36.67	     6.633
  53.500         50.83	     7.810
  53.520         46.67	     7.483
  53.540         45.83	     7.416
  53.560         38.33	     6.782
  53.580         40.83	     7.000
  53.600         40.00	     6.928
  53.620         40.00	     6.928
  53.640         39.17	     6.856
  53.660         42.50	     7.141
  53.680         34.17	     6.403
  53.700         44.17	     7.280
  53.720         42.50	     7.141
  53.740         40.83	     7.000
  53.760         40.00	     6.928
  53.780         46.67	     7.483
  53.800         45.83	     7.416
  53.820         37.50	     6.708
  53.840         42.50	     7.141
  53.860         48.33	     7.616
  53.880         44.17	     7.280
  53.900         36.67	     6.633
  53.920         35.83	     6.557
  53.940         40.83	     7.000
  53.960         60.00	     8.485
  53.980         34.17	     6.403
  54.000         52.50	     7.937
  54.020         43.33	     7.211
  54.040         35.00	     6.481
  54.060         49.17	     7.681
  54.080         59.17	     8.426
  54.100         80.00	     9.798
  54.120         60.00	     8.485
  54.140         50.83	     7.810
  54.160         61.67	     8.602
  54.180         53.33	     8.000
  54.200         50.83	     7.810
  54.220         59.17	     8.426
  54.240         58.33	     8.367
  54.260         54.17	     8.062
  54.280         61.67	     8.602
  54.300         43.33	     7.211
  54.320         59.17	     8.426
  54.340         38.33	     6.782
  54.360         49.17	     7.681
  54.380         40.83	     7.000
  54.400         50.00	     7.746
  54.420         50.00	     7.746
  54.440         50.00	     7.746
  54.460         58.33	     8.367
  54.480         42.50	     7.141
  54.500         47.50	     7.550
  54.520         43.33	     7.211
  54.540         35.00	     6.481
  54.560         41.67	     7.071
  54.580         49.17	     7.681
  54.600         54.17	     8.062
  54.620         70.00	     9.165
  54.640         58.33	     8.367
  54.660         55.00	     8.124
  54.680         80.83	     9.849
  54.700         86.67	    10.198
  54.720        114.17	    11.705
  54.740        115.83	    11.790
  54.760        100.83	    11.000
  54.780         99.17	    10.909
  54.800         80.83	     9.849
  54.820         63.33	     8.718
  54.840         63.33	     8.718
  54.860         80.00	     9.798
  54.880         90.00	    10.392
  54.900         86.67	    10.198
  54.920         65.83	     8.888
  54.940         65.83	     8.888
  54.960         58.33	     8.367
  54.980         60.83	     8.544
  55.000         45.83	     7.416
  55.020         43.33	     7.211
  55.040         53.33	     8.000
  55.060         65.00	     8.832
  55.080         52.50	     7.937
  55.100         52.50	     7.937
  55.120         61.67	     8.602
  55.140         57.50	     8.307
  55.160         55.00	     8.124
  55.180         66.67	     8.944
  55.200         65.00	     8.832
  55.220         79.17	     9.747
  55.240         64.17	     8.775
  55.260         60.83	     8.544
  55.280         48.33	     7.616
  55.300         53.33	     8.000
  55.320         53.33	     8.000
  55.340         55.00	     8.124
  55.360         60.00	     8.485
  55.380         48.33	     7.616
  55.400         53.33	     8.000
  55.420         61.67	     8.602
  55.440         46.67	     7.483
  55.460         48.33	     7.616
  55.480         40.00	     6.928
  55.500         60.00	     8.485
  55.520         41.67	     7.071
  55.540         59.17	     8.426
  55.560         62.50	     8.660
  55.580         59.17	     8.426
  55.600         65.00	     8.832
  55.620         67.50	     9.000
  55.640         65.00	     8.832
  55.660         75.00	     9.487
  55.680         61.67	     8.602
  55.700         65.00	     8.832
  55.720         59.17	     8.426
  55.740         55.00	     8.124
  55.760         74.17	     9.434
  55.780         73.33	     9.381
  55.800         59.17	     8.426
  55.820         58.33	     8.367
  55.840         63.33	     8.718
  55.860         43.33	     7.211
  55.880         51.67	     7.874
  55.900         55.00	     8.124
  55.920         57.50	     8.307
  55.940         43.33	     7.211
  55.960         53.33	     8.000
  55.980         53.33	     8.000
  56.000         50.83	     7.810
  56.020         55.83	     8.185
  56.040         52.50	     7.937
  56.060         53.33	     8.000
  56.080         42.50	     7.141
  56.100         46.67	     7.483
  56.120         45.00	     7.348
  56.140         50.83	     7.810
  56.160         53.33	     8.000
  56.180         49.17	     7.681
  56.200         49.17	     7.681
  56.220         45.00	     7.348
  56.240         52.50	     7.937
  56.260         50.83	     7.810
  56.280         54.17	     8.062
  56.300         47.50	     7.550
  56.320         40.00	     6.928
  56.340         50.83	     7.810
  56.360         50.83	     7.810
  56.380         47.50	     7.550
  56.400         56.67	     8.246
  56.420         46.67	     7.483
  56.440         37.50	     6.708
  56.460         41.67	     7.071
  56.480         41.67	     7.071
  56.500         59.17	     8.426
  56.520         54.17	     8.062
  56.540         51.67	     7.874
  56.560         45.83	     7.416
  56.580         52.50	     7.937
  56.600         48.33	     7.616
  56.620         60.00	     8.485
  56.640         50.00	     7.746
  56.660         47.50	     7.550
  56.680         45.00	     7.348
  56.700         60.00	     8.485
  56.720         38.33	     6.782
  56.740         38.33	     6.782
  56.760         40.00	     6.928
  56.780         37.50	     6.708
  56.800         41.67	     7.071
  56.820         29.17	     5.916
  56.840         39.17	     6.856
  56.860         41.67	     7.071
  56.880         34.17	     6.403
  56.900         34.17	     6.403
  56.920         36.67	     6.633
  56.940         35.00	     6.481
  56.960         35.00	     6.481
  56.980         33.33	     6.325
  57.000         33.33	     6.325
  57.020         41.67	     7.071
  57.040         40.83	     7.000
  57.060         52.50	     7.937
  57.080         35.83	     6.557
  57.100         36.67	     6.633
  57.120         42.50	     7.141
  57.140         40.83	     7.000
  57.160         36.67	     6.633
  57.180         42.50	     7.141
  57.200         40.00	     6.928
  57.220         38.33	     6.782
  57.240         35.83	     6.557
  57.260         40.83	     7.000
  57.280         41.67	     7.071
  57.300         33.33	     6.325
  57.320         45.83	     7.416
  57.340         48.33	     7.616
  57.360         34.17	     6.403
  57.380         40.00	     6.928
  57.400         48.33	     7.616
  57.420         39.17	     6.856
  57.440         39.17	     6.856
  57.460         36.67	     6.633
  57.480         32.50	     6.245
  57.500         31.67	     6.164
  57.520         41.67	     7.071
  57.540         41.67	     7.071
  57.560         37.50	     6.708
  57.580         41.67	     7.071
  57.600         37.50	     6.708
  57.620         33.33	     6.325
  57.640         50.83	     7.810
  57.660         60.83	     8.544
  57.680         32.50	     6.245
  57.700         40.00	     6.928
  57.720         26.67	     5.657
  57.740         45.83	     7.416
  57.760         30.00	     6.000
  57.780         43.33	     7.211
  57.800         41.67	     7.071
  57.820         39.17	     6.856
  57.840         68.33	     9.055
  57.860         63.33	     8.718
  57.880         63.33	     8.718
  57.900         48.33	     7.616
  57.920         37.50	     6.708
  57.940         41.67	     7.071
  57.960         53.33	     8.000
  57.980         59.17	     8.426
  58.000         60.00	     8.485
  58.020         48.33	     7.616
  58.040         60.83	     8.544
  58.060         55.83	     8.185
  58.080         50.83	     7.810
  58.100         53.33	     8.000
  58.120         51.67	     7.874
  58.140         59.17	     8.426
  58.160         50.83	     7.810
  58.180         50.83	     7.810
  58.200         55.00	     8.124
  58.220         45.83	     7.416
  58.240         38.33	     6.782
  58.260         58.33	     8.367
  58.280         44.17	     7.280
  58.300         59.17	     8.426
  58.320         55.83	     8.185
  58.340         50.83	     7.810
  58.360         50.83	     7.810
  58.380         70.00	     9.165
  58.400         64.17	     8.775
  58.420         66.67	     8.944
  58.440         72.50	     9.327
  58.460         63.33	     8.718
  58.480         65.83	     8.888
  58.500         81.67	     9.899
  58.520         85.00	    10.100
  58.540         70.83	     9.220
  58.560         69.17	     9.110
  58.580         67.50	     9.000
  58.600         60.83	     8.544
  58.620         71.67	     9.274
  58.640         62.50	     8.660
  58.660         65.00	     8.832
  58.680         58.33	     8.367
  58.700         46.67	     7.483
  58.720         43.33	     7.211
  58.740         53.33	     8.000
  58.760         54.17	     8.062
  58.780         50.83	     7.810
  58.800         47.50	     7.550
  58.820         44.17	     7.280
  58.840         44.17	     7.280
  58.860         50.00	     7.746
  58.880         60.00	     8.485
  58.900         54.17	     8.062
  58.920         55.83	     8.185
  58.940         45.00	     7.348
  58.960         57.50	     8.307
  58.980         50.83	     7.810
  59.000         62.50	     8.660
  59.020         56.67	     8.246
  59.040         55.83	     8.185
  59.060         60.83	     8.544
  59.080         45.00	     7.348
  59.100         60.83	     8.544
  59.120         46.67	     7.483
  59.140         44.17	     7.280
  59.160         47.50	     7.550
  59.180         61.67	     8.602
  59.200         54.17	     8.062
  59.220         47.50	     7.550
  59.240         47.50	     7.550
  59.260         53.33	     8.000
  59.280         41.67	     7.071
  59.300         32.50	     6.245
  59.320         41.67	     7.071
  59.340         54.17	     8.062
  59.360         42.50	     7.141
  59.380         45.83	     7.416
  59.400         44.17	     7.280
  59.420         57.50	     8.307
  59.440         56.67	     8.246
  59.460         40.83	     7.000
  59.480         51.67	     7.874
  59.500         52.50	     7.937
  59.520         50.83	     7.810
  59.540         45.83	     7.416
  59.560         50.83	     7.810
  59.580         50.00	     7.746
  59.600         59.17	     8.426
  59.620         40.83	     7.000
  59.640         52.50	     7.937
  59.660         59.17	     8.426
  59.680         60.83	     8.544
  59.700         78.33	     9.695
  59.720         82.50	     9.950
  59.740         98.33	    10.863
  59.760        130.00	    12.490
  59.780        153.33	    13.565
  59.800        210.00	    15.875
  59.820        235.00	    16.793
  59.840        262.50	    17.748
  59.860        215.83	    16.093
  59.880        191.67	    15.166
  59.900        155.00	    13.638
  59.920        110.00	    11.489
  59.940        120.00	    12.000
  59.960        140.00	    12.961
  59.980        132.50	    12.610
  60.000        156.67	    13.711
  60.020        165.83	    14.107
  60.040        133.33	    12.649
  60.060         94.17	    10.630
  60.080         92.50	    10.536
  60.100         62.50	     8.660
  60.120         55.00	     8.124
  60.140         69.17	     9.110
  60.160         63.33	     8.718
  60.180         54.17	     8.062
  60.200         59.17	     8.426
  60.220         70.00	     9.165
  60.240         60.00	     8.485
  60.260         55.00	     8.124
  60.280         48.33	     7.616
  60.300         54.17	     8.062
  60.320         52.50	     7.937
  60.340         46.67	     7.483
  60.360         56.67	     8.246
  60.380         50.83	     7.810
  60.400         61.67	     8.602
  60.420         53.33	     8.000
  60.440         50.83	     7.810
  60.460         50.00	     7.746
  60.480         54.17	     8.062
  60.500         53.33	     8.000
  60.520         50.00	     7.746
  60.540         57.50	     8.307
  60.560         56.67	     8.246
  60.580         75.00	     9.487
  60.600         63.33	     8.718
  60.620         48.33	     7.616
  60.640         68.33	     9.055
  60.660         54.17	     8.062
  60.680         46.67	     7.483
  60.700         55.83	     8.185
  60.720         55.00	     8.124
  60.740         65.00	     8.832
  60.760         60.00	     8.485
  60.780         51.67	     7.874
  60.800         41.67	     7.071
  60.820         68.33	     9.055
  60.840         56.67	     8.246
  60.860         50.00	     7.746
  60.880         51.67	     7.874
  60.900         41.67	     7.071
  60.920         53.33	     8.000
  60.940         38.33	     6.782
  60.960         51.67	     7.874
  60.980         55.83	     8.185
  61.000         49.17	     7.681
  61.020         51.67	     7.874
  61.040         35.83	     6.557
  61.060         38.33	     6.782
  61.080         63.33	     8.718
  61.100         54.17	     8.062
  61.120         54.17	     8.062
  61.140         40.83	     7.000
  61.160         60.00	     8.485
  61.180         65.83	     8.888
  61.200         56.67	     8.246
  61.220         52.50	     7.937
  61.240         51.67	     7.874
  61.260         58.33	     8.367
  61.280         47.50	     7.550
  61.300         71.67	     9.274
  61.320         73.33	     9.381
  61.340         85.83	    10.149
  61.360         85.83	    10.149
  61.380         86.67	    10.198
  61.400         72.50	     9.327
  61.420         66.67	     8.944
  61.440         83.33	    10.000
  61.460         70.00	     9.165
  61.480         85.00	    10.100
  61.500         69.17	     9.110
  61.520         70.00	     9.165
  61.540         79.17	     9.747
  61.560         75.83	     9.539
  61.580         66.67	     8.944
  61.600         74.17	     9.434
  61.620         72.50	     9.327
  61.640         54.17	     8.062
  61.660         74.17	     9.434
  61.680         71.67	     9.274
  61.700         52.50	     7.937
  61.720         60.83	     8.544
  61.740         52.50	     7.937
  61.760         61.67	     8.602
  61.780         56.67	     8.246
  61.800         62.50	     8.660
  61.820         60.83	     8.544
  61.840         55.83	     8.185
  61.860         51.67	     7.874
  61.880         65.83	     8.888
  61.900         50.00	     7.746
  61.920         56.67	     8.246
  61.940         50.00	     7.746
  61.960         54.17	     8.062
  61.980         49.17	     7.681
  62.000         39.17	     6.856
  62.020         43.33	     7.211
  62.040         37.50	     6.708
  62.060         37.50	     6.708
  62.080         44.17	     7.280
  62.100         49.17	     7.681
  62.120         30.83	     6.083
  62.140         38.33	     6.782
  62.160         31.67	     6.164
  62.180         35.00	     6.481
  62.200         35.00	     6.481
  62.220         40.83	     7.000
  62.240         31.67	     6.164
  62.260         35.83	     6.557
  62.280         35.00	     6.481
  62.300         40.83	     7.000
  62.320         31.67	     6.164
  62.340         48.33	     7.616
  62.360         45.00	     7.348
  62.380         45.83	     7.416
  62.400         31.67	     6.164
  62.420         44.17	     7.280
  62.440         35.83	     6.557
  62.460         45.00	     7.348
  62.480         40.00	     6.928
  62.500         33.33	     6.325
  62.520         42.50	     7.141
  62.540         43.33	     7.211
  62.560         47.50	     7.550
  62.580         46.67	     7.483
  62.600         40.00	     6.928
  62.620         40.83	     7.000
  62.640         36.67	     6.633
  62.660         36.67	     6.633
  62.680         39.17	     6.856
  62.700         36.67	     6.633
  62.720         40.83	     7.000
  62.740         39.17	     6.856
  62.760         36.67	     6.633
  62.780         36.67	     6.633
  62.800         31.67	     6.164
  62.820         37.50	     6.708
  62.840         32.50	     6.245
  62.860         55.00	     8.124
  62.880         36.67	     6.633
  62.900         35.83	     6.557
  62.920         54.17	     8.062
  62.940         33.33	     6.325
  62.960         52.50	     7.937
  62.980         28.33	     5.831
  63.000         40.00	     6.928
  63.020         32.50	     6.245
  63.040         40.83	     7.000
  63.060         45.83	     7.416
  63.080         56.67	     8.246
  63.100         30.83	     6.083
  63.120         42.50	     7.141
  63.140         45.83	     7.416
  63.160         35.00	     6.481
  63.180         35.83	     6.557
  63.200         32.50	     6.245
  63.220         60.00	     8.485
  63.240         45.83	     7.416
  63.260         40.00	     6.928
  63.280         52.50	     7.937
  63.300         39.17	     6.856
  63.320         48.33	     7.616
  63.340         36.67	     6.633
  63.360         43.33	     7.211
  63.380         45.83	     7.416
  63.400         45.83	     7.416
  63.420         45.00	     7.348
  63.440         38.33	     6.782
  63.460         27.50	     5.745
  63.480         40.00	     6.928
  63.500         34.17	     6.403
  63.520         40.83	     7.000
  63.540         45.00	     7.348
  63.560         51.67	     7.874
  63.580         43.33	     7.211
  63.600         45.00	     7.348
  63.620         51.67	     7.874
  63.640         47.50	     7.550
  63.660         37.50	     6.708
  63.680         45.83	     7.416
  63.700         61.67	     8.602
  63.720         60.00	     8.485
  63.740         50.00	     7.746
  63.760         55.00	     8.124
  63.780         62.50	     8.660
  63.800         49.17	     7.681
  63.820         68.33	     9.055
  63.840         57.50	     8.307
  63.860         59.17	     8.426
  63.880         60.83	     8.544
  63.900         72.50	     9.327
  63.920         84.17	    10.050
  63.940         81.67	     9.899
  63.960         75.00	     9.487
  63.980         70.00	     9.165
  64.000         58.33	     8.367
  64.020         64.17	     8.775
  64.040         59.17	     8.426
  64.060         58.33	     8.367
  64.080         50.00	     7.746
  64.100         53.33	     8.000
  64.120         60.00	     8.485
  64.140         48.33	     7.616
  64.160         45.00	     7.348
  64.180         37.50	     6.708
  64.200         50.83	     7.810
  64.220         49.17	     7.681
  64.240         46.67	     7.483
  64.260         40.00	     6.928
  64.280         34.17	     6.403
  64.300         54.17	     8.062
  64.320         45.83	     7.416
  64.340         43.33	     7.211
  64.360         40.83	     7.000
  64.380         39.17	     6.856
  64.400         42.50	     7.141
  64.420         46.67	     7.483
  64.440         41.67	     7.071
  64.460         44.17	     7.280
  64.480         39.17	     6.856
  64.500         40.00	     6.928
  64.520         57.50	     8.307
  64.540         45.00	     7.348
  64.560         64.17	     8.775
  64.580         45.00	     7.348
  64.600         60.83	     8.544
  64.620         66.67	     8.944
  64.640         69.17	     9.110
  64.660         55.83	     8.185
  64.680         55.83	     8.185
  64.700         51.67	     7.874
  64.720         44.17	     7.280
  64.740         51.67	     7.874
  64.760         44.17	     7.280
  64.780         47.50	     7.550
  64.800         40.00	     6.928
  64.820         48.33	     7.616
  64.840         52.50	     7.937
  64.860         50.83	     7.810
  64.880         52.50	     7.937
  64.900         55.00	     8.124
  64.920         45.83	     7.416
  64.940         43.33	     7.211
  64.960         43.33	     7.211
  64.980         56.67	     8.246
  65.000         46.67	     7.483
