
Filename:
	C:\Program Files\Thermo Electron\WinXRD\Datafiles\F_HERMAN\GEO\G85_RT.raw

File Created:
	February 20, 2020 - 05:09 AM

Specimen Id:
	G85_RT

Specimen Name:
	

Specimen Description:
	

Comment:
Scan Type: 2Theta Scan
Start Angle: 3 deg.
Stop Angle: 65 deg.
Num Points: 3101
Step Size: 0.02 deg.
Scan Rate: 1.000000
Scan Mode: Continuous
Wavelength: 1.540562
\Kalpha1: 1.540562	\Kalpha2: 1.544390	\Kbeta: 1.392218

Optics:
		Detector:
			 Type: Fixed Slits
		Tube: 
			 Type: Fixed Slits


Datas:
 Pos [deg]       Rate [CPS]      ESD [-]

Range 1 ---> Iteration 1
   3.000        439.17	    22.956
   3.020        465.00	    23.622
   3.040        415.83	    22.338
   3.060        432.50	    22.782
   3.080        399.17	    21.886
   3.100        395.83	    21.794
   3.120        450.83	    23.259
   3.140        405.83	    22.068
   3.160        429.17	    22.694
   3.180        403.33	    22.000
   3.200        455.83	    23.388
   3.220        404.17	    22.023
   3.240        435.00	    22.847
   3.260        388.33	    21.587
   3.280        390.00	    21.633
   3.300        393.33	    21.726
   3.320        440.83	    23.000
   3.340        423.33	    22.539
   3.360        405.83	    22.068
   3.380        375.00	    21.213
   3.400        438.33	    22.935
   3.420        368.33	    21.024
   3.440        432.50	    22.782
   3.460        380.83	    21.378
   3.480        420.00	    22.450
   3.500        417.50	    22.383
   3.520        383.33	    21.448
   3.540        373.33	    21.166
   3.560        367.50	    21.000
   3.580        365.00	    20.928
   3.600        358.33	    20.736
   3.620        387.50	    21.564
   3.640        361.67	    20.833
   3.660        371.67	    21.119
   3.680        364.17	    20.905
   3.700        370.83	    21.095
   3.720        380.83	    21.378
   3.740        360.00	    20.785
   3.760        344.17	    20.322
   3.780        335.00	    20.050
   3.800        311.67	    19.339
   3.820        352.50	    20.567
   3.840        349.17	    20.469
   3.860        345.83	    20.372
   3.880        308.33	    19.235
   3.900        334.17	    20.025
   3.920        333.33	    20.000
   3.940        341.67	    20.248
   3.960        324.17	    19.723
   3.980        359.17	    20.761
   4.000        336.67	    20.100
   4.020        307.50	    19.209
   4.040        310.83	    19.313
   4.060        315.00	    19.442
   4.080        290.00	    18.655
   4.100        310.83	    19.313
   4.120        315.00	    19.442
   4.140        315.00	    19.442
   4.160        299.17	    18.947
   4.180        317.50	    19.519
   4.200        281.67	    18.385
   4.220        324.17	    19.723
   4.240        303.33	    19.079
   4.260        280.00	    18.330
   4.280        267.50	    17.916
   4.300        300.83	    19.000
   4.320        292.50	    18.735
   4.340        326.67	    19.799
   4.360        290.00	    18.655
   4.380        285.00	    18.493
   4.400        305.00	    19.131
   4.420        296.67	    18.868
   4.440        326.67	    19.799
   4.460        285.00	    18.493
   4.480        266.67	    17.889
   4.500        306.67	    19.183
   4.520        258.33	    17.607
   4.540        268.33	    17.944
   4.560        291.67	    18.708
   4.580        280.83	    18.358
   4.600        248.33	    17.263
   4.620        294.17	    18.788
   4.640        242.50	    17.059
   4.660        271.67	    18.055
   4.680        281.67	    18.385
   4.700        230.83	    16.643
   4.720        285.83	    18.520
   4.740        268.33	    17.944
   4.760        268.33	    17.944
   4.780        266.67	    17.889
   4.800        287.50	    18.574
   4.820        285.00	    18.493
   4.840        235.83	    16.823
   4.860        264.17	    17.804
   4.880        259.17	    17.635
   4.900        267.50	    17.916
   4.920        240.83	    17.000
   4.940        268.33	    17.944
   4.960        252.50	    17.407
   4.980        239.17	    16.941
   5.000        242.50	    17.059
   5.020        239.17	    16.941
   5.040        237.50	    16.882
   5.060        220.00	    16.248
   5.080        235.00	    16.793
   5.100        230.83	    16.643
   5.120        231.67	    16.673
   5.140        250.00	    17.321
   5.160        217.50	    16.155
   5.180        237.50	    16.882
   5.200        240.83	    17.000
   5.220        225.00	    16.432
   5.240        244.17	    17.117
   5.260        226.67	    16.492
   5.280        220.83	    16.279
   5.300        218.33	    16.186
   5.320        222.50	    16.340
   5.340        225.00	    16.432
   5.360        232.50	    16.703
   5.380        239.17	    16.941
   5.400        240.83	    17.000
   5.420        234.17	    16.763
   5.440        265.00	    17.833
   5.460        254.17	    17.464
   5.480        285.83	    18.520
   5.500        240.83	    17.000
   5.520        200.83	    15.524
   5.540        189.17	    15.067
   5.560        194.17	    15.264
   5.580        226.67	    16.492
   5.600        220.00	    16.248
   5.620        209.17	    15.843
   5.640        230.00	    16.613
   5.660        210.00	    15.875
   5.680        220.83	    16.279
   5.700        245.00	    17.146
   5.720        245.83	    17.176
   5.740        205.00	    15.684
   5.760        226.67	    16.492
   5.780        204.17	    15.652
   5.800        238.33	    16.912
   5.820        225.83	    16.462
   5.840        215.83	    16.093
   5.860        221.67	    16.310
   5.880        240.83	    17.000
   5.900        258.33	    17.607
   5.920        255.83	    17.521
   5.940        269.17	    17.972
   5.960        265.83	    17.861
   5.980        235.83	    16.823
   6.000        256.67	    17.550
   6.020        278.33	    18.276
   6.040        295.83	    18.841
   6.060        271.67	    18.055
   6.080        276.67	    18.221
   6.100        263.33	    17.776
   6.120        310.83	    19.313
   6.140        370.83	    21.095
   6.160        324.17	    19.723
   6.180        317.50	    19.519
   6.200        235.83	    16.823
   6.220        231.67	    16.673
   6.240        215.00	    16.062
   6.260        205.83	    15.716
   6.280        220.83	    16.279
   6.300        210.00	    15.875
   6.320        215.00	    16.062
   6.340        179.17	    14.663
   6.360        199.17	    15.460
   6.380        199.17	    15.460
   6.400        205.00	    15.684
   6.420        213.33	    16.000
   6.440        210.00	    15.875
   6.460        173.33	    14.422
   6.480        190.83	    15.133
   6.500        175.83	    14.526
   6.520        212.50	    15.969
   6.540        194.17	    15.264
   6.560        189.17	    15.067
   6.580        191.67	    15.166
   6.600        203.33	    15.620
   6.620        200.00	    15.492
   6.640        171.67	    14.353
   6.660        189.17	    15.067
   6.680        185.83	    14.933
   6.700        210.00	    15.875
   6.720        185.83	    14.933
   6.740        198.33	    15.427
   6.760        172.50	    14.387
   6.780        177.50	    14.595
   6.800        190.00	    15.100
   6.820        206.67	    15.748
   6.840        192.50	    15.199
   6.860        213.33	    16.000
   6.880        156.67	    13.711
   6.900        150.00	    13.416
   6.920        180.83	    14.731
   6.940        174.17	    14.457
   6.960        174.17	    14.457
   6.980        166.67	    14.142
   7.000        173.33	    14.422
   7.020        168.33	    14.213
   7.040        166.67	    14.142
   7.060        168.33	    14.213
   7.080        157.50	    13.748
   7.100        164.17	    14.036
   7.120        160.00	    13.856
   7.140        178.33	    14.629
   7.160        172.50	    14.387
   7.180        187.50	    15.000
   7.200        154.17	    13.601
   7.220        146.67	    13.266
   7.240        151.67	    13.491
   7.260        185.83	    14.933
   7.280        171.67	    14.353
   7.300        171.67	    14.353
   7.320        187.50	    15.000
   7.340        138.33	    12.884
   7.360        152.50	    13.528
   7.380        167.50	    14.177
   7.400        157.50	    13.748
   7.420        160.83	    13.892
   7.440        163.33	    14.000
   7.460        158.33	    13.784
   7.480        183.33	    14.832
   7.500        160.83	    13.892
   7.520        146.67	    13.266
   7.540        141.67	    13.038
   7.560        158.33	    13.784
   7.580        142.50	    13.077
   7.600        153.33	    13.565
   7.620        160.00	    13.856
   7.640        146.67	    13.266
   7.660        160.00	    13.856
   7.680        163.33	    14.000
   7.700        155.00	    13.638
   7.720        145.00	    13.191
   7.740        172.50	    14.387
   7.760        158.33	    13.784
   7.780        156.67	    13.711
   7.800        163.33	    14.000
   7.820        140.83	    13.000
   7.840        157.50	    13.748
   7.860        150.83	    13.454
   7.880        152.50	    13.528
   7.900        140.83	    13.000
   7.920        165.83	    14.107
   7.940        160.83	    13.892
   7.960        138.33	    12.884
   7.980        144.17	    13.153
   8.000        134.17	    12.689
   8.020        151.67	    13.491
   8.040        164.17	    14.036
   8.060        142.50	    13.077
   8.080        147.50	    13.304
   8.100        160.83	    13.892
   8.120        146.67	    13.266
   8.140        146.67	    13.266
   8.160        153.33	    13.565
   8.180        144.17	    13.153
   8.200        132.50	    12.610
   8.220        133.33	    12.649
   8.240        164.17	    14.036
   8.260        168.33	    14.213
   8.280        157.50	    13.748
   8.300        149.17	    13.379
   8.320        170.83	    14.318
   8.340        175.00	    14.491
   8.360        154.17	    13.601
   8.380        156.67	    13.711
   8.400        170.00	    14.283
   8.420        142.50	    13.077
   8.440        160.00	    13.856
   8.460        159.17	    13.820
   8.480        175.00	    14.491
   8.500        173.33	    14.422
   8.520        172.50	    14.387
   8.540        190.83	    15.133
   8.560        213.33	    16.000
   8.580        194.17	    15.264
   8.600        214.17	    16.031
   8.620        212.50	    15.969
   8.640        254.17	    17.464
   8.660        262.50	    17.748
   8.680        297.50	    18.894
   8.700        343.33	    20.298
   8.720        393.33	    21.726
   8.740        528.33	    25.179
   8.760        782.50	    30.643
   8.780        901.67	    32.894
   8.800        798.33	    30.952
   8.820        549.17	    25.671
   8.840        325.00	    19.748
   8.860        195.00	    15.297
   8.880        165.00	    14.071
   8.900        161.67	    13.928
   8.920        179.17	    14.663
   8.940        183.33	    14.832
   8.960        170.83	    14.318
   8.980        154.17	    13.601
   9.000        160.00	    13.856
   9.020        145.00	    13.191
   9.040        135.83	    12.767
   9.060        142.50	    13.077
   9.080        169.17	    14.248
   9.100        172.50	    14.387
   9.120        163.33	    14.000
   9.140        145.00	    13.191
   9.160        150.83	    13.454
   9.180        128.33	    12.410
   9.200        131.67	    12.570
   9.220        145.83	    13.229
   9.240        139.17	    12.923
   9.260        136.67	    12.806
   9.280        142.50	    13.077
   9.300        144.17	    13.153
   9.320        125.83	    12.288
   9.340        133.33	    12.649
   9.360        135.00	    12.728
   9.380        146.67	    13.266
   9.400        140.83	    13.000
   9.420        143.33	    13.115
   9.440        130.83	    12.530
   9.460        130.83	    12.530
   9.480        129.17	    12.450
   9.500        127.50	    12.369
   9.520        120.83	    12.042
   9.540        132.50	    12.610
   9.560        119.17	    11.958
   9.580        125.00	    12.247
   9.600        120.00	    12.000
   9.620        115.00	    11.747
   9.640        102.50	    11.091
   9.660        117.50	    11.874
   9.680        120.00	    12.000
   9.700        121.67	    12.083
   9.720         95.00	    10.677
   9.740        105.00	    11.225
   9.760        113.33	    11.662
   9.780        108.33	    11.402
   9.800        128.33	    12.410
   9.820        108.33	    11.402
   9.840         92.50	    10.536
   9.860        103.33	    11.136
   9.880         94.17	    10.630
   9.900        121.67	    12.083
   9.920        105.83	    11.269
   9.940        109.17	    11.446
   9.960         98.33	    10.863
   9.980        105.00	    11.225
  10.000        119.17	    11.958
  10.020         96.67	    10.770
  10.040        105.00	    11.225
  10.060        110.83	    11.533
  10.080        116.67	    11.832
  10.100        116.67	    11.832
  10.120        111.67	    11.576
  10.140        126.67	    12.329
  10.160        107.50	    11.358
  10.180        120.83	    12.042
  10.200        109.17	    11.446
  10.220        118.33	    11.916
  10.240        112.50	    11.619
  10.260        117.50	    11.874
  10.280        102.50	    11.091
  10.300        110.83	    11.533
  10.320        113.33	    11.662
  10.340         95.00	    10.677
  10.360         98.33	    10.863
  10.380        120.83	    12.042
  10.400        140.00	    12.961
  10.420        160.00	    13.856
  10.440        154.17	    13.601
  10.460        150.83	    13.454
  10.480        135.00	    12.728
  10.500        122.50	    12.124
  10.520        120.83	    12.042
  10.540        109.17	    11.446
  10.560        112.50	    11.619
  10.580         90.00	    10.392
  10.600        103.33	    11.136
  10.620        100.00	    10.954
  10.640         87.50	    10.247
  10.660         86.67	    10.198
  10.680        106.67	    11.314
  10.700        102.50	    11.091
  10.720        105.83	    11.269
  10.740         98.33	    10.863
  10.760         97.50	    10.817
  10.780         99.17	    10.909
  10.800        118.33	    11.916
  10.820        110.00	    11.489
  10.840         99.17	    10.909
  10.860        112.50	    11.619
  10.880        102.50	    11.091
  10.900         88.33	    10.296
  10.920        116.67	    11.832
  10.940        102.50	    11.091
  10.960         80.83	     9.849
  10.980         83.33	    10.000
  11.000        116.67	    11.832
  11.020        102.50	    11.091
  11.040        100.00	    10.954
  11.060        105.00	    11.225
  11.080         93.33	    10.583
  11.100        102.50	    11.091
  11.120        116.67	    11.832
  11.140        114.17	    11.705
  11.160         94.17	    10.630
  11.180        100.83	    11.000
  11.200         95.83	    10.724
  11.220        110.00	    11.489
  11.240         95.83	    10.724
  11.260         90.83	    10.440
  11.280        123.33	    12.166
  11.300        105.83	    11.269
  11.320         95.83	    10.724
  11.340         96.67	    10.770
  11.360         98.33	    10.863
  11.380        102.50	    11.091
  11.400         93.33	    10.583
  11.420         88.33	    10.296
  11.440        106.67	    11.314
  11.460        110.83	    11.533
  11.480        110.83	    11.533
  11.500        100.83	    11.000
  11.520         95.83	    10.724
  11.540         91.67	    10.488
  11.560        103.33	    11.136
  11.580        101.67	    11.045
  11.600        118.33	    11.916
  11.620        106.67	    11.314
  11.640         94.17	    10.630
  11.660        100.00	    10.954
  11.680         92.50	    10.536
  11.700        104.17	    11.180
  11.720        105.00	    11.225
  11.740         90.00	    10.392
  11.760        109.17	    11.446
  11.780         82.50	     9.950
  11.800        108.33	    11.402
  11.820         90.83	    10.440
  11.840         97.50	    10.817
  11.860        105.00	    11.225
  11.880        110.00	    11.489
  11.900        102.50	    11.091
  11.920        101.67	    11.045
  11.940        125.83	    12.288
  11.960        117.50	    11.874
  11.980        138.33	    12.884
  12.000        130.83	    12.530
  12.020        165.00	    14.071
  12.040        166.67	    14.142
  12.060        182.50	    14.799
  12.080        202.50	    15.588
  12.100        228.33	    16.553
  12.120        205.83	    15.716
  12.140        155.00	    13.638
  12.160        153.33	    13.565
  12.180        133.33	    12.649
  12.200        170.00	    14.283
  12.220        163.33	    14.000
  12.240        175.83	    14.526
  12.260        205.00	    15.684
  12.280        181.67	    14.765
  12.300        175.83	    14.526
  12.320        165.00	    14.071
  12.340        185.00	    14.900
  12.360        249.17	    17.292
  12.380        368.33	    21.024
  12.400        387.50	    21.564
  12.420        417.50	    22.383
  12.440        299.17	    18.947
  12.460        176.67	    14.560
  12.480        142.50	    13.077
  12.500         95.83	    10.724
  12.520        106.67	    11.314
  12.540         99.17	    10.909
  12.560        114.17	    11.705
  12.580         99.17	    10.909
  12.600         90.83	    10.440
  12.620         93.33	    10.583
  12.640         98.33	    10.863
  12.660         78.33	     9.695
  12.680         95.83	    10.724
  12.700        103.33	    11.136
  12.720         86.67	    10.198
  12.740         94.17	    10.630
  12.760         90.00	    10.392
  12.780         91.67	    10.488
  12.800         95.83	    10.724
  12.820         87.50	    10.247
  12.840         73.33	     9.381
  12.860         97.50	    10.817
  12.880         86.67	    10.198
  12.900         81.67	     9.899
  12.920         86.67	    10.198
  12.940        105.83	    11.269
  12.960         77.50	     9.644
  12.980         82.50	     9.950
  13.000         74.17	     9.434
  13.020         64.17	     8.775
  13.040         63.33	     8.718
  13.060         75.83	     9.539
  13.080         75.83	     9.539
  13.100         96.67	    10.770
  13.120         85.00	    10.100
  13.140         80.83	     9.849
  13.160         91.67	    10.488
  13.180        104.17	    11.180
  13.200         97.50	    10.817
  13.220         85.83	    10.149
  13.240         83.33	    10.000
  13.260         80.00	     9.798
  13.280         79.17	     9.747
  13.300         85.83	    10.149
  13.320         95.00	    10.677
  13.340         67.50	     9.000
  13.360         84.17	    10.050
  13.380         90.00	    10.392
  13.400         73.33	     9.381
  13.420         86.67	    10.198
  13.440         97.50	    10.817
  13.460         62.50	     8.660
  13.480         94.17	    10.630
  13.500         84.17	    10.050
  13.520         82.50	     9.950
  13.540         86.67	    10.198
  13.560         97.50	    10.817
  13.580         85.00	    10.100
  13.600         84.17	    10.050
  13.620         70.83	     9.220
  13.640         90.00	    10.392
  13.660         86.67	    10.198
  13.680         77.50	     9.644
  13.700         83.33	    10.000
  13.720         99.17	    10.909
  13.740        100.83	    11.000
  13.760        122.50	    12.124
  13.780         88.33	    10.296
  13.800         88.33	    10.296
  13.820        105.00	    11.225
  13.840         94.17	    10.630
  13.860         80.00	     9.798
  13.880         84.17	    10.050
  13.900         85.00	    10.100
  13.920         80.00	     9.798
  13.940         94.17	    10.630
  13.960         89.17	    10.344
  13.980         83.33	    10.000
  14.000         81.67	     9.899
  14.020         80.00	     9.798
  14.040         80.83	     9.849
  14.060         60.00	     8.485
  14.080         79.17	     9.747
  14.100         80.83	     9.849
  14.120         80.00	     9.798
  14.140         88.33	    10.296
  14.160         80.00	     9.798
  14.180         84.17	    10.050
  14.200         75.83	     9.539
  14.220         60.83	     8.544
  14.240         86.67	    10.198
  14.260         71.67	     9.274
  14.280         70.83	     9.220
  14.300         85.00	    10.100
  14.320         75.00	     9.487
  14.340         72.50	     9.327
  14.360         62.50	     8.660
  14.380         74.17	     9.434
  14.400         78.33	     9.695
  14.420         59.17	     8.426
  14.440         71.67	     9.274
  14.460         78.33	     9.695
  14.480         75.00	     9.487
  14.500         72.50	     9.327
  14.520         91.67	    10.488
  14.540         74.17	     9.434
  14.560         78.33	     9.695
  14.580         75.83	     9.539
  14.600         75.00	     9.487
  14.620         63.33	     8.718
  14.640         73.33	     9.381
  14.660         62.50	     8.660
  14.680         63.33	     8.718
  14.700         55.83	     8.185
  14.720         91.67	    10.488
  14.740         73.33	     9.381
  14.760         75.83	     9.539
  14.780         66.67	     8.944
  14.800         88.33	    10.296
  14.820         69.17	     9.110
  14.840         63.33	     8.718
  14.860         87.50	    10.247
  14.880         78.33	     9.695
  14.900         80.00	     9.798
  14.920         77.50	     9.644
  14.940         57.50	     8.307
  14.960         81.67	     9.899
  14.980         83.33	    10.000
  15.000         78.33	     9.695
  15.020         65.00	     8.832
  15.040         73.33	     9.381
  15.060         66.67	     8.944
  15.080         60.83	     8.544
  15.100         69.17	     9.110
  15.120         67.50	     9.000
  15.140         69.17	     9.110
  15.160         61.67	     8.602
  15.180         70.00	     9.165
  15.200         72.50	     9.327
  15.220         78.33	     9.695
  15.240         66.67	     8.944
  15.260         64.17	     8.775
  15.280         71.67	     9.274
  15.300         74.17	     9.434
  15.320         67.50	     9.000
  15.340         62.50	     8.660
  15.360         75.00	     9.487
  15.380         69.17	     9.110
  15.400         58.33	     8.367
  15.420         61.67	     8.602
  15.440         67.50	     9.000
  15.460         74.17	     9.434
  15.480         75.83	     9.539
  15.500         60.83	     8.544
  15.520         74.17	     9.434
  15.540         76.67	     9.592
  15.560         55.83	     8.185
  15.580         67.50	     9.000
  15.600         76.67	     9.592
  15.620         74.17	     9.434
  15.640         51.67	     7.874
  15.660         71.67	     9.274
  15.680         69.17	     9.110
  15.700         80.83	     9.849
  15.720        171.67	    14.353
  15.740        179.17	    14.663
  15.760        157.50	    13.748
  15.780        134.17	    12.689
  15.800        100.00	    10.954
  15.820         85.83	    10.149
  15.840         70.00	     9.165
  15.860         62.50	     8.660
  15.880         65.00	     8.832
  15.900         65.83	     8.888
  15.920         67.50	     9.000
  15.940         56.67	     8.246
  15.960         65.83	     8.888
  15.980         68.33	     9.055
  16.000         85.00	    10.100
  16.020         59.17	     8.426
  16.040         75.00	     9.487
  16.060         59.17	     8.426
  16.080         82.50	     9.950
  16.100         84.17	    10.050
  16.120         60.83	     8.544
  16.140         66.67	     8.944
  16.160         65.83	     8.888
  16.180         66.67	     8.944
  16.200         66.67	     8.944
  16.220         76.67	     9.592
  16.240         74.17	     9.434
  16.260         64.17	     8.775
  16.280         64.17	     8.775
  16.300         68.33	     9.055
  16.320         65.83	     8.888
  16.340         57.50	     8.307
  16.360         62.50	     8.660
  16.380         58.33	     8.367
  16.400         60.83	     8.544
  16.420         69.17	     9.110
  16.440         61.67	     8.602
  16.460         60.00	     8.485
  16.480         65.83	     8.888
  16.500         72.50	     9.327
  16.520         70.00	     9.165
  16.540         64.17	     8.775
  16.560         58.33	     8.367
  16.580         56.67	     8.246
  16.600         54.17	     8.062
  16.620         59.17	     8.426
  16.640         62.50	     8.660
  16.660         69.17	     9.110
  16.680         62.50	     8.660
  16.700         69.17	     9.110
  16.720         61.67	     8.602
  16.740         58.33	     8.367
  16.760         50.83	     7.810
  16.780         64.17	     8.775
  16.800         70.00	     9.165
  16.820         77.50	     9.644
  16.840         52.50	     7.937
  16.860         52.50	     7.937
  16.880         53.33	     8.000
  16.900         61.67	     8.602
  16.920         66.67	     8.944
  16.940         53.33	     8.000
  16.960         57.50	     8.307
  16.980         64.17	     8.775
  17.000         59.17	     8.426
  17.020         62.50	     8.660
  17.040         70.83	     9.220
  17.060         80.00	     9.798
  17.080         66.67	     8.944
  17.100         63.33	     8.718
  17.120         60.83	     8.544
  17.140         57.50	     8.307
  17.160         74.17	     9.434
  17.180         60.00	     8.485
  17.200         60.83	     8.544
  17.220         65.00	     8.832
  17.240         55.83	     8.185
  17.260         55.00	     8.124
  17.280         59.17	     8.426
  17.300         55.83	     8.185
  17.320         64.17	     8.775
  17.340         85.00	    10.100
  17.360         60.83	     8.544
  17.380         64.17	     8.775
  17.400         87.50	    10.247
  17.420         74.17	     9.434
  17.440         65.83	     8.888
  17.460         66.67	     8.944
  17.480         57.50	     8.307
  17.500         65.83	     8.888
  17.520         71.67	     9.274
  17.540         66.67	     8.944
  17.560         71.67	     9.274
  17.580         82.50	     9.950
  17.600         79.17	     9.747
  17.620        115.00	    11.747
  17.640        129.17	    12.450
  17.660        158.33	    13.784
  17.680        212.50	    15.969
  17.700        265.00	    17.833
  17.720        295.83	    18.841
  17.740        270.00	    18.000
  17.760        231.67	    16.673
  17.780        169.17	    14.248
  17.800        126.67	    12.329
  17.820         94.17	    10.630
  17.840         78.33	     9.695
  17.860         79.17	     9.747
  17.880         66.67	     8.944
  17.900         70.00	     9.165
  17.920         81.67	     9.899
  17.940         79.17	     9.747
  17.960         80.83	     9.849
  17.980         57.50	     8.307
  18.000         81.67	     9.899
  18.020         63.33	     8.718
  18.040         65.83	     8.888
  18.060         64.17	     8.775
  18.080         85.83	    10.149
  18.100         70.00	     9.165
  18.120         59.17	     8.426
  18.140         61.67	     8.602
  18.160         61.67	     8.602
  18.180         61.67	     8.602
  18.200         59.17	     8.426
  18.220         72.50	     9.327
  18.240         64.17	     8.775
  18.260         64.17	     8.775
  18.280         69.17	     9.110
  18.300         61.67	     8.602
  18.320         97.50	    10.817
  18.340         89.17	    10.344
  18.360         77.50	     9.644
  18.380         80.83	     9.849
  18.400         85.00	    10.100
  18.420         76.67	     9.592
  18.440         76.67	     9.592
  18.460         97.50	    10.817
  18.480        100.00	    10.954
  18.500        106.67	    11.314
  18.520         90.00	    10.392
  18.540         88.33	    10.296
  18.560        100.83	    11.000
  18.580         81.67	     9.899
  18.600         81.67	     9.899
  18.620         85.00	    10.100
  18.640        104.17	    11.180
  18.660        132.50	    12.610
  18.680        159.17	    13.820
  18.700        171.67	    14.353
  18.720        192.50	    15.199
  18.740        148.33	    13.342
  18.760         94.17	    10.630
  18.780         94.17	    10.630
  18.800         82.50	     9.950
  18.820         75.83	     9.539
  18.840         65.83	     8.888
  18.860         55.83	     8.185
  18.880         84.17	    10.050
  18.900         55.00	     8.124
  18.920         64.17	     8.775
  18.940         66.67	     8.944
  18.960         72.50	     9.327
  18.980         51.67	     7.874
  19.000         76.67	     9.592
  19.020         61.67	     8.602
  19.040         71.67	     9.274
  19.060         63.33	     8.718
  19.080         62.50	     8.660
  19.100         58.33	     8.367
  19.120         65.00	     8.832
  19.140         71.67	     9.274
  19.160         67.50	     9.000
  19.180         67.50	     9.000
  19.200         76.67	     9.592
  19.220         66.67	     8.944
  19.240         61.67	     8.602
  19.260         45.00	     7.348
  19.280         71.67	     9.274
  19.300         63.33	     8.718
  19.320         62.50	     8.660
  19.340         70.00	     9.165
  19.360         77.50	     9.644
  19.380         70.00	     9.165
  19.400         59.17	     8.426
  19.420         60.83	     8.544
  19.440         62.50	     8.660
  19.460         69.17	     9.110
  19.480         68.33	     9.055
  19.500         71.67	     9.274
  19.520         57.50	     8.307
  19.540         75.83	     9.539
  19.560         60.00	     8.485
  19.580         78.33	     9.695
  19.600         75.83	     9.539
  19.620         67.50	     9.000
  19.640         82.50	     9.950
  19.660         79.17	     9.747
  19.680         86.67	    10.198
  19.700         92.50	    10.536
  19.720        106.67	    11.314
  19.740        105.83	    11.269
  19.760        105.00	    11.225
  19.780         95.83	    10.724
  19.800         94.17	    10.630
  19.820         81.67	     9.899
  19.840         65.83	     8.888
  19.860         69.17	     9.110
  19.880         80.83	     9.849
  19.900         74.17	     9.434
  19.920         84.17	    10.050
  19.940         70.00	     9.165
  19.960         71.67	     9.274
  19.980         57.50	     8.307
  20.000         63.33	     8.718
  20.020         68.33	     9.055
  20.040         59.17	     8.426
  20.060         66.67	     8.944
  20.080         68.33	     9.055
  20.100         66.67	     8.944
  20.120         70.83	     9.220
  20.140         64.17	     8.775
  20.160         87.50	    10.247
  20.180         45.00	     7.348
  20.200         63.33	     8.718
  20.220         49.17	     7.681
  20.240         70.00	     9.165
  20.260         56.67	     8.246
  20.280         63.33	     8.718
  20.300         59.17	     8.426
  20.320         53.33	     8.000
  20.340         70.83	     9.220
  20.360         61.67	     8.602
  20.380         58.33	     8.367
  20.400         61.67	     8.602
  20.420         48.33	     7.616
  20.440         66.67	     8.944
  20.460         61.67	     8.602
  20.480         55.83	     8.185
  20.500         82.50	     9.950
  20.520         72.50	     9.327
  20.540         72.50	     9.327
  20.560         96.67	    10.770
  20.580         70.00	     9.165
  20.600         70.00	     9.165
  20.620         76.67	     9.592
  20.640         93.33	    10.583
  20.660        109.17	    11.446
  20.680        139.17	    12.923
  20.700        213.33	    16.000
  20.720        316.67	    19.494
  20.740        569.17	    26.134
  20.760        890.83	    32.696
  20.780        780.83	    30.610
  20.800        561.67	    25.962
  20.820        469.17	    23.728
  20.840        330.00	    19.900
  20.860        163.33	    14.000
  20.880        111.67	    11.576
  20.900        130.83	    12.530
  20.920        117.50	    11.874
  20.940        100.00	    10.954
  20.960        115.83	    11.790
  20.980         78.33	     9.695
  21.000         81.67	     9.899
  21.020         78.33	     9.695
  21.040         79.17	     9.747
  21.060         77.50	     9.644
  21.080         59.17	     8.426
  21.100         60.83	     8.544
  21.120         60.83	     8.544
  21.140         55.83	     8.185
  21.160         69.17	     9.110
  21.180         55.83	     8.185
  21.200         62.50	     8.660
  21.220         54.17	     8.062
  21.240         53.33	     8.000
  21.260         60.83	     8.544
  21.280         65.83	     8.888
  21.300         54.17	     8.062
  21.320         47.50	     7.550
  21.340         64.17	     8.775
  21.360         75.83	     9.539
  21.380         64.17	     8.775
  21.400         67.50	     9.000
  21.420         60.00	     8.485
  21.440         49.17	     7.681
  21.460         65.83	     8.888
  21.480         70.83	     9.220
  21.500         62.50	     8.660
  21.520         59.17	     8.426
  21.540         63.33	     8.718
  21.560         66.67	     8.944
  21.580         71.67	     9.274
  21.600         52.50	     7.937
  21.620         51.67	     7.874
  21.640         51.67	     7.874
  21.660         53.33	     8.000
  21.680         65.83	     8.888
  21.700         61.67	     8.602
  21.720         60.00	     8.485
  21.740         40.83	     7.000
  21.760         71.67	     9.274
  21.780         67.50	     9.000
  21.800         75.83	     9.539
  21.820         87.50	    10.247
  21.840        113.33	    11.662
  21.860        108.33	    11.402
  21.880        140.83	    13.000
  21.900        167.50	    14.177
  21.920        204.17	    15.652
  21.940        215.83	    16.093
  21.960        197.50	    15.395
  21.980        175.00	    14.491
  22.000        137.50	    12.845
  22.020        112.50	    11.619
  22.040         68.33	     9.055
  22.060         65.83	     8.888
  22.080         53.33	     8.000
  22.100         72.50	     9.327
  22.120         72.50	     9.327
  22.140         65.83	     8.888
  22.160         61.67	     8.602
  22.180         67.50	     9.000
  22.200         65.83	     8.888
  22.220         60.00	     8.485
  22.240         70.00	     9.165
  22.260         56.67	     8.246
  22.280         70.00	     9.165
  22.300         61.67	     8.602
  22.320         68.33	     9.055
  22.340         47.50	     7.550
  22.360         68.33	     9.055
  22.380         55.00	     8.124
  22.400         67.50	     9.000
  22.420         78.33	     9.695
  22.440         71.67	     9.274
  22.460         76.67	     9.592
  22.480         61.67	     8.602
  22.500         50.83	     7.810
  22.520         55.83	     8.185
  22.540         46.67	     7.483
  22.560         60.00	     8.485
  22.580         44.17	     7.280
  22.600         46.67	     7.483
  22.620         60.83	     8.544
  22.640         58.33	     8.367
  22.660         60.83	     8.544
  22.680         58.33	     8.367
  22.700         61.67	     8.602
  22.720         65.00	     8.832
  22.740         55.83	     8.185
  22.760         95.00	    10.677
  22.780         88.33	    10.296
  22.800         82.50	     9.950
  22.820         90.00	    10.392
  22.840        104.17	    11.180
  22.860        100.83	    11.000
  22.880         95.00	    10.677
  22.900         75.83	     9.539
  22.920        113.33	    11.662
  22.940         90.00	    10.392
  22.960        101.67	    11.045
  22.980         78.33	     9.695
  23.000         89.17	    10.344
  23.020         75.83	     9.539
  23.040         67.50	     9.000
  23.060         58.33	     8.367
  23.080         73.33	     9.381
  23.100         70.83	     9.220
  23.120         62.50	     8.660
  23.140         74.17	     9.434
  23.160         80.83	     9.849
  23.180         80.00	     9.798
  23.200         68.33	     9.055
  23.220         64.17	     8.775
  23.240         80.83	     9.849
  23.260         66.67	     8.944
  23.280         79.17	     9.747
  23.300         61.67	     8.602
  23.320         73.33	     9.381
  23.340         73.33	     9.381
  23.360         90.83	    10.440
  23.380        125.83	    12.288
  23.400        156.67	    13.711
  23.420        176.67	    14.560
  23.440        158.33	    13.784
  23.460        150.83	    13.454
  23.480        167.50	    14.177
  23.500        126.67	    12.329
  23.520        120.83	    12.042
  23.540         97.50	    10.817
  23.560         90.83	    10.440
  23.580         91.67	    10.488
  23.600         95.00	    10.677
  23.620         92.50	    10.536
  23.640         95.83	    10.724
  23.660         92.50	    10.536
  23.680         72.50	     9.327
  23.700         94.17	    10.630
  23.720         96.67	    10.770
  23.740         85.83	    10.149
  23.760         98.33	    10.863
  23.780         87.50	    10.247
  23.800         76.67	     9.592
  23.820         73.33	     9.381
  23.840         80.83	     9.849
  23.860         48.33	     7.616
  23.880         78.33	     9.695
  23.900         95.00	    10.677
  23.920         87.50	    10.247
  23.940         86.67	    10.198
  23.960         79.17	     9.747
  23.980         70.83	     9.220
  24.000         71.67	     9.274
  24.020        110.00	    11.489
  24.040        120.00	    12.000
  24.060        123.33	    12.166
  24.080        127.50	    12.369
  24.100        132.50	    12.610
  24.120        135.00	    12.728
  24.140        125.00	    12.247
  24.160        155.83	    13.675
  24.180        218.33	    16.186
  24.200        262.50	    17.748
  24.220        255.83	    17.521
  24.240        199.17	    15.460
  24.260        195.83	    15.330
  24.280        162.50	    13.964
  24.300        101.67	    11.045
  24.320         78.33	     9.695
  24.340         70.83	     9.220
  24.360         93.33	    10.583
  24.380         77.50	     9.644
  24.400         86.67	    10.198
  24.420        102.50	    11.091
  24.440        139.17	    12.923
  24.460        155.00	    13.638
  24.480        170.00	    14.283
  24.500        159.17	    13.820
  24.520        199.17	    15.460
  24.540        185.83	    14.933
  24.560        160.00	    13.856
  24.580        156.67	    13.711
  24.600        151.67	    13.491
  24.620        128.33	    12.410
  24.640        125.00	    12.247
  24.660         93.33	    10.583
  24.680        113.33	    11.662
  24.700         97.50	    10.817
  24.720        121.67	    12.083
  24.740        126.67	    12.329
  24.760        120.83	    12.042
  24.780         95.83	    10.724
  24.800         99.17	    10.909
  24.820         91.67	    10.488
  24.840         93.33	    10.583
  24.860         93.33	    10.583
  24.880         65.83	     8.888
  24.900         95.83	    10.724
  24.920         89.17	    10.344
  24.940        101.67	    11.045
  24.960        105.83	    11.269
  24.980        130.00	    12.490
  25.000        168.33	    14.213
  25.020        231.67	    16.673
  25.040        223.33	    16.371
  25.060        267.50	    17.916
  25.080        220.83	    16.279
  25.100        215.00	    16.062
  25.120        192.50	    15.199
  25.140        144.17	    13.153
  25.160        138.33	    12.884
  25.180         90.83	    10.440
  25.200         65.00	     8.832
  25.220         91.67	    10.488
  25.240         81.67	     9.899
  25.260        117.50	    11.874
  25.280        139.17	    12.923
  25.300        150.83	    13.454
  25.320        119.17	    11.958
  25.340        135.83	    12.767
  25.360        147.50	    13.304
  25.380        147.50	    13.304
  25.400        177.50	    14.595
  25.420        163.33	    14.000
  25.440        144.17	    13.153
  25.460        177.50	    14.595
  25.480        158.33	    13.784
  25.500        120.00	    12.000
  25.520        218.33	    16.186
  25.540        308.33	    19.235
  25.560        285.00	    18.493
  25.580        191.67	    15.166
  25.600        199.17	    15.460
  25.620        205.00	    15.684
  25.640        140.00	    12.961
  25.660        100.83	    11.000
  25.680         72.50	     9.327
  25.700         75.83	     9.539
  25.720         87.50	    10.247
  25.740         78.33	     9.695
  25.760         77.50	     9.644
  25.780         65.00	     8.832
  25.800         69.17	     9.110
  25.820         70.00	     9.165
  25.840         65.83	     8.888
  25.860         81.67	     9.899
  25.880         81.67	     9.899
  25.900         81.67	     9.899
  25.920         70.83	     9.220
  25.940         65.83	     8.888
  25.960         72.50	     9.327
  25.980         73.33	     9.381
  26.000         64.17	     8.775
  26.020         77.50	     9.644
  26.040         60.00	     8.485
  26.060         70.83	     9.220
  26.080         82.50	     9.950
  26.100         66.67	     8.944
  26.120         88.33	    10.296
  26.140         97.50	    10.817
  26.160         88.33	    10.296
  26.180         91.67	    10.488
  26.200        114.17	    11.705
  26.220         97.50	    10.817
  26.240        125.83	    12.288
  26.260        175.83	    14.526
  26.280        217.50	    16.155
  26.300        185.83	    14.933
  26.320        204.17	    15.652
  26.340        238.33	    16.912
  26.360        223.33	    16.371
  26.380        247.50	    17.234
  26.400        233.33	    16.733
  26.420        271.67	    18.055
  26.440        351.67	    20.543
  26.460        471.67	    23.791
  26.480        852.50	    31.984
  26.500       1635.00	    44.294
  26.520       2608.33	    55.946
  26.540       3019.17	    60.191
  26.560       2258.33	    52.058
  26.580       1683.33	    44.944
  26.600       1705.00	    45.233
  26.620       1315.83	    39.737
  26.640        815.83	    31.289
  26.660        455.83	    23.388
  26.680        443.33	    23.065
  26.700        497.50	    24.434
  26.720        540.83	    25.475
  26.740        632.50	    27.550
  26.760        669.17	    28.337
  26.780        659.17	    28.125
  26.800        629.17	    27.477
  26.820        530.00	    25.219
  26.840        456.67	    23.409
  26.860        332.50	    19.975
  26.880        247.50	    17.234
  26.900        197.50	    15.395
  26.920        190.00	    15.100
  26.940        141.67	    13.038
  26.960        116.67	    11.832
  26.980        114.17	    11.705
  27.000        127.50	    12.369
  27.020         97.50	    10.817
  27.040         89.17	    10.344
  27.060         95.83	    10.724
  27.080         75.83	     9.539
  27.100         98.33	    10.863
  27.120         89.17	    10.344
  27.140         84.17	    10.050
  27.160         81.67	     9.899
  27.180         96.67	    10.770
  27.200         93.33	    10.583
  27.220         74.17	     9.434
  27.240         89.17	    10.344
  27.260         81.67	     9.899
  27.280         82.50	     9.950
  27.300         88.33	    10.296
  27.320         96.67	    10.770
  27.340        114.17	    11.705
  27.360        117.50	    11.874
  27.380        151.67	    13.491
  27.400        173.33	    14.422
  27.420        200.00	    15.492
  27.440        165.00	    14.071
  27.460        160.83	    13.892
  27.480        141.67	    13.038
  27.500        117.50	    11.874
  27.520         88.33	    10.296
  27.540         97.50	    10.817
  27.560        114.17	    11.705
  27.580        120.83	    12.042
  27.600        149.17	    13.379
  27.620        161.67	    13.928
  27.640        188.33	    15.033
  27.660        200.83	    15.524
  27.680        217.50	    16.155
  27.700        238.33	    16.912
  27.720        247.50	    17.234
  27.740        274.17	    18.138
  27.760        295.83	    18.841
  27.780        363.33	    20.881
  27.800        335.00	    20.050
  27.820        344.17	    20.322
  27.840        379.17	    21.331
  27.860        325.83	    19.774
  27.880        280.83	    18.358
  27.900        220.00	    16.248
  27.920        183.33	    14.832
  27.940        173.33	    14.422
  27.960        163.33	    14.000
  27.980        128.33	    12.410
  28.000        205.83	    15.716
  28.020        240.83	    17.000
  28.040        216.67	    16.125
  28.060        174.17	    14.457
  28.080        180.83	    14.731
  28.100        163.33	    14.000
  28.120        124.17	    12.207
  28.140        112.50	    11.619
  28.160        130.83	    12.530
  28.180        124.17	    12.207
  28.200        145.00	    13.191
  28.220        130.83	    12.530
  28.240        100.00	    10.954
  28.260        105.00	    11.225
  28.280         95.00	    10.677
  28.300         80.00	     9.798
  28.320         74.17	     9.434
  28.340         67.50	     9.000
  28.360         53.33	     8.000
  28.380         66.67	     8.944
  28.400         79.17	     9.747
  28.420         82.50	     9.950
  28.440         95.00	    10.677
  28.460         82.50	     9.950
  28.480         88.33	    10.296
  28.500         93.33	    10.583
  28.520         90.00	    10.392
  28.540         93.33	    10.583
  28.560         95.83	    10.724
  28.580         90.00	    10.392
  28.600         80.83	     9.849
  28.620         77.50	     9.644
  28.640         79.17	     9.747
  28.660         79.17	     9.747
  28.680         73.33	     9.381
  28.700         76.67	     9.592
  28.720         64.17	     8.775
  28.740         65.83	     8.888
  28.760         65.83	     8.888
  28.780         47.50	     7.550
  28.800         49.17	     7.681
  28.820         60.83	     8.544
  28.840         54.17	     8.062
  28.860         48.33	     7.616
  28.880         55.83	     8.185
  28.900         59.17	     8.426
  28.920         67.50	     9.000
  28.940         71.67	     9.274
  28.960         72.50	     9.327
  28.980         51.67	     7.874
  29.000         47.50	     7.550
  29.020         45.83	     7.416
  29.040         69.17	     9.110
  29.060         61.67	     8.602
  29.080         56.67	     8.246
  29.100         56.67	     8.246
  29.120         47.50	     7.550
  29.140         45.83	     7.416
  29.160         41.67	     7.071
  29.180         54.17	     8.062
  29.200         57.50	     8.307
  29.220         50.83	     7.810
  29.240         59.17	     8.426
  29.260         55.83	     8.185
  29.280         55.00	     8.124
  29.300         50.00	     7.746
  29.320         55.00	     8.124
  29.340         63.33	     8.718
  29.360         64.17	     8.775
  29.380         42.50	     7.141
  29.400         50.00	     7.746
  29.420         52.50	     7.937
  29.440         46.67	     7.483
  29.460         50.00	     7.746
  29.480         49.17	     7.681
  29.500         56.67	     8.246
  29.520         56.67	     8.246
  29.540         67.50	     9.000
  29.560         64.17	     8.775
  29.580         66.67	     8.944
  29.600         55.83	     8.185
  29.620         62.50	     8.660
  29.640         76.67	     9.592
  29.660        105.00	    11.225
  29.680        111.67	    11.576
  29.700        135.00	    12.728
  29.720        157.50	    13.748
  29.740        150.00	    13.416
  29.760        166.67	    14.142
  29.780        205.83	    15.716
  29.800        192.50	    15.199
  29.820        163.33	    14.000
  29.840        149.17	    13.379
  29.860        138.33	    12.884
  29.880        120.83	    12.042
  29.900         88.33	    10.296
  29.920         92.50	    10.536
  29.940        105.00	    11.225
  29.960        107.50	    11.358
  29.980        114.17	    11.705
  30.000         94.17	    10.630
  30.020         94.17	    10.630
  30.040        109.17	    11.446
  30.060         94.17	    10.630
  30.080         81.67	     9.899
  30.100         90.00	    10.392
  30.120         73.33	     9.381
  30.140         83.33	    10.000
  30.160         54.17	     8.062
  30.180         60.00	     8.485
  30.200         65.83	     8.888
  30.220         75.00	     9.487
  30.240         72.50	     9.327
  30.260         71.67	     9.274
  30.280         59.17	     8.426
  30.300         65.83	     8.888
  30.320         85.00	    10.100
  30.340         89.17	    10.344
  30.360        130.00	    12.490
  30.380        118.33	    11.916
  30.400        109.17	    11.446
  30.420        123.33	    12.166
  30.440        102.50	    11.091
  30.460         85.00	    10.100
  30.480         83.33	    10.000
  30.500         82.50	     9.950
  30.520         72.50	     9.327
  30.540         52.50	     7.937
  30.560         73.33	     9.381
  30.580         60.00	     8.485
  30.600         68.33	     9.055
  30.620         70.83	     9.220
  30.640         65.00	     8.832
  30.660         73.33	     9.381
  30.680         90.83	    10.440
  30.700         78.33	     9.695
  30.720         95.00	    10.677
  30.740         84.17	    10.050
  30.760         90.00	    10.392
  30.780        104.17	    11.180
  30.800        115.83	    11.790
  30.820         78.33	     9.695
  30.840         71.67	     9.274
  30.860         84.17	    10.050
  30.880         66.67	     8.944
  30.900         65.00	     8.832
  30.920         80.83	     9.849
  30.940         79.17	     9.747
  30.960         82.50	     9.950
  30.980         70.83	     9.220
  31.000         81.67	     9.899
  31.020         68.33	     9.055
  31.040         85.00	    10.100
  31.060         69.17	     9.110
  31.080        111.67	    11.576
  31.100        119.17	    11.958
  31.120        120.00	    12.000
  31.140        135.83	    12.767
  31.160        129.17	    12.450
  31.180         97.50	    10.817
  31.200        112.50	    11.619
  31.220         91.67	    10.488
  31.240         89.17	    10.344
  31.260         75.00	     9.487
  31.280         72.50	     9.327
  31.300         56.67	     8.246
  31.320         57.50	     8.307
  31.340         66.67	     8.944
  31.360         65.00	     8.832
  31.380         61.67	     8.602
  31.400         84.17	    10.050
  31.420         66.67	     8.944
  31.440         85.83	    10.149
  31.460         95.00	    10.677
  31.480         61.67	     8.602
  31.500         87.50	    10.247
  31.520         72.50	     9.327
  31.540         68.33	     9.055
  31.560         65.83	     8.888
  31.580         58.33	     8.367
  31.600         52.50	     7.937
  31.620         48.33	     7.616
  31.640         55.83	     8.185
  31.660         53.33	     8.000
  31.680         44.17	     7.280
  31.700         53.33	     8.000
  31.720         53.33	     8.000
  31.740         76.67	     9.592
  31.760         75.83	     9.539
  31.780         85.00	    10.100
  31.800         73.33	     9.381
  31.820         57.50	     8.307
  31.840         60.00	     8.485
  31.860         65.83	     8.888
  31.880         88.33	    10.296
  31.900         81.67	     9.899
  31.920         91.67	    10.488
  31.940         81.67	     9.899
  31.960        104.17	    11.180
  31.980         90.83	    10.440
  32.000         88.33	    10.296
  32.020         80.00	     9.798
  32.040         78.33	     9.695
  32.060         66.67	     8.944
  32.080         57.50	     8.307
  32.100         62.50	     8.660
  32.120         65.00	     8.832
  32.140         58.33	     8.367
  32.160         59.17	     8.426
  32.180         65.83	     8.888
  32.200         63.33	     8.718
  32.220         50.00	     7.746
  32.240         56.67	     8.246
  32.260         56.67	     8.246
  32.280         50.00	     7.746
  32.300         38.33	     6.782
  32.320         38.33	     6.782
  32.340         47.50	     7.550
  32.360         51.67	     7.874
  32.380         50.83	     7.810
  32.400         49.17	     7.681
  32.420         51.67	     7.874
  32.440         36.67	     6.633
  32.460         47.50	     7.550
  32.480         60.83	     8.544
  32.500         38.33	     6.782
  32.520         42.50	     7.141
  32.540         52.50	     7.937
  32.560         40.83	     7.000
  32.580         42.50	     7.141
  32.600         39.17	     6.856
  32.620         39.17	     6.856
  32.640         41.67	     7.071
  32.660         45.00	     7.348
  32.680         50.83	     7.810
  32.700         45.83	     7.416
  32.720         33.33	     6.325
  32.740         50.83	     7.810
  32.760         40.83	     7.000
  32.780         43.33	     7.211
  32.800         38.33	     6.782
  32.820         56.67	     8.246
  32.840         64.17	     8.775
  32.860         60.83	     8.544
  32.880         66.67	     8.944
  32.900         79.17	     9.747
  32.920         85.83	    10.149
  32.940        104.17	    11.180
  32.960         79.17	     9.747
  32.980         85.83	    10.149
  33.000         79.17	     9.747
  33.020         96.67	    10.770
  33.040        124.17	    12.207
  33.060        116.67	    11.832
  33.080         88.33	    10.296
  33.100         72.50	     9.327
  33.120         78.33	     9.695
  33.140         70.83	     9.220
  33.160         56.67	     8.246
  33.180         55.83	     8.185
  33.200         52.50	     7.937
  33.220         39.17	     6.856
  33.240         57.50	     8.307
  33.260         42.50	     7.141
  33.280         50.83	     7.810
  33.300         46.67	     7.483
  33.320         56.67	     8.246
  33.340         45.00	     7.348
  33.360         43.33	     7.211
  33.380         42.50	     7.141
  33.400         35.83	     6.557
  33.420         44.17	     7.280
  33.440         48.33	     7.616
  33.460         47.50	     7.550
  33.480         43.33	     7.211
  33.500         51.67	     7.874
  33.520         50.83	     7.810
  33.540         46.67	     7.483
  33.560         54.17	     8.062
  33.580         40.83	     7.000
  33.600         40.00	     6.928
  33.620         32.50	     6.245
  33.640         45.00	     7.348
  33.660         55.83	     8.185
  33.680         50.00	     7.746
  33.700         50.00	     7.746
  33.720         60.00	     8.485
  33.740         48.33	     7.616
  33.760         70.83	     9.220
  33.780         50.00	     7.746
  33.800         75.00	     9.487
  33.820         72.50	     9.327
  33.840         85.83	    10.149
  33.860         75.83	     9.539
  33.880         70.83	     9.220
  33.900         63.33	     8.718
  33.920         60.00	     8.485
  33.940         70.00	     9.165
  33.960         70.00	     9.165
  33.980         48.33	     7.616
  34.000         73.33	     9.381
  34.020         52.50	     7.937
  34.040         58.33	     8.367
  34.060         55.83	     8.185
  34.080         65.83	     8.888
  34.100         55.00	     8.124
  34.120         48.33	     7.616
  34.140         60.00	     8.485
  34.160         46.67	     7.483
  34.180         48.33	     7.616
  34.200         61.67	     8.602
  34.220         56.67	     8.246
  34.240         71.67	     9.274
  34.260         88.33	    10.296
  34.280         80.00	     9.798
  34.300         77.50	     9.644
  34.320         76.67	     9.592
  34.340         90.83	    10.440
  34.360        111.67	    11.576
  34.380        104.17	    11.180
  34.400        115.83	    11.790
  34.420         85.00	    10.100
  34.440        106.67	    11.314
  34.460        116.67	    11.832
  34.480         97.50	    10.817
  34.500         90.83	    10.440
  34.520         74.17	     9.434
  34.540         75.00	     9.487
  34.560         74.17	     9.434
  34.580         76.67	     9.592
  34.600         72.50	     9.327
  34.620         77.50	     9.644
  34.640         69.17	     9.110
  34.660         69.17	     9.110
  34.680         76.67	     9.592
  34.700         90.00	    10.392
  34.720         89.17	    10.344
  34.740         80.00	     9.798
  34.760        103.33	    11.136
  34.780        100.00	    10.954
  34.800         98.33	    10.863
  34.820        105.00	    11.225
  34.840        128.33	    12.410
  34.860        138.33	    12.884
  34.880        140.83	    13.000
  34.900        138.33	    12.884
  34.920        120.00	    12.000
  34.940        110.83	    11.533
  34.960         98.33	    10.863
  34.980        105.00	    11.225
  35.000        101.67	    11.045
  35.020         90.83	    10.440
  35.040         80.00	     9.798
  35.060         97.50	    10.817
  35.080         67.50	     9.000
  35.100         64.17	     8.775
  35.120         73.33	     9.381
  35.140         71.67	     9.274
  35.160         89.17	    10.344
  35.180         80.83	     9.849
  35.200         75.83	     9.539
  35.220         71.67	     9.274
  35.240         61.67	     8.602
  35.260         65.83	     8.888
  35.280         77.50	     9.644
  35.300         75.00	     9.487
  35.320         88.33	    10.296
  35.340         89.17	    10.344
  35.360        102.50	    11.091
  35.380         92.50	    10.536
  35.400        106.67	    11.314
  35.420        112.50	    11.619
  35.440         99.17	    10.909
  35.460        126.67	    12.329
  35.480        102.50	    11.091
  35.500        109.17	    11.446
  35.520         95.83	    10.724
  35.540         94.17	    10.630
  35.560         80.00	     9.798
  35.580         79.17	     9.747
  35.600         80.83	     9.849
  35.620         79.17	     9.747
  35.640         68.33	     9.055
  35.660         64.17	     8.775
  35.680         60.83	     8.544
  35.700         70.83	     9.220
  35.720         75.00	     9.487
  35.740         50.00	     7.746
  35.760         64.17	     8.775
  35.780         63.33	     8.718
  35.800         63.33	     8.718
  35.820         68.33	     9.055
  35.840         75.00	     9.487
  35.860         80.83	     9.849
  35.880         80.00	     9.798
  35.900         74.17	     9.434
  35.920         72.50	     9.327
  35.940         80.83	     9.849
  35.960         95.83	    10.724
  35.980         91.67	    10.488
  36.000         95.83	    10.724
  36.020         72.50	     9.327
  36.040         81.67	     9.899
  36.060         72.50	     9.327
  36.080         73.33	     9.381
  36.100         69.17	     9.110
  36.120         65.83	     8.888
  36.140         65.00	     8.832
  36.160         55.83	     8.185
  36.180         58.33	     8.367
  36.200         51.67	     7.874
  36.220         57.50	     8.307
  36.240         50.83	     7.810
  36.260         50.00	     7.746
  36.280         66.67	     8.944
  36.300         75.83	     9.539
  36.320         81.67	     9.899
  36.340         78.33	     9.695
  36.360         91.67	    10.488
  36.380        138.33	    12.884
  36.400        192.50	    15.199
  36.420        284.17	    18.466
  36.440        368.33	    21.024
  36.460        320.00	    19.596
  36.480        225.83	    16.462
  36.500        210.83	    15.906
  36.520        221.67	    16.310
  36.540        243.33	    17.088
  36.560        192.50	    15.199
  36.580        150.00	    13.416
  36.600        110.00	    11.489
  36.620        105.83	    11.269
  36.640         99.17	    10.909
  36.660         70.00	     9.165
  36.680         78.33	     9.695
  36.700         74.17	     9.434
  36.720         80.83	     9.849
  36.740         66.67	     8.944
  36.760         60.00	     8.485
  36.780         53.33	     8.000
  36.800         59.17	     8.426
  36.820         59.17	     8.426
  36.840        100.00	    10.954
  36.860        107.50	    11.358
  36.880        120.83	    12.042
  36.900         85.00	    10.100
  36.920         63.33	     8.718
  36.940         62.50	     8.660
  36.960         95.00	    10.677
  36.980         90.00	    10.392
  37.000         54.17	     8.062
  37.020         52.50	     7.937
  37.040         55.00	     8.124
  37.060         58.33	     8.367
  37.080         53.33	     8.000
  37.100         54.17	     8.062
  37.120         58.33	     8.367
  37.140         59.17	     8.426
  37.160         64.17	     8.775
  37.180         52.50	     7.937
  37.200         50.00	     7.746
  37.220         66.67	     8.944
  37.240         80.00	     9.798
  37.260         58.33	     8.367
  37.280         54.17	     8.062
  37.300         74.17	     9.434
  37.320         74.17	     9.434
  37.340         73.33	     9.381
  37.360         63.33	     8.718
  37.380         60.00	     8.485
  37.400         72.50	     9.327
  37.420         73.33	     9.381
  37.440         64.17	     8.775
  37.460         84.17	    10.050
  37.480         80.00	     9.798
  37.500         70.00	     9.165
  37.520         84.17	    10.050
  37.540         78.33	     9.695
  37.560         90.00	    10.392
  37.580         68.33	     9.055
  37.600         78.33	     9.695
  37.620         90.83	    10.440
  37.640         81.67	     9.899
  37.660         82.50	     9.950
  37.680         70.83	     9.220
  37.700         66.67	     8.944
  37.720         55.83	     8.185
  37.740         49.17	     7.681
  37.760         63.33	     8.718
  37.780         46.67	     7.483
  37.800         45.83	     7.416
  37.820         49.17	     7.681
  37.840         49.17	     7.681
  37.860         44.17	     7.280
  37.880         49.17	     7.681
  37.900         37.50	     6.708
  37.920         51.67	     7.874
  37.940         40.83	     7.000
  37.960         41.67	     7.071
  37.980         44.17	     7.280
  38.000         48.33	     7.616
  38.020         39.17	     6.856
  38.040         44.17	     7.280
  38.060         50.00	     7.746
  38.080         36.67	     6.633
  38.100         42.50	     7.141
  38.120         45.00	     7.348
  38.140         49.17	     7.681
  38.160         32.50	     6.245
  38.180         46.67	     7.483
  38.200         44.17	     7.280
  38.220         35.83	     6.557
  38.240         30.83	     6.083
  38.260         45.83	     7.416
  38.280         37.50	     6.708
  38.300         53.33	     8.000
  38.320         35.00	     6.481
  38.340         40.83	     7.000
  38.360         42.50	     7.141
  38.380         40.83	     7.000
  38.400         50.83	     7.810
  38.420         35.83	     6.557
  38.440         40.83	     7.000
  38.460         41.67	     7.071
  38.480         48.33	     7.616
  38.500         40.83	     7.000
  38.520         46.67	     7.483
  38.540         54.17	     8.062
  38.560         42.50	     7.141
  38.580         55.83	     8.185
  38.600         64.17	     8.775
  38.620         56.67	     8.246
  38.640         50.00	     7.746
  38.660         68.33	     9.055
  38.680         80.83	     9.849
  38.700        127.50	    12.369
  38.720        192.50	    15.199
  38.740        160.00	    13.856
  38.760         94.17	    10.630
  38.780         76.67	     9.592
  38.800        104.17	    11.180
  38.820        106.67	    11.314
  38.840        105.00	    11.225
  38.860         66.67	     8.944
  38.880         45.83	     7.416
  38.900         47.50	     7.550
  38.920         57.50	     8.307
  38.940         48.33	     7.616
  38.960         39.17	     6.856
  38.980         31.67	     6.164
  39.000         32.50	     6.245
  39.020         39.17	     6.856
  39.040         37.50	     6.708
  39.060         41.67	     7.071
  39.080         44.17	     7.280
  39.100         39.17	     6.856
  39.120         55.83	     8.185
  39.140         50.83	     7.810
  39.160         47.50	     7.550
  39.180         40.00	     6.928
  39.200         49.17	     7.681
  39.220         50.00	     7.746
  39.240         57.50	     8.307
  39.260         64.17	     8.775
  39.280         64.17	     8.775
  39.300        116.67	    11.832
  39.320        169.17	    14.248
  39.340        201.67	    15.556
  39.360        226.67	    16.492
  39.380        186.67	    14.967
  39.400        128.33	    12.410
  39.420        152.50	    13.528
  39.440        148.33	    13.342
  39.460        149.17	    13.379
  39.480        130.00	    12.490
  39.500         95.83	    10.724
  39.520         79.17	     9.747
  39.540         79.17	     9.747
  39.560         72.50	     9.327
  39.580         65.83	     8.888
  39.600         59.17	     8.426
  39.620         48.33	     7.616
  39.640         63.33	     8.718
  39.660         40.00	     6.928
  39.680         55.00	     8.124
  39.700         44.17	     7.280
  39.720         51.67	     7.874
  39.740         44.17	     7.280
  39.760         55.83	     8.185
  39.780         55.83	     8.185
  39.800         42.50	     7.141
  39.820         41.67	     7.071
  39.840         70.00	     9.165
  39.860         51.67	     7.874
  39.880         55.83	     8.185
  39.900         60.83	     8.544
  39.920         55.83	     8.185
  39.940         49.17	     7.681
  39.960         46.67	     7.483
  39.980         46.67	     7.483
  40.000         57.50	     8.307
  40.020         63.33	     8.718
  40.040         55.00	     8.124
  40.060         50.00	     7.746
  40.080         45.83	     7.416
  40.100         48.33	     7.616
  40.120         71.67	     9.274
  40.140         87.50	    10.247
  40.160        110.00	    11.489
  40.180        136.67	    12.806
  40.200        165.83	    14.107
  40.220        154.17	    13.601
  40.240        105.00	    11.225
  40.260         87.50	    10.247
  40.280         88.33	    10.296
  40.300        124.17	    12.207
  40.320        115.83	    11.790
  40.340         76.67	     9.592
  40.360         51.67	     7.874
  40.380         59.17	     8.426
  40.400         61.67	     8.602
  40.420         32.50	     6.245
  40.440         40.00	     6.928
  40.460         43.33	     7.211
  40.480         40.00	     6.928
  40.500         40.83	     7.000
  40.520         55.00	     8.124
  40.540         46.67	     7.483
  40.560         44.17	     7.280
  40.580         45.00	     7.348
  40.600         36.67	     6.633
  40.620         53.33	     8.000
  40.640         32.50	     6.245
  40.660         36.67	     6.633
  40.680         40.00	     6.928
  40.700         33.33	     6.325
  40.720         47.50	     7.550
  40.740         50.00	     7.746
  40.760         51.67	     7.874
  40.780         36.67	     6.633
  40.800         51.67	     7.874
  40.820         60.00	     8.485
  40.840         47.50	     7.550
  40.860         39.17	     6.856
  40.880         53.33	     8.000
  40.900         43.33	     7.211
  40.920         46.67	     7.483
  40.940         46.67	     7.483
  40.960         52.50	     7.937
  40.980         56.67	     8.246
  41.000         35.83	     6.557
  41.020         40.83	     7.000
  41.040         40.83	     7.000
  41.060         48.33	     7.616
  41.080         41.67	     7.071
  41.100         58.33	     8.367
  41.120         55.83	     8.185
  41.140         58.33	     8.367
  41.160         59.17	     8.426
  41.180         40.83	     7.000
  41.200         53.33	     8.000
  41.220         56.67	     8.246
  41.240         62.50	     8.660
  41.260         56.67	     8.246
  41.280         56.67	     8.246
  41.300         55.00	     8.124
  41.320         44.17	     7.280
  41.340         38.33	     6.782
  41.360         45.83	     7.416
  41.380         51.67	     7.874
  41.400         47.50	     7.550
  41.420         45.00	     7.348
  41.440         44.17	     7.280
  41.460         49.17	     7.681
  41.480         50.00	     7.746
  41.500         57.50	     8.307
  41.520         69.17	     9.110
  41.540         58.33	     8.367
  41.560         61.67	     8.602
  41.580         56.67	     8.246
  41.600         85.00	    10.100
  41.620         67.50	     9.000
  41.640         85.00	    10.100
  41.660         64.17	     8.775
  41.680         74.17	     9.434
  41.700         64.17	     8.775
  41.720         60.00	     8.485
  41.740         70.83	     9.220
  41.760         91.67	    10.488
  41.780         85.00	    10.100
  41.800         60.83	     8.544
  41.820         65.00	     8.832
  41.840         68.33	     9.055
  41.860         71.67	     9.274
  41.880         77.50	     9.644
  41.900         60.83	     8.544
  41.920         54.17	     8.062
  41.940         62.50	     8.660
  41.960         65.83	     8.888
  41.980         74.17	     9.434
  42.000         53.33	     8.000
  42.020         57.50	     8.307
  42.040         62.50	     8.660
  42.060         64.17	     8.775
  42.080         72.50	     9.327
  42.100         64.17	     8.775
  42.120         64.17	     8.775
  42.140         72.50	     9.327
  42.160         80.00	     9.798
  42.180         82.50	     9.950
  42.200         94.17	    10.630
  42.220         93.33	    10.583
  42.240         85.00	    10.100
  42.260        119.17	    11.958
  42.280        111.67	    11.576
  42.300        158.33	    13.784
  42.320        214.17	    16.031
  42.340        263.33	    17.776
  42.360        307.50	    19.209
  42.380        235.83	    16.823
  42.400        181.67	    14.765
  42.420        150.00	    13.416
  42.440        144.17	    13.153
  42.460        146.67	    13.266
  42.480        170.83	    14.318
  42.500        130.83	    12.530
  42.520         90.83	    10.440
  42.540         60.00	     8.485
  42.560         73.33	     9.381
  42.580         58.33	     8.367
  42.600         70.83	     9.220
  42.620         75.83	     9.539
  42.640         65.83	     8.888
  42.660         59.17	     8.426
  42.680         65.00	     8.832
  42.700         65.83	     8.888
  42.720         60.83	     8.544
  42.740         61.67	     8.602
  42.760         60.83	     8.544
  42.780         45.83	     7.416
  42.800         61.67	     8.602
  42.820         49.17	     7.681
  42.840         53.33	     8.000
  42.860         57.50	     8.307
  42.880         68.33	     9.055
  42.900         50.83	     7.810
  42.920         51.67	     7.874
  42.940         41.67	     7.071
  42.960         46.67	     7.483
  42.980         47.50	     7.550
  43.000         51.67	     7.874
  43.020         56.67	     8.246
  43.040         62.50	     8.660
  43.060         48.33	     7.616
  43.080         46.67	     7.483
  43.100         41.67	     7.071
  43.120         53.33	     8.000
  43.140         57.50	     8.307
  43.160         45.00	     7.348
  43.180         62.50	     8.660
  43.200         56.67	     8.246
  43.220         62.50	     8.660
  43.240         56.67	     8.246
  43.260         63.33	     8.718
  43.280         59.17	     8.426
  43.300         72.50	     9.327
  43.320         63.33	     8.718
  43.340         72.50	     9.327
  43.360         60.83	     8.544
  43.380         72.50	     9.327
  43.400         82.50	     9.950
  43.420         81.67	     9.899
  43.440         85.83	    10.149
  43.460         93.33	    10.583
  43.480         90.00	    10.392
  43.500         87.50	    10.247
  43.520        102.50	    11.091
  43.540         80.00	     9.798
  43.560         92.50	    10.536
  43.580         90.00	    10.392
  43.600        105.83	    11.269
  43.620         99.17	    10.909
  43.640        112.50	    11.619
  43.660         93.33	    10.583
  43.680         93.33	    10.583
  43.700        101.67	    11.045
  43.720         73.33	     9.381
  43.740         80.00	     9.798
  43.760         76.67	     9.592
  43.780         95.83	    10.724
  43.800         85.00	    10.100
  43.820         87.50	    10.247
  43.840         84.17	    10.050
  43.860        105.83	    11.269
  43.880         79.17	     9.747
  43.900        102.50	    11.091
  43.920        100.83	    11.000
  43.940         95.00	    10.677
  43.960        104.17	    11.180
  43.980         85.00	    10.100
  44.000         97.50	    10.817
  44.020        112.50	    11.619
  44.040        119.17	    11.958
  44.060        134.17	    12.689
  44.080        131.67	    12.570
  44.100        156.67	    13.711
  44.120        144.17	    13.153
  44.140        166.67	    14.142
  44.160        245.00	    17.146
  44.180        263.33	    17.776
  44.200        265.00	    17.833
  44.220        235.00	    16.793
  44.240        226.67	    16.492
  44.260        245.83	    17.176
  44.280        311.67	    19.339
  44.300        314.17	    19.416
  44.320        316.67	    19.494
  44.340        287.50	    18.574
  44.360        324.17	    19.723
  44.380        364.17	    20.905
  44.400        349.17	    20.469
  44.420        285.83	    18.520
  44.440        311.67	    19.339
  44.460        320.83	    19.621
  44.480        319.17	    19.570
  44.500        309.17	    19.261
  44.520        305.00	    19.131
  44.540        301.67	    19.026
  44.560        305.00	    19.131
  44.580        261.67	    17.720
  44.600        255.83	    17.521
  44.620        285.83	    18.520
  44.640        250.00	    17.321
  44.660        242.50	    17.059
  44.680        199.17	    15.460
  44.700        211.67	    15.937
  44.720        186.67	    14.967
  44.740        177.50	    14.595
  44.760        176.67	    14.560
  44.780        150.83	    13.454
  44.800        153.33	    13.565
  44.820        127.50	    12.369
  44.840        114.17	    11.705
  44.860        128.33	    12.410
  44.880         98.33	    10.863
  44.900        100.00	    10.954
  44.920        107.50	    11.358
  44.940        105.00	    11.225
  44.960        101.67	    11.045
  44.980         82.50	     9.950
  45.000         94.17	    10.630
  45.020         82.50	     9.950
  45.040         94.17	    10.630
  45.060         87.50	    10.247
  45.080         75.83	     9.539
  45.100         90.00	    10.392
  45.120         80.83	     9.849
  45.140         75.83	     9.539
  45.160         91.67	    10.488
  45.180         83.33	    10.000
  45.200         85.00	    10.100
  45.220         90.00	    10.392
  45.240        109.17	    11.446
  45.260        118.33	    11.916
  45.280        129.17	    12.450
  45.300        120.83	    12.042
  45.320        141.67	    13.038
  45.340        147.50	    13.304
  45.360        159.17	    13.820
  45.380        166.67	    14.142
  45.400        184.17	    14.866
  45.420        200.00	    15.492
  45.440        200.83	    15.524
  45.460        209.17	    15.843
  45.480        226.67	    16.492
  45.500        218.33	    16.186
  45.520        201.67	    15.556
  45.540        214.17	    16.031
  45.560        155.00	    13.638
  45.580        154.17	    13.601
  45.600        140.00	    12.961
  45.620        134.17	    12.689
  45.640        156.67	    13.711
  45.660        150.00	    13.416
  45.680        151.67	    13.491
  45.700        165.00	    14.071
  45.720        119.17	    11.958
  45.740         99.17	    10.909
  45.760         95.83	    10.724
  45.780         92.50	    10.536
  45.800         95.00	    10.677
  45.820         91.67	    10.488
  45.840         86.67	    10.198
  45.860         64.17	     8.775
  45.880         65.83	     8.888
  45.900         62.50	     8.660
  45.920         53.33	     8.000
  45.940         55.00	     8.124
  45.960         53.33	     8.000
  45.980         60.00	     8.485
  46.000         62.50	     8.660
  46.020         53.33	     8.000
  46.040         60.00	     8.485
  46.060         55.00	     8.124
  46.080         45.83	     7.416
  46.100         68.33	     9.055
  46.120         46.67	     7.483
  46.140         36.67	     6.633
  46.160         40.83	     7.000
  46.180         50.83	     7.810
  46.200         32.50	     6.245
  46.220         54.17	     8.062
  46.240         46.67	     7.483
  46.260         36.67	     6.633
  46.280         35.83	     6.557
  46.300         35.00	     6.481
  46.320         40.00	     6.928
  46.340         41.67	     7.071
  46.360         41.67	     7.071
  46.380         37.50	     6.708
  46.400         41.67	     7.071
  46.420         46.67	     7.483
  46.440         42.50	     7.141
  46.460         43.33	     7.211
  46.480         50.00	     7.746
  46.500         38.33	     6.782
  46.520         45.83	     7.416
  46.540         37.50	     6.708
  46.560         54.17	     8.062
  46.580         44.17	     7.280
  46.600         45.83	     7.416
  46.620         42.50	     7.141
  46.640         55.83	     8.185
  46.660         45.00	     7.348
  46.680         40.83	     7.000
  46.700         37.50	     6.708
  46.720         34.17	     6.403
  46.740         40.83	     7.000
  46.760         35.83	     6.557
  46.780         38.33	     6.782
  46.800         41.67	     7.071
  46.820         38.33	     6.782
  46.840         33.33	     6.325
  46.860         36.67	     6.633
  46.880         50.00	     7.746
  46.900         42.50	     7.141
  46.920         45.83	     7.416
  46.940         41.67	     7.071
  46.960         55.83	     8.185
  46.980         63.33	     8.718
  47.000         65.00	     8.832
  47.020         56.67	     8.246
  47.040         52.50	     7.937
  47.060         51.67	     7.874
  47.080         62.50	     8.660
  47.100         55.00	     8.124
  47.120         36.67	     6.633
  47.140         45.83	     7.416
  47.160         51.67	     7.874
  47.180         53.33	     8.000
  47.200         42.50	     7.141
  47.220         26.67	     5.657
  47.240         40.83	     7.000
  47.260         46.67	     7.483
  47.280         40.00	     6.928
  47.300         41.67	     7.071
  47.320         40.00	     6.928
  47.340         47.50	     7.550
  47.360         44.17	     7.280
  47.380         35.83	     6.557
  47.400         34.17	     6.403
  47.420         42.50	     7.141
  47.440         49.17	     7.681
  47.460         32.50	     6.245
  47.480         38.33	     6.782
  47.500         40.83	     7.000
  47.520         31.67	     6.164
  47.540         33.33	     6.325
  47.560         33.33	     6.325
  47.580         27.50	     5.745
  47.600         30.00	     6.000
  47.620         34.17	     6.403
  47.640         40.00	     6.928
  47.660         36.67	     6.633
  47.680         38.33	     6.782
  47.700         32.50	     6.245
  47.720         37.50	     6.708
  47.740         30.83	     6.083
  47.760         40.00	     6.928
  47.780         40.83	     7.000
  47.800         50.00	     7.746
  47.820         55.00	     8.124
  47.840         50.00	     7.746
  47.860         55.83	     8.185
  47.880         55.00	     8.124
  47.900         52.50	     7.937
  47.920         49.17	     7.681
  47.940         45.83	     7.416
  47.960         45.83	     7.416
  47.980         51.67	     7.874
  48.000         52.50	     7.937
  48.020         62.50	     8.660
  48.040         66.67	     8.944
  48.060         48.33	     7.616
  48.080         45.83	     7.416
  48.100         68.33	     9.055
  48.120         48.33	     7.616
  48.140         63.33	     8.718
  48.160         47.50	     7.550
  48.180         64.17	     8.775
  48.200         59.17	     8.426
  48.220         45.83	     7.416
  48.240         53.33	     8.000
  48.260         54.17	     8.062
  48.280         46.67	     7.483
  48.300         49.17	     7.681
  48.320         52.50	     7.937
  48.340         36.67	     6.633
  48.360         50.83	     7.810
  48.380         35.00	     6.481
  48.400         45.00	     7.348
  48.420         50.83	     7.810
  48.440         42.50	     7.141
  48.460         38.33	     6.782
  48.480         43.33	     7.211
  48.500         44.17	     7.280
  48.520         37.50	     6.708
  48.540         53.33	     8.000
  48.560         39.17	     6.856
  48.580         34.17	     6.403
  48.600         40.83	     7.000
  48.620         40.83	     7.000
  48.640         45.00	     7.348
  48.660         41.67	     7.071
  48.680         54.17	     8.062
  48.700         43.33	     7.211
  48.720         40.83	     7.000
  48.740         42.50	     7.141
  48.760         44.17	     7.280
  48.780         37.50	     6.708
  48.800         42.50	     7.141
  48.820         50.00	     7.746
  48.840         45.83	     7.416
  48.860         48.33	     7.616
  48.880         44.17	     7.280
  48.900         45.00	     7.348
  48.920         47.50	     7.550
  48.940         44.17	     7.280
  48.960         37.50	     6.708
  48.980         45.00	     7.348
  49.000         46.67	     7.483
  49.020         44.17	     7.280
  49.040         40.00	     6.928
  49.060         60.00	     8.485
  49.080         76.67	     9.592
  49.100        120.00	    12.000
  49.120         95.00	    10.677
  49.140         60.00	     8.485
  49.160         67.50	     9.000
  49.180         47.50	     7.550
  49.200         64.17	     8.775
  49.220         58.33	     8.367
  49.240         68.33	     9.055
  49.260         65.00	     8.832
  49.280         60.00	     8.485
  49.300         50.00	     7.746
  49.320         47.50	     7.550
  49.340         50.83	     7.810
  49.360         69.17	     9.110
  49.380         62.50	     8.660
  49.400         59.17	     8.426
  49.420         55.00	     8.124
  49.440         58.33	     8.367
  49.460         60.83	     8.544
  49.480         71.67	     9.274
  49.500         86.67	    10.198
  49.520         60.00	     8.485
  49.540         70.00	     9.165
  49.560         52.50	     7.937
  49.580         55.83	     8.185
  49.600         67.50	     9.000
  49.620         60.00	     8.485
  49.640         69.17	     9.110
  49.660         91.67	    10.488
  49.680        105.83	    11.269
  49.700        105.83	    11.269
  49.720        105.00	    11.225
  49.740         96.67	    10.770
  49.760         74.17	     9.434
  49.780         80.00	     9.798
  49.800         89.17	    10.344
  49.820        112.50	    11.619
  49.840        119.17	    11.958
  49.860        104.17	    11.180
  49.880        102.50	    11.091
  49.900         76.67	     9.592
  49.920        105.00	    11.225
  49.940        140.83	    13.000
  49.960        207.50	    15.780
  49.980        305.83	    19.157
  50.000        407.50	    22.113
  50.020        497.50	    24.434
  50.040        507.50	    24.678
  50.060        454.17	    23.345
  50.080        356.67	    20.688
  50.100        222.50	    16.340
  50.120        228.33	    16.553
  50.140        274.17	    18.138
  50.160        310.00	    19.287
  50.180        315.00	    19.442
  50.200        255.83	    17.521
  50.220        175.83	    14.526
  50.240         82.50	     9.950
  50.260         84.17	    10.050
  50.280         64.17	     8.775
  50.300         75.83	     9.539
  50.320         60.83	     8.544
  50.340         65.00	     8.832
  50.360         70.83	     9.220
  50.380         65.00	     8.832
  50.400         55.83	     8.185
  50.420         68.33	     9.055
  50.440         70.83	     9.220
  50.460         80.00	     9.798
  50.480         90.83	    10.440
  50.500        124.17	    12.207
  50.520        109.17	    11.446
  50.540         98.33	    10.863
  50.560         95.83	    10.724
  50.580         85.83	    10.149
  50.600         63.33	     8.718
  50.620         75.00	     9.487
  50.640         90.00	    10.392
  50.660         93.33	    10.583
  50.680         79.17	     9.747
  50.700         75.00	     9.487
  50.720         56.67	     8.246
  50.740         71.67	     9.274
  50.760         62.50	     8.660
  50.780         42.50	     7.141
  50.800         53.33	     8.000
  50.820         55.83	     8.185
  50.840         53.33	     8.000
  50.860         61.67	     8.602
  50.880         48.33	     7.616
  50.900         48.33	     7.616
  50.920         33.33	     6.325
  50.940         45.00	     7.348
  50.960         52.50	     7.937
  50.980         50.83	     7.810
  51.000         79.17	     9.747
  51.020         79.17	     9.747
  51.040         81.67	     9.899
  51.060         75.00	     9.487
  51.080         56.67	     8.246
  51.100         59.17	     8.426
  51.120         52.50	     7.937
  51.140         75.00	     9.487
  51.160         71.67	     9.274
  51.180         71.67	     9.274
  51.200         69.17	     9.110
  51.220         49.17	     7.681
  51.240         44.17	     7.280
  51.260         46.67	     7.483
  51.280         43.33	     7.211
  51.300         36.67	     6.633
  51.320         40.83	     7.000
  51.340         40.83	     7.000
  51.360         40.83	     7.000
  51.380         60.83	     8.544
  51.400         36.67	     6.633
  51.420         40.00	     6.928
  51.440         50.00	     7.746
  51.460         40.00	     6.928
  51.480         40.83	     7.000
  51.500         36.67	     6.633
  51.520         37.50	     6.708
  51.540         39.17	     6.856
  51.560         30.00	     6.000
  51.580         31.67	     6.164
  51.600         26.67	     5.657
  51.620         35.83	     6.557
  51.640         40.83	     7.000
  51.660         30.00	     6.000
  51.680         35.83	     6.557
  51.700         26.67	     5.657
  51.720         29.17	     5.916
  51.740         37.50	     6.708
  51.760         28.33	     5.831
  51.780         35.00	     6.481
  51.800         27.50	     5.745
  51.820         28.33	     5.831
  51.840         35.00	     6.481
  51.860         36.67	     6.633
  51.880         38.33	     6.782
  51.900         46.67	     7.483
  51.920         41.67	     7.071
  51.940         43.33	     7.211
  51.960         70.83	     9.220
  51.980         73.33	     9.381
  52.000         69.17	     9.110
  52.020         50.83	     7.810
  52.040         45.83	     7.416
  52.060         35.83	     6.557
  52.080         54.17	     8.062
  52.100         56.67	     8.246
  52.120         53.33	     8.000
  52.140         44.17	     7.280
  52.160         45.83	     7.416
  52.180         50.83	     7.810
  52.200         55.00	     8.124
  52.220         47.50	     7.550
  52.240         60.00	     8.485
  52.260         40.83	     7.000
  52.280         42.50	     7.141
  52.300         44.17	     7.280
  52.320         43.33	     7.211
  52.340         33.33	     6.325
  52.360         55.83	     8.185
  52.380         45.00	     7.348
  52.400         51.67	     7.874
  52.420         45.00	     7.348
  52.440         50.00	     7.746
  52.460         47.50	     7.550
  52.480         40.00	     6.928
  52.500         33.33	     6.325
  52.520         37.50	     6.708
  52.540         35.83	     6.557
  52.560         37.50	     6.708
  52.580         39.17	     6.856
  52.600         45.83	     7.416
  52.620         38.33	     6.782
  52.640         42.50	     7.141
  52.660         32.50	     6.245
  52.680         39.17	     6.856
  52.700         40.83	     7.000
  52.720         35.83	     6.557
  52.740         48.33	     7.616
  52.760         45.00	     7.348
  52.780         41.67	     7.071
  52.800         35.83	     6.557
  52.820         42.50	     7.141
  52.840         42.50	     7.141
  52.860         55.00	     8.124
  52.880         45.00	     7.348
  52.900         52.50	     7.937
  52.920         58.33	     8.367
  52.940         45.00	     7.348
  52.960         37.50	     6.708
  52.980         50.00	     7.746
  53.000         52.50	     7.937
  53.020         45.83	     7.416
  53.040         63.33	     8.718
  53.060         58.33	     8.367
  53.080         56.67	     8.246
  53.100         45.83	     7.416
  53.120         54.17	     8.062
  53.140         42.50	     7.141
  53.160         61.67	     8.602
  53.180         56.67	     8.246
  53.200         54.17	     8.062
  53.220         50.00	     7.746
  53.240         50.00	     7.746
  53.260         45.83	     7.416
  53.280         51.67	     7.874
  53.300         40.83	     7.000
  53.320         46.67	     7.483
  53.340         50.83	     7.810
  53.360         46.67	     7.483
  53.380         38.33	     6.782
  53.400         35.83	     6.557
  53.420         40.00	     6.928
  53.440         39.17	     6.856
  53.460         30.83	     6.083
  53.480         32.50	     6.245
  53.500         44.17	     7.280
  53.520         33.33	     6.325
  53.540         44.17	     7.280
  53.560         48.33	     7.616
  53.580         38.33	     6.782
  53.600         37.50	     6.708
  53.620         45.83	     7.416
  53.640         50.83	     7.810
  53.660         40.00	     6.928
  53.680         35.00	     6.481
  53.700         37.50	     6.708
  53.720         26.67	     5.657
  53.740         43.33	     7.211
  53.760         47.50	     7.550
  53.780         44.17	     7.280
  53.800         45.83	     7.416
  53.820         45.00	     7.348
  53.840         43.33	     7.211
  53.860         42.50	     7.141
  53.880         30.00	     6.000
  53.900         35.00	     6.481
  53.920         40.83	     7.000
  53.940         48.33	     7.616
  53.960         47.50	     7.550
  53.980         38.33	     6.782
  54.000         35.83	     6.557
  54.020         37.50	     6.708
  54.040         29.17	     5.916
  54.060         40.00	     6.928
  54.080         38.33	     6.782
  54.100         47.50	     7.550
  54.120         40.83	     7.000
  54.140         40.00	     6.928
  54.160         35.00	     6.481
  54.180         40.00	     6.928
  54.200         49.17	     7.681
  54.220         45.00	     7.348
  54.240         54.17	     8.062
  54.260         45.83	     7.416
  54.280         42.50	     7.141
  54.300         55.83	     8.185
  54.320         47.50	     7.550
  54.340         43.33	     7.211
  54.360         45.83	     7.416
  54.380         45.83	     7.416
  54.400         53.33	     8.000
  54.420         53.33	     8.000
  54.440         45.83	     7.416
  54.460         42.50	     7.141
  54.480         55.83	     8.185
  54.500         51.67	     7.874
  54.520         43.33	     7.211
  54.540         41.67	     7.071
  54.560         38.33	     6.782
  54.580         52.50	     7.937
  54.600         46.67	     7.483
  54.620         50.00	     7.746
  54.640         38.33	     6.782
  54.660         53.33	     8.000
  54.680         70.83	     9.220
  54.700         84.17	    10.050
  54.720        118.33	    11.916
  54.740        147.50	    13.304
  54.760        154.17	    13.601
  54.780        147.50	    13.304
  54.800        111.67	    11.576
  54.820         97.50	    10.817
  54.840         75.83	     9.539
  54.860         80.00	     9.798
  54.880         90.83	    10.440
  54.900        100.00	    10.954
  54.920        101.67	    11.045
  54.940         95.00	    10.677
  54.960         81.67	     9.899
  54.980         55.83	     8.185
  55.000         56.67	     8.246
  55.020         56.67	     8.246
  55.040         55.00	     8.124
  55.060         59.17	     8.426
  55.080         60.00	     8.485
  55.100         59.17	     8.426
  55.120         55.00	     8.124
  55.140         55.83	     8.185
  55.160         56.67	     8.246
  55.180         62.50	     8.660
  55.200         87.50	    10.247
  55.220         90.83	    10.440
  55.240         66.67	     8.944
  55.260         69.17	     9.110
  55.280         52.50	     7.937
  55.300         64.17	     8.775
  55.320         56.67	     8.246
  55.340         58.33	     8.367
  55.360         68.33	     9.055
  55.380         61.67	     8.602
  55.400         55.00	     8.124
  55.420         43.33	     7.211
  55.440         57.50	     8.307
  55.460         56.67	     8.246
  55.480         52.50	     7.937
  55.500         44.17	     7.280
  55.520         61.67	     8.602
  55.540         63.33	     8.718
  55.560         52.50	     7.937
  55.580         60.00	     8.485
  55.600         68.33	     9.055
  55.620         66.67	     8.944
  55.640         60.00	     8.485
  55.660         61.67	     8.602
  55.680         70.83	     9.220
  55.700         61.67	     8.602
  55.720         56.67	     8.246
  55.740         66.67	     8.944
  55.760         75.00	     9.487
  55.780         62.50	     8.660
  55.800         70.83	     9.220
  55.820         80.83	     9.849
  55.840         73.33	     9.381
  55.860         73.33	     9.381
  55.880         60.00	     8.485
  55.900         56.67	     8.246
  55.920         52.50	     7.937
  55.940         57.50	     8.307
  55.960         41.67	     7.071
  55.980         40.00	     6.928
  56.000         35.83	     6.557
  56.020         44.17	     7.280
  56.040         44.17	     7.280
  56.060         47.50	     7.550
  56.080         49.17	     7.681
  56.100         37.50	     6.708
  56.120         38.33	     6.782
  56.140         37.50	     6.708
  56.160         40.83	     7.000
  56.180         35.00	     6.481
  56.200         35.83	     6.557
  56.220         46.67	     7.483
  56.240         37.50	     6.708
  56.260         24.17	     5.385
  56.280         30.00	     6.000
  56.300         30.83	     6.083
  56.320         47.50	     7.550
  56.340         43.33	     7.211
  56.360         30.00	     6.000
  56.380         36.67	     6.633
  56.400         34.17	     6.403
  56.420         39.17	     6.856
  56.440         34.17	     6.403
  56.460         43.33	     7.211
  56.480         34.17	     6.403
  56.500         50.00	     7.746
  56.520         37.50	     6.708
  56.540         46.67	     7.483
  56.560         40.83	     7.000
  56.580         48.33	     7.616
  56.600         46.67	     7.483
  56.620         40.00	     6.928
  56.640         40.00	     6.928
  56.660         51.67	     7.874
  56.680         50.00	     7.746
  56.700         37.50	     6.708
  56.720         39.17	     6.856
  56.740         50.00	     7.746
  56.760         52.50	     7.937
  56.780         51.67	     7.874
  56.800         34.17	     6.403
  56.820         54.17	     8.062
  56.840         50.83	     7.810
  56.860         55.00	     8.124
  56.880         80.83	     9.849
  56.900         66.67	     8.944
  56.920         63.33	     8.718
  56.940         51.67	     7.874
  56.960         42.50	     7.141
  56.980         41.67	     7.071
  57.000         42.50	     7.141
  57.020         57.50	     8.307
  57.040         58.33	     8.367
  57.060         57.50	     8.307
  57.080         51.67	     7.874
  57.100         45.83	     7.416
  57.120         45.83	     7.416
  57.140         47.50	     7.550
  57.160         40.00	     6.928
  57.180         40.83	     7.000
  57.200         46.67	     7.483
  57.220         42.50	     7.141
  57.240         45.83	     7.416
  57.260         44.17	     7.280
  57.280         35.83	     6.557
  57.300         33.33	     6.325
  57.320         42.50	     7.141
  57.340         40.83	     7.000
  57.360         35.00	     6.481
  57.380         41.67	     7.071
  57.400         42.50	     7.141
  57.420         27.50	     5.745
  57.440         31.67	     6.164
  57.460         42.50	     7.141
  57.480         41.67	     7.071
  57.500         36.67	     6.633
  57.520         43.33	     7.211
  57.540         38.33	     6.782
  57.560         39.17	     6.856
  57.580         30.00	     6.000
  57.600         38.33	     6.782
  57.620         32.50	     6.245
  57.640         40.00	     6.928
  57.660         36.67	     6.633
  57.680         35.00	     6.481
  57.700         33.33	     6.325
  57.720         43.33	     7.211
  57.740         37.50	     6.708
  57.760         33.33	     6.325
  57.780         42.50	     7.141
  57.800         44.17	     7.280
  57.820         29.17	     5.916
  57.840         32.50	     6.245
  57.860         35.00	     6.481
  57.880         34.17	     6.403
  57.900         31.67	     6.164
  57.920         29.17	     5.916
  57.940         33.33	     6.325
  57.960         33.33	     6.325
  57.980         46.67	     7.483
  58.000         46.67	     7.483
  58.020         44.17	     7.280
  58.040         41.67	     7.071
  58.060         54.17	     8.062
  58.080         27.50	     5.745
  58.100         30.00	     6.000
  58.120         44.17	     7.280
  58.140         50.00	     7.746
  58.160         37.50	     6.708
  58.180         40.00	     6.928
  58.200         54.17	     8.062
  58.220         37.50	     6.708
  58.240         34.17	     6.403
  58.260         45.83	     7.416
  58.280         30.00	     6.000
  58.300         39.17	     6.856
  58.320         37.50	     6.708
  58.340         48.33	     7.616
  58.360         46.67	     7.483
  58.380         33.33	     6.325
  58.400         40.83	     7.000
  58.420         43.33	     7.211
  58.440         51.67	     7.874
  58.460         40.83	     7.000
  58.480         50.00	     7.746
  58.500         57.50	     8.307
  58.520         65.83	     8.888
  58.540         58.33	     8.367
  58.560         57.50	     8.307
  58.580         69.17	     9.110
  58.600         55.00	     8.124
  58.620         72.50	     9.327
  58.640         62.50	     8.660
  58.660         54.17	     8.062
  58.680         45.83	     7.416
  58.700         55.83	     8.185
  58.720         48.33	     7.616
  58.740         49.17	     7.681
  58.760         49.17	     7.681
  58.780         57.50	     8.307
  58.800         65.83	     8.888
  58.820         49.17	     7.681
  58.840         58.33	     8.367
  58.860         61.67	     8.602
  58.880         57.50	     8.307
  58.900         57.50	     8.307
  58.920         53.33	     8.000
  58.940         40.00	     6.928
  58.960         52.50	     7.937
  58.980         50.00	     7.746
  59.000         57.50	     8.307
  59.020         53.33	     8.000
  59.040         59.17	     8.426
  59.060         65.83	     8.888
  59.080         67.50	     9.000
  59.100         59.17	     8.426
  59.120         48.33	     7.616
  59.140         60.00	     8.485
  59.160         44.17	     7.280
  59.180         55.00	     8.124
  59.200         48.33	     7.616
  59.220         42.50	     7.141
  59.240         56.67	     8.246
  59.260         42.50	     7.141
  59.280         65.83	     8.888
  59.300         50.00	     7.746
  59.320         64.17	     8.775
  59.340         40.83	     7.000
  59.360         40.83	     7.000
  59.380         39.17	     6.856
  59.400         48.33	     7.616
  59.420         46.67	     7.483
  59.440         38.33	     6.782
  59.460         35.83	     6.557
  59.480         47.50	     7.550
  59.500         39.17	     6.856
  59.520         51.67	     7.874
  59.540         59.17	     8.426
  59.560         45.00	     7.348
  59.580         54.17	     8.062
  59.600         40.00	     6.928
  59.620         70.83	     9.220
  59.640         44.17	     7.280
  59.660         64.17	     8.775
  59.680         45.83	     7.416
  59.700         61.67	     8.602
  59.720         74.17	     9.434
  59.740         76.67	     9.592
  59.760        105.83	    11.269
  59.780        130.00	    12.490
  59.800        196.67	    15.362
  59.820        270.00	    18.000
  59.840        405.00	    22.045
  59.860        385.83	    21.517
  59.880        300.00	    18.974
  59.900        178.33	    14.629
  59.920        142.50	    13.077
  59.940        111.67	    11.576
  59.960        120.83	    12.042
  59.980        155.83	    13.675
  60.000        220.83	    16.279
  60.020        219.17	    16.217
  60.040        189.17	    15.067
  60.060        127.50	    12.369
  60.080         76.67	     9.592
  60.100         69.17	     9.110
  60.120         59.17	     8.426
  60.140         59.17	     8.426
  60.160         46.67	     7.483
  60.180         55.83	     8.185
  60.200         55.00	     8.124
  60.220         62.50	     8.660
  60.240         50.83	     7.810
  60.260         55.00	     8.124
  60.280         53.33	     8.000
  60.300         54.17	     8.062
  60.320         41.67	     7.071
  60.340         56.67	     8.246
  60.360         49.17	     7.681
  60.380         55.00	     8.124
  60.400         60.83	     8.544
  60.420         53.33	     8.000
  60.440         55.83	     8.185
  60.460         55.00	     8.124
  60.480         54.17	     8.062
  60.500         56.67	     8.246
  60.520         58.33	     8.367
  60.540         65.83	     8.888
  60.560         59.17	     8.426
  60.580         60.00	     8.485
  60.600         52.50	     7.937
  60.620         60.00	     8.485
  60.640         73.33	     9.381
  60.660         55.00	     8.124
  60.680         60.00	     8.485
  60.700         56.67	     8.246
  60.720         65.00	     8.832
  60.740         61.67	     8.602
  60.760         60.83	     8.544
  60.780         57.50	     8.307
  60.800         63.33	     8.718
  60.820         63.33	     8.718
  60.840         59.17	     8.426
  60.860         51.67	     7.874
  60.880         50.83	     7.810
  60.900         59.17	     8.426
  60.920         47.50	     7.550
  60.940         45.83	     7.416
  60.960         51.67	     7.874
  60.980         55.83	     8.185
  61.000         47.50	     7.550
  61.020         45.83	     7.416
  61.040         39.17	     6.856
  61.060         55.00	     8.124
  61.080         47.50	     7.550
  61.100         65.00	     8.832
  61.120         59.17	     8.426
  61.140         53.33	     8.000
  61.160         59.17	     8.426
  61.180         47.50	     7.550
  61.200         45.83	     7.416
  61.220         57.50	     8.307
  61.240         60.00	     8.485
  61.260         50.00	     7.746
  61.280         59.17	     8.426
  61.300         56.67	     8.246
  61.320         60.00	     8.485
  61.340         75.83	     9.539
  61.360         76.67	     9.592
  61.380         71.67	     9.274
  61.400         67.50	     9.000
  61.420         54.17	     8.062
  61.440         68.33	     9.055
  61.460         60.00	     8.485
  61.480         60.00	     8.485
  61.500         71.67	     9.274
  61.520         66.67	     8.944
  61.540         70.83	     9.220
  61.560         59.17	     8.426
  61.580         65.00	     8.832
  61.600         70.00	     9.165
  61.620         57.50	     8.307
  61.640         62.50	     8.660
  61.660         60.83	     8.544
  61.680         70.83	     9.220
  61.700         52.50	     7.937
  61.720         55.83	     8.185
  61.740         45.83	     7.416
  61.760         68.33	     9.055
  61.780         55.00	     8.124
  61.800         55.83	     8.185
  61.820         59.17	     8.426
  61.840         60.83	     8.544
  61.860         62.50	     8.660
  61.880         53.33	     8.000
  61.900         61.67	     8.602
  61.920         56.67	     8.246
  61.940         51.67	     7.874
  61.960         48.33	     7.616
  61.980         52.50	     7.937
  62.000         47.50	     7.550
  62.020         40.00	     6.928
  62.040         49.17	     7.681
  62.060         56.67	     8.246
  62.080         47.50	     7.550
  62.100         49.17	     7.681
  62.120         47.50	     7.550
  62.140         48.33	     7.616
  62.160         36.67	     6.633
  62.180         47.50	     7.550
  62.200         31.67	     6.164
  62.220         37.50	     6.708
  62.240         35.00	     6.481
  62.260         47.50	     7.550
  62.280         38.33	     6.782
  62.300         43.33	     7.211
  62.320         44.17	     7.280
  62.340         26.67	     5.657
  62.360         30.83	     6.083
  62.380         45.83	     7.416
  62.400         35.00	     6.481
  62.420         34.17	     6.403
  62.440         30.00	     6.000
  62.460         38.33	     6.782
  62.480         45.83	     7.416
  62.500         32.50	     6.245
  62.520         51.67	     7.874
  62.540         54.17	     8.062
  62.560         45.00	     7.348
  62.580         47.50	     7.550
  62.600         43.33	     7.211
  62.620         45.83	     7.416
  62.640         40.00	     6.928
  62.660         40.83	     7.000
  62.680         49.17	     7.681
  62.700         47.50	     7.550
  62.720         49.17	     7.681
  62.740         47.50	     7.550
  62.760         40.83	     7.000
  62.780         37.50	     6.708
  62.800         39.17	     6.856
  62.820         45.00	     7.348
  62.840         43.33	     7.211
  62.860         45.00	     7.348
  62.880         39.17	     6.856
  62.900         41.67	     7.071
  62.920         44.17	     7.280
  62.940         33.33	     6.325
  62.960         35.83	     6.557
  62.980         38.33	     6.782
  63.000         39.17	     6.856
  63.020         22.50	     5.196
  63.040         35.00	     6.481
  63.060         45.00	     7.348
  63.080         34.17	     6.403
  63.100         41.67	     7.071
  63.120         31.67	     6.164
  63.140         31.67	     6.164
  63.160         44.17	     7.280
  63.180         42.50	     7.141
  63.200         40.00	     6.928
  63.220         37.50	     6.708
  63.240         43.33	     7.211
  63.260         45.00	     7.348
  63.280         34.17	     6.403
  63.300         51.67	     7.874
  63.320         55.00	     8.124
  63.340         42.50	     7.141
  63.360         48.33	     7.616
  63.380         57.50	     8.307
  63.400         67.50	     9.000
  63.420         50.83	     7.810
  63.440         56.67	     8.246
  63.460         43.33	     7.211
  63.480         44.17	     7.280
  63.500         54.17	     8.062
  63.520         40.00	     6.928
  63.540         50.00	     7.746
  63.560         55.83	     8.185
  63.580         61.67	     8.602
  63.600         43.33	     7.211
  63.620         47.50	     7.550
  63.640         36.67	     6.633
  63.660         57.50	     8.307
  63.680         48.33	     7.616
  63.700         54.17	     8.062
  63.720         55.00	     8.124
  63.740         55.00	     8.124
  63.760         53.33	     8.000
  63.780         54.17	     8.062
  63.800         34.17	     6.403
  63.820         58.33	     8.367
  63.840         64.17	     8.775
  63.860         60.83	     8.544
  63.880         70.00	     9.165
  63.900         85.00	    10.100
  63.920         93.33	    10.583
  63.940        100.00	    10.954
  63.960         72.50	     9.327
  63.980         61.67	     8.602
  64.000         61.67	     8.602
  64.020         69.17	     9.110
  64.040         63.33	     8.718
  64.060         64.17	     8.775
  64.080         74.17	     9.434
  64.100         80.83	     9.849
  64.120         89.17	    10.344
  64.140         56.67	     8.246
  64.160         61.67	     8.602
  64.180         48.33	     7.616
  64.200         66.67	     8.944
  64.220         56.67	     8.246
  64.240         60.83	     8.544
  64.260         52.50	     7.937
  64.280         49.17	     7.681
  64.300         61.67	     8.602
  64.320         36.67	     6.633
  64.340         42.50	     7.141
  64.360         42.50	     7.141
  64.380         37.50	     6.708
  64.400         51.67	     7.874
  64.420         42.50	     7.141
  64.440         52.50	     7.937
  64.460         60.00	     8.485
  64.480         51.67	     7.874
  64.500         42.50	     7.141
  64.520         62.50	     8.660
  64.540         69.17	     9.110
  64.560         56.67	     8.246
  64.580         54.17	     8.062
  64.600         47.50	     7.550
  64.620         43.33	     7.211
  64.640         55.00	     8.124
  64.660         52.50	     7.937
  64.680         69.17	     9.110
  64.700         50.83	     7.810
  64.720         60.83	     8.544
  64.740         55.00	     8.124
  64.760         56.67	     8.246
  64.780         58.33	     8.367
  64.800         54.17	     8.062
  64.820         56.67	     8.246
  64.840         53.33	     8.000
  64.860         62.50	     8.660
  64.880         58.33	     8.367
  64.900         50.00	     7.746
  64.920         57.50	     8.307
  64.940         65.00	     8.832
  64.960         75.00	     9.487
  64.980         60.83	     8.544
