
Filename:
	C:\Program Files\Thermo Electron\WinXRD\Datafiles\F_HERMAN\GEO\G88_RT.raw

File Created:
	February 21, 2020 - 11:44 PM

Specimen Id:
	G88_RT

Specimen Name:
	

Specimen Description:
	

Comment:
Scan Type: 2Theta Scan
Start Angle: 3 deg.
Stop Angle: 65 deg.
Num Points: 3101
Step Size: 0.02 deg.
Scan Rate: 1.000000
Scan Mode: Continuous
Wavelength: 1.540562
\Kalpha1: 1.540562	\Kalpha2: 1.544390	\Kbeta: 1.392218

Optics:
		Detector:
			 Type: Fixed Slits
		Tube: 
			 Type: Fixed Slits


Datas:
 Pos [deg]       Rate [CPS]      ESD [-]

Range 1 ---> Iteration 1
   3.000        441.67	    23.022
   3.020        421.67	    22.494
   3.040        430.00	    22.716
   3.060        426.67	    22.627
   3.080        429.17	    22.694
   3.100        450.00	    23.238
   3.120        416.67	    22.361
   3.140        425.00	    22.583
   3.160        399.17	    21.886
   3.180        415.83	    22.338
   3.200        399.17	    21.886
   3.220        421.67	    22.494
   3.240        410.00	    22.181
   3.260        406.67	    22.091
   3.280        410.00	    22.181
   3.300        398.33	    21.863
   3.320        390.83	    21.656
   3.340        354.17	    20.616
   3.360        380.00	    21.354
   3.380        365.00	    20.928
   3.400        386.67	    21.541
   3.420        401.67	    21.954
   3.440        355.83	    20.664
   3.460        385.00	    21.494
   3.480        374.17	    21.190
   3.500        342.50	    20.273
   3.520        344.17	    20.322
   3.540        322.50	    19.672
   3.560        350.83	    20.518
   3.580        355.83	    20.664
   3.600        363.33	    20.881
   3.620        329.17	    19.875
   3.640        330.83	    19.925
   3.660        329.17	    19.875
   3.680        374.17	    21.190
   3.700        337.50	    20.125
   3.720        355.00	    20.640
   3.740        360.00	    20.785
   3.760        345.83	    20.372
   3.780        338.33	    20.149
   3.800        340.00	    20.199
   3.820        359.17	    20.761
   3.840        343.33	    20.298
   3.860        325.00	    19.748
   3.880        340.83	    20.224
   3.900        328.33	    19.849
   3.920        329.17	    19.875
   3.940        317.50	    19.519
   3.960        321.67	    19.647
   3.980        310.83	    19.313
   4.000        303.33	    19.079
   4.020        302.50	    19.053
   4.040        318.33	    19.545
   4.060        335.00	    20.050
   4.080        342.50	    20.273
   4.100        301.67	    19.026
   4.120        313.33	    19.391
   4.140        304.17	    19.105
   4.160        279.17	    18.303
   4.180        312.50	    19.365
   4.200        299.17	    18.947
   4.220        262.50	    17.748
   4.240        276.67	    18.221
   4.260        298.33	    18.921
   4.280        280.00	    18.330
   4.300        277.50	    18.248
   4.320        271.67	    18.055
   4.340        291.67	    18.708
   4.360        290.00	    18.655
   4.380        307.50	    19.209
   4.400        276.67	    18.221
   4.420        285.00	    18.493
   4.440        267.50	    17.916
   4.460        287.50	    18.574
   4.480        265.83	    17.861
   4.500        295.83	    18.841
   4.520        280.00	    18.330
   4.540        287.50	    18.574
   4.560        264.17	    17.804
   4.580        276.67	    18.221
   4.600        257.50	    17.578
   4.620        306.67	    19.183
   4.640        248.33	    17.263
   4.660        240.00	    16.971
   4.680        264.17	    17.804
   4.700        272.50	    18.083
   4.720        266.67	    17.889
   4.740        250.83	    17.349
   4.760        241.67	    17.029
   4.780        266.67	    17.889
   4.800        247.50	    17.234
   4.820        250.83	    17.349
   4.840        278.33	    18.276
   4.860        250.00	    17.321
   4.880        236.67	    16.852
   4.900        244.17	    17.117
   4.920        259.17	    17.635
   4.940        230.00	    16.613
   4.960        231.67	    16.673
   4.980        257.50	    17.578
   5.000        251.67	    17.378
   5.020        252.50	    17.407
   5.040        252.50	    17.407
   5.060        232.50	    16.703
   5.080        221.67	    16.310
   5.100        248.33	    17.263
   5.120        244.17	    17.117
   5.140        239.17	    16.941
   5.160        232.50	    16.703
   5.180        229.17	    16.583
   5.200        223.33	    16.371
   5.220        228.33	    16.553
   5.240        218.33	    16.186
   5.260        221.67	    16.310
   5.280        230.00	    16.613
   5.300        256.67	    17.550
   5.320        205.83	    15.716
   5.340        207.50	    15.780
   5.360        221.67	    16.310
   5.380        211.67	    15.937
   5.400        233.33	    16.733
   5.420        207.50	    15.780
   5.440        218.33	    16.186
   5.460        241.67	    17.029
   5.480        219.17	    16.217
   5.500        217.50	    16.155
   5.520        206.67	    15.748
   5.540        228.33	    16.553
   5.560        238.33	    16.912
   5.580        220.83	    16.279
   5.600        214.17	    16.031
   5.620        210.00	    15.875
   5.640        195.83	    15.330
   5.660        219.17	    16.217
   5.680        189.17	    15.067
   5.700        204.17	    15.652
   5.720        231.67	    16.673
   5.740        200.83	    15.524
   5.760        185.83	    14.933
   5.780        209.17	    15.843
   5.800        215.83	    16.093
   5.820        185.83	    14.933
   5.840        192.50	    15.199
   5.860        190.00	    15.100
   5.880        212.50	    15.969
   5.900        219.17	    16.217
   5.920        192.50	    15.199
   5.940        206.67	    15.748
   5.960        192.50	    15.199
   5.980        205.83	    15.716
   6.000        196.67	    15.362
   6.020        188.33	    15.033
   6.040        195.83	    15.330
   6.060        208.33	    15.811
   6.080        225.83	    16.462
   6.100        221.67	    16.310
   6.120        226.67	    16.492
   6.140        235.00	    16.793
   6.160        210.83	    15.906
   6.180        202.50	    15.588
   6.200        204.17	    15.652
   6.220        225.83	    16.462
   6.240        199.17	    15.460
   6.260        209.17	    15.843
   6.280        233.33	    16.733
   6.300        185.00	    14.900
   6.320        186.67	    14.967
   6.340        201.67	    15.556
   6.360        195.83	    15.330
   6.380        188.33	    15.033
   6.400        165.00	    14.071
   6.420        213.33	    16.000
   6.440        180.83	    14.731
   6.460        203.33	    15.620
   6.480        182.50	    14.799
   6.500        195.83	    15.330
   6.520        186.67	    14.967
   6.540        180.00	    14.697
   6.560        181.67	    14.765
   6.580        186.67	    14.967
   6.600        194.17	    15.264
   6.620        180.00	    14.697
   6.640        175.83	    14.526
   6.660        166.67	    14.142
   6.680        194.17	    15.264
   6.700        180.00	    14.697
   6.720        191.67	    15.166
   6.740        175.83	    14.526
   6.760        170.83	    14.318
   6.780        178.33	    14.629
   6.800        179.17	    14.663
   6.820        202.50	    15.588
   6.840        170.00	    14.283
   6.860        145.00	    13.191
   6.880        190.00	    15.100
   6.900        170.83	    14.318
   6.920        185.00	    14.900
   6.940        186.67	    14.967
   6.960        168.33	    14.213
   6.980        155.00	    13.638
   7.000        172.50	    14.387
   7.020        167.50	    14.177
   7.040        164.17	    14.036
   7.060        160.83	    13.892
   7.080        153.33	    13.565
   7.100        177.50	    14.595
   7.120        164.17	    14.036
   7.140        174.17	    14.457
   7.160        147.50	    13.304
   7.180        171.67	    14.353
   7.200        185.83	    14.933
   7.220        171.67	    14.353
   7.240        177.50	    14.595
   7.260        158.33	    13.784
   7.280        160.83	    13.892
   7.300        170.00	    14.283
   7.320        180.00	    14.697
   7.340        162.50	    13.964
   7.360        162.50	    13.964
   7.380        152.50	    13.528
   7.400        155.00	    13.638
   7.420        150.00	    13.416
   7.440        169.17	    14.248
   7.460        148.33	    13.342
   7.480        148.33	    13.342
   7.500        129.17	    12.450
   7.520        157.50	    13.748
   7.540        157.50	    13.748
   7.560        172.50	    14.387
   7.580        148.33	    13.342
   7.600        160.83	    13.892
   7.620        151.67	    13.491
   7.640        135.83	    12.767
   7.660        150.83	    13.454
   7.680        168.33	    14.213
   7.700        150.00	    13.416
   7.720        149.17	    13.379
   7.740        139.17	    12.923
   7.760        155.83	    13.675
   7.780        158.33	    13.784
   7.800        145.00	    13.191
   7.820        143.33	    13.115
   7.840        148.33	    13.342
   7.860        136.67	    12.806
   7.880        158.33	    13.784
   7.900        149.17	    13.379
   7.920        162.50	    13.964
   7.940        146.67	    13.266
   7.960        163.33	    14.000
   7.980        152.50	    13.528
   8.000        126.67	    12.329
   8.020        132.50	    12.610
   8.040        141.67	    13.038
   8.060        149.17	    13.379
   8.080        125.83	    12.288
   8.100        154.17	    13.601
   8.120        130.00	    12.490
   8.140        150.83	    13.454
   8.160        149.17	    13.379
   8.180        144.17	    13.153
   8.200        136.67	    12.806
   8.220        136.67	    12.806
   8.240        146.67	    13.266
   8.260        122.50	    12.124
   8.280        137.50	    12.845
   8.300        145.83	    13.229
   8.320        139.17	    12.923
   8.340        148.33	    13.342
   8.360        157.50	    13.748
   8.380        156.67	    13.711
   8.400        151.67	    13.491
   8.420        145.00	    13.191
   8.440        120.83	    12.042
   8.460        135.83	    12.767
   8.480        147.50	    13.304
   8.500        140.83	    13.000
   8.520        141.67	    13.038
   8.540        125.83	    12.288
   8.560        146.67	    13.266
   8.580        168.33	    14.213
   8.600        149.17	    13.379
   8.620        147.50	    13.304
   8.640        156.67	    13.711
   8.660        148.33	    13.342
   8.680        155.83	    13.675
   8.700        172.50	    14.387
   8.720        181.67	    14.765
   8.740        189.17	    15.067
   8.760        207.50	    15.780
   8.780        245.00	    17.146
   8.800        290.00	    18.655
   8.820        290.00	    18.655
   8.840        244.17	    17.117
   8.860        208.33	    15.811
   8.880        159.17	    13.820
   8.900        153.33	    13.565
   8.920        142.50	    13.077
   8.940        125.00	    12.247
   8.960        124.17	    12.207
   8.980        115.83	    11.790
   9.000        135.83	    12.767
   9.020        125.00	    12.247
   9.040        135.00	    12.728
   9.060        130.00	    12.490
   9.080        112.50	    11.619
   9.100        129.17	    12.450
   9.120        141.67	    13.038
   9.140        120.00	    12.000
   9.160        130.83	    12.530
   9.180        122.50	    12.124
   9.200        139.17	    12.923
   9.220        125.83	    12.288
   9.240        132.50	    12.610
   9.260        123.33	    12.166
   9.280        126.67	    12.329
   9.300        110.00	    11.489
   9.320        126.67	    12.329
   9.340        125.00	    12.247
   9.360        160.83	    13.892
   9.380        136.67	    12.806
   9.400        105.00	    11.225
   9.420        116.67	    11.832
   9.440        131.67	    12.570
   9.460        145.00	    13.191
   9.480        120.83	    12.042
   9.500        117.50	    11.874
   9.520        118.33	    11.916
   9.540        124.17	    12.207
   9.560        124.17	    12.207
   9.580        110.00	    11.489
   9.600        117.50	    11.874
   9.620        115.83	    11.790
   9.640        101.67	    11.045
   9.660        102.50	    11.091
   9.680        133.33	    12.649
   9.700        124.17	    12.207
   9.720        128.33	    12.410
   9.740        133.33	    12.649
   9.760        107.50	    11.358
   9.780        126.67	    12.329
   9.800        136.67	    12.806
   9.820        109.17	    11.446
   9.840        102.50	    11.091
   9.860        106.67	    11.314
   9.880        135.00	    12.728
   9.900        115.00	    11.747
   9.920        126.67	    12.329
   9.940        119.17	    11.958
   9.960        112.50	    11.619
   9.980        107.50	    11.358
  10.000        110.83	    11.533
  10.020        118.33	    11.916
  10.040         93.33	    10.583
  10.060         94.17	    10.630
  10.080        115.83	    11.790
  10.100        114.17	    11.705
  10.120        113.33	    11.662
  10.140        122.50	    12.124
  10.160        114.17	    11.705
  10.180        121.67	    12.083
  10.200        111.67	    11.576
  10.220         97.50	    10.817
  10.240        110.83	    11.533
  10.260        100.00	    10.954
  10.280        115.83	    11.790
  10.300        110.00	    11.489
  10.320        114.17	    11.705
  10.340        112.50	    11.619
  10.360        113.33	    11.662
  10.380        109.17	    11.446
  10.400         99.17	    10.909
  10.420        107.50	    11.358
  10.440        116.67	    11.832
  10.460        116.67	    11.832
  10.480        124.17	    12.207
  10.500        110.83	    11.533
  10.520        123.33	    12.166
  10.540        120.00	    12.000
  10.560        113.33	    11.662
  10.580         99.17	    10.909
  10.600        117.50	    11.874
  10.620        120.00	    12.000
  10.640        105.00	    11.225
  10.660        123.33	    12.166
  10.680        121.67	    12.083
  10.700        101.67	    11.045
  10.720         95.00	    10.677
  10.740        100.00	    10.954
  10.760        106.67	    11.314
  10.780        100.83	    11.000
  10.800        117.50	    11.874
  10.820        115.83	    11.790
  10.840        105.00	    11.225
  10.860        103.33	    11.136
  10.880         94.17	    10.630
  10.900        110.00	    11.489
  10.920        105.83	    11.269
  10.940         85.83	    10.149
  10.960        113.33	    11.662
  10.980        118.33	    11.916
  11.000        120.83	    12.042
  11.020        123.33	    12.166
  11.040        100.83	    11.000
  11.060         95.00	    10.677
  11.080        122.50	    12.124
  11.100        103.33	    11.136
  11.120         94.17	    10.630
  11.140        103.33	    11.136
  11.160         93.33	    10.583
  11.180        104.17	    11.180
  11.200        104.17	    11.180
  11.220         99.17	    10.909
  11.240        107.50	    11.358
  11.260         97.50	    10.817
  11.280         90.00	    10.392
  11.300        113.33	    11.662
  11.320        108.33	    11.402
  11.340         93.33	    10.583
  11.360        108.33	    11.402
  11.380        105.00	    11.225
  11.400        109.17	    11.446
  11.420        103.33	    11.136
  11.440         95.00	    10.677
  11.460        103.33	    11.136
  11.480         81.67	     9.899
  11.500        102.50	    11.091
  11.520         81.67	     9.899
  11.540         93.33	    10.583
  11.560         98.33	    10.863
  11.580        108.33	    11.402
  11.600         98.33	    10.863
  11.620         93.33	    10.583
  11.640        100.00	    10.954
  11.660         99.17	    10.909
  11.680         90.00	    10.392
  11.700         98.33	    10.863
  11.720         86.67	    10.198
  11.740        102.50	    11.091
  11.760         99.17	    10.909
  11.780        122.50	    12.124
  11.800        105.83	    11.269
  11.820         97.50	    10.817
  11.840        102.50	    11.091
  11.860        105.00	    11.225
  11.880        107.50	    11.358
  11.900         86.67	    10.198
  11.920        110.83	    11.533
  11.940        106.67	    11.314
  11.960        110.83	    11.533
  11.980        113.33	    11.662
  12.000        113.33	    11.662
  12.020        110.00	    11.489
  12.040        145.00	    13.191
  12.060        159.17	    13.820
  12.080        205.83	    15.716
  12.100        223.33	    16.371
  12.120        260.83	    17.692
  12.140        263.33	    17.776
  12.160        164.17	    14.036
  12.180        166.67	    14.142
  12.200        131.67	    12.570
  12.220        119.17	    11.958
  12.240        120.00	    12.000
  12.260        133.33	    12.649
  12.280        125.83	    12.288
  12.300        118.33	    11.916
  12.320        120.83	    12.042
  12.340        131.67	    12.570
  12.360        125.83	    12.288
  12.380        142.50	    13.077
  12.400        190.00	    15.100
  12.420        195.83	    15.330
  12.440        160.83	    13.892
  12.460        171.67	    14.353
  12.480        124.17	    12.207
  12.500        123.33	    12.166
  12.520         90.83	    10.440
  12.540         93.33	    10.583
  12.560         97.50	    10.817
  12.580         91.67	    10.488
  12.600        100.83	    11.000
  12.620         84.17	    10.050
  12.640        105.00	    11.225
  12.660         96.67	    10.770
  12.680         89.17	    10.344
  12.700        108.33	    11.402
  12.720         89.17	    10.344
  12.740         75.00	     9.487
  12.760        100.83	    11.000
  12.780         95.00	    10.677
  12.800         90.83	    10.440
  12.820         94.17	    10.630
  12.840         80.00	     9.798
  12.860         93.33	    10.583
  12.880         85.83	    10.149
  12.900         90.83	    10.440
  12.920         80.83	     9.849
  12.940         93.33	    10.583
  12.960         70.83	     9.220
  12.980         90.00	    10.392
  13.000         99.17	    10.909
  13.020         86.67	    10.198
  13.040         84.17	    10.050
  13.060         75.83	     9.539
  13.080         94.17	    10.630
  13.100         91.67	    10.488
  13.120         90.83	    10.440
  13.140        105.83	    11.269
  13.160         75.00	     9.487
  13.180        102.50	    11.091
  13.200         88.33	    10.296
  13.220         82.50	     9.950
  13.240         87.50	    10.247
  13.260         81.67	     9.899
  13.280         89.17	    10.344
  13.300         88.33	    10.296
  13.320         89.17	    10.344
  13.340         70.83	     9.220
  13.360         88.33	    10.296
  13.380         74.17	     9.434
  13.400         85.83	    10.149
  13.420         96.67	    10.770
  13.440         92.50	    10.536
  13.460         90.83	    10.440
  13.480         81.67	     9.899
  13.500         84.17	    10.050
  13.520         83.33	    10.000
  13.540         91.67	    10.488
  13.560         79.17	     9.747
  13.580         95.00	    10.677
  13.600         96.67	    10.770
  13.620        102.50	    11.091
  13.640         94.17	    10.630
  13.660         72.50	     9.327
  13.680         81.67	     9.899
  13.700         90.83	    10.440
  13.720         92.50	    10.536
  13.740        109.17	    11.446
  13.760        111.67	    11.576
  13.780        105.83	    11.269
  13.800        113.33	    11.662
  13.820         89.17	    10.344
  13.840         92.50	    10.536
  13.860         90.83	    10.440
  13.880         91.67	    10.488
  13.900         82.50	     9.950
  13.920         86.67	    10.198
  13.940         74.17	     9.434
  13.960         75.83	     9.539
  13.980         78.33	     9.695
  14.000         88.33	    10.296
  14.020         70.00	     9.165
  14.040         92.50	    10.536
  14.060         78.33	     9.695
  14.080         86.67	    10.198
  14.100         87.50	    10.247
  14.120         69.17	     9.110
  14.140         70.83	     9.220
  14.160         82.50	     9.950
  14.180         75.83	     9.539
  14.200         74.17	     9.434
  14.220         80.83	     9.849
  14.240         69.17	     9.110
  14.260         72.50	     9.327
  14.280         80.00	     9.798
  14.300         75.83	     9.539
  14.320         79.17	     9.747
  14.340         87.50	    10.247
  14.360         86.67	    10.198
  14.380         81.67	     9.899
  14.400         67.50	     9.000
  14.420         83.33	    10.000
  14.440         71.67	     9.274
  14.460         84.17	    10.050
  14.480         65.83	     8.888
  14.500         73.33	     9.381
  14.520         80.83	     9.849
  14.540         85.83	    10.149
  14.560         63.33	     8.718
  14.580         85.00	    10.100
  14.600         66.67	     8.944
  14.620         81.67	     9.899
  14.640         85.00	    10.100
  14.660         66.67	     8.944
  14.680         80.83	     9.849
  14.700         65.83	     8.888
  14.720         74.17	     9.434
  14.740         73.33	     9.381
  14.760         74.17	     9.434
  14.780         69.17	     9.110
  14.800         86.67	    10.198
  14.820         72.50	     9.327
  14.840         83.33	    10.000
  14.860         70.00	     9.165
  14.880         86.67	    10.198
  14.900         80.83	     9.849
  14.920         85.00	    10.100
  14.940         83.33	    10.000
  14.960         75.00	     9.487
  14.980         87.50	    10.247
  15.000         76.67	     9.592
  15.020         77.50	     9.644
  15.040         78.33	     9.695
  15.060         70.83	     9.220
  15.080         80.83	     9.849
  15.100         80.00	     9.798
  15.120         82.50	     9.950
  15.140         90.00	    10.392
  15.160         77.50	     9.644
  15.180         90.83	    10.440
  15.200         75.00	     9.487
  15.220         63.33	     8.718
  15.240         64.17	     8.775
  15.260         61.67	     8.602
  15.280         70.83	     9.220
  15.300         71.67	     9.274
  15.320         84.17	    10.050
  15.340         83.33	    10.000
  15.360         75.83	     9.539
  15.380         90.00	    10.392
  15.400         75.83	     9.539
  15.420         71.67	     9.274
  15.440         75.00	     9.487
  15.460         60.83	     8.544
  15.480         73.33	     9.381
  15.500         70.83	     9.220
  15.520         81.67	     9.899
  15.540         65.83	     8.888
  15.560         56.67	     8.246
  15.580         73.33	     9.381
  15.600         77.50	     9.644
  15.620         70.83	     9.220
  15.640         66.67	     8.944
  15.660         63.33	     8.718
  15.680         77.50	     9.644
  15.700         60.83	     8.544
  15.720         74.17	     9.434
  15.740         75.00	     9.487
  15.760         84.17	    10.050
  15.780         77.50	     9.644
  15.800         70.83	     9.220
  15.820         64.17	     8.775
  15.840         69.17	     9.110
  15.860         70.83	     9.220
  15.880         65.00	     8.832
  15.900         78.33	     9.695
  15.920         64.17	     8.775
  15.940         59.17	     8.426
  15.960         77.50	     9.644
  15.980         65.00	     8.832
  16.000         64.17	     8.775
  16.020         55.00	     8.124
  16.040         74.17	     9.434
  16.060         67.50	     9.000
  16.080         69.17	     9.110
  16.100         70.00	     9.165
  16.120         74.17	     9.434
  16.140         65.83	     8.888
  16.160         60.83	     8.544
  16.180         69.17	     9.110
  16.200         58.33	     8.367
  16.220         72.50	     9.327
  16.240         78.33	     9.695
  16.260         60.83	     8.544
  16.280         70.00	     9.165
  16.300         69.17	     9.110
  16.320         61.67	     8.602
  16.340         77.50	     9.644
  16.360         73.33	     9.381
  16.380         73.33	     9.381
  16.400         71.67	     9.274
  16.420         51.67	     7.874
  16.440         68.33	     9.055
  16.460         67.50	     9.000
  16.480         68.33	     9.055
  16.500         57.50	     8.307
  16.520         58.33	     8.367
  16.540         61.67	     8.602
  16.560         74.17	     9.434
  16.580         74.17	     9.434
  16.600         62.50	     8.660
  16.620         63.33	     8.718
  16.640         62.50	     8.660
  16.660         81.67	     9.899
  16.680         60.00	     8.485
  16.700         62.50	     8.660
  16.720         55.83	     8.185
  16.740         64.17	     8.775
  16.760         66.67	     8.944
  16.780         73.33	     9.381
  16.800         59.17	     8.426
  16.820         75.00	     9.487
  16.840         75.83	     9.539
  16.860         71.67	     9.274
  16.880         86.67	    10.198
  16.900         67.50	     9.000
  16.920         55.83	     8.185
  16.940         82.50	     9.950
  16.960         63.33	     8.718
  16.980         75.83	     9.539
  17.000         56.67	     8.246
  17.020         77.50	     9.644
  17.040         67.50	     9.000
  17.060         63.33	     8.718
  17.080         70.83	     9.220
  17.100         60.00	     8.485
  17.120         45.83	     7.416
  17.140         55.00	     8.124
  17.160         67.50	     9.000
  17.180         65.00	     8.832
  17.200         75.00	     9.487
  17.220         82.50	     9.950
  17.240         65.83	     8.888
  17.260         76.67	     9.592
  17.280         60.83	     8.544
  17.300         73.33	     9.381
  17.320         55.83	     8.185
  17.340         68.33	     9.055
  17.360         53.33	     8.000
  17.380         62.50	     8.660
  17.400         67.50	     9.000
  17.420         70.00	     9.165
  17.440         75.00	     9.487
  17.460         79.17	     9.747
  17.480         63.33	     8.718
  17.500         68.33	     9.055
  17.520         72.50	     9.327
  17.540         72.50	     9.327
  17.560         65.83	     8.888
  17.580         71.67	     9.274
  17.600         79.17	     9.747
  17.620         61.67	     8.602
  17.640         72.50	     9.327
  17.660         82.50	     9.950
  17.680         94.17	    10.630
  17.700         97.50	    10.817
  17.720        114.17	    11.705
  17.740         98.33	    10.863
  17.760        121.67	    12.083
  17.780        105.00	    11.225
  17.800        102.50	    11.091
  17.820         70.83	     9.220
  17.840         78.33	     9.695
  17.860         60.00	     8.485
  17.880         84.17	    10.050
  17.900         75.00	     9.487
  17.920         88.33	    10.296
  17.940         67.50	     9.000
  17.960         77.50	     9.644
  17.980         62.50	     8.660
  18.000         65.83	     8.888
  18.020         57.50	     8.307
  18.040         67.50	     9.000
  18.060         75.83	     9.539
  18.080         80.83	     9.849
  18.100         79.17	     9.747
  18.120         66.67	     8.944
  18.140         68.33	     9.055
  18.160         80.83	     9.849
  18.180         65.83	     8.888
  18.200         60.83	     8.544
  18.220         62.50	     8.660
  18.240         60.00	     8.485
  18.260         66.67	     8.944
  18.280         64.17	     8.775
  18.300         52.50	     7.937
  18.320         69.17	     9.110
  18.340         67.50	     9.000
  18.360         63.33	     8.718
  18.380         65.83	     8.888
  18.400         70.83	     9.220
  18.420         63.33	     8.718
  18.440         67.50	     9.000
  18.460         72.50	     9.327
  18.480         66.67	     8.944
  18.500         72.50	     9.327
  18.520         67.50	     9.000
  18.540         70.83	     9.220
  18.560         47.50	     7.550
  18.580         67.50	     9.000
  18.600         70.00	     9.165
  18.620         65.00	     8.832
  18.640         71.67	     9.274
  18.660         89.17	    10.344
  18.680         76.67	     9.592
  18.700         90.00	    10.392
  18.720         85.00	    10.100
  18.740         95.83	    10.724
  18.760         92.50	    10.536
  18.780         77.50	     9.644
  18.800         83.33	    10.000
  18.820         62.50	     8.660
  18.840         50.83	     7.810
  18.860         61.67	     8.602
  18.880         68.33	     9.055
  18.900         57.50	     8.307
  18.920         61.67	     8.602
  18.940         61.67	     8.602
  18.960         75.00	     9.487
  18.980         56.67	     8.246
  19.000         65.83	     8.888
  19.020         69.17	     9.110
  19.040         76.67	     9.592
  19.060         75.00	     9.487
  19.080         70.00	     9.165
  19.100         76.67	     9.592
  19.120         77.50	     9.644
  19.140         68.33	     9.055
  19.160         81.67	     9.899
  19.180         71.67	     9.274
  19.200         81.67	     9.899
  19.220         75.83	     9.539
  19.240         74.17	     9.434
  19.260         75.00	     9.487
  19.280         85.83	    10.149
  19.300         65.00	     8.832
  19.320         79.17	     9.747
  19.340         64.17	     8.775
  19.360         77.50	     9.644
  19.380         53.33	     8.000
  19.400         59.17	     8.426
  19.420         67.50	     9.000
  19.440         72.50	     9.327
  19.460         70.00	     9.165
  19.480         76.67	     9.592
  19.500         70.83	     9.220
  19.520         77.50	     9.644
  19.540         70.83	     9.220
  19.560         70.83	     9.220
  19.580         67.50	     9.000
  19.600         93.33	    10.583
  19.620         75.00	     9.487
  19.640         82.50	     9.950
  19.660         86.67	    10.198
  19.680         80.00	     9.798
  19.700         83.33	    10.000
  19.720         90.00	    10.392
  19.740         73.33	     9.381
  19.760        105.83	    11.269
  19.780         96.67	    10.770
  19.800         85.83	    10.149
  19.820         81.67	     9.899
  19.840         90.00	    10.392
  19.860         74.17	     9.434
  19.880         63.33	     8.718
  19.900         68.33	     9.055
  19.920         74.17	     9.434
  19.940         67.50	     9.000
  19.960         69.17	     9.110
  19.980         58.33	     8.367
  20.000         70.00	     9.165
  20.020         70.00	     9.165
  20.040         68.33	     9.055
  20.060         73.33	     9.381
  20.080         54.17	     8.062
  20.100         78.33	     9.695
  20.120         69.17	     9.110
  20.140         76.67	     9.592
  20.160         70.83	     9.220
  20.180         53.33	     8.000
  20.200         53.33	     8.000
  20.220         63.33	     8.718
  20.240         70.00	     9.165
  20.260         50.83	     7.810
  20.280         72.50	     9.327
  20.300         61.67	     8.602
  20.320         61.67	     8.602
  20.340         55.83	     8.185
  20.360         62.50	     8.660
  20.380         59.17	     8.426
  20.400         64.17	     8.775
  20.420         64.17	     8.775
  20.440         59.17	     8.426
  20.460         53.33	     8.000
  20.480         60.00	     8.485
  20.500         65.83	     8.888
  20.520         50.83	     7.810
  20.540         68.33	     9.055
  20.560         63.33	     8.718
  20.580         74.17	     9.434
  20.600         72.50	     9.327
  20.620         83.33	    10.000
  20.640         82.50	     9.950
  20.660         81.67	     9.899
  20.680         98.33	    10.863
  20.700        117.50	    11.874
  20.720        165.00	    14.071
  20.740        192.50	    15.199
  20.760        198.33	    15.427
  20.780        277.50	    18.248
  20.800        289.17	    18.628
  20.820        217.50	    16.155
  20.840        195.00	    15.297
  20.860        145.83	    13.229
  20.880         97.50	    10.817
  20.900         93.33	    10.583
  20.920        111.67	    11.576
  20.940         75.83	     9.539
  20.960         88.33	    10.296
  20.980         82.50	     9.950
  21.000         79.17	     9.747
  21.020         62.50	     8.660
  21.040         52.50	     7.937
  21.060         71.67	     9.274
  21.080         48.33	     7.616
  21.100         65.83	     8.888
  21.120         54.17	     8.062
  21.140         59.17	     8.426
  21.160         65.00	     8.832
  21.180         49.17	     7.681
  21.200         69.17	     9.110
  21.220         59.17	     8.426
  21.240         63.33	     8.718
  21.260         62.50	     8.660
  21.280         67.50	     9.000
  21.300         61.67	     8.602
  21.320         76.67	     9.592
  21.340         69.17	     9.110
  21.360         55.83	     8.185
  21.380         55.83	     8.185
  21.400         55.83	     8.185
  21.420         53.33	     8.000
  21.440         71.67	     9.274
  21.460         70.00	     9.165
  21.480         60.83	     8.544
  21.500         66.67	     8.944
  21.520         65.00	     8.832
  21.540         64.17	     8.775
  21.560         64.17	     8.775
  21.580         60.83	     8.544
  21.600         72.50	     9.327
  21.620         48.33	     7.616
  21.640         50.83	     7.810
  21.660         64.17	     8.775
  21.680         61.67	     8.602
  21.700         56.67	     8.246
  21.720         57.50	     8.307
  21.740         72.50	     9.327
  21.760         77.50	     9.644
  21.780         65.00	     8.832
  21.800         48.33	     7.616
  21.820         60.83	     8.544
  21.840         67.50	     9.000
  21.860         77.50	     9.644
  21.880         87.50	    10.247
  21.900         79.17	     9.747
  21.920        103.33	    11.136
  21.940        140.00	    12.961
  21.960        165.00	    14.071
  21.980        135.00	    12.728
  22.000        117.50	    11.874
  22.020        100.83	    11.000
  22.040         75.00	     9.487
  22.060         88.33	    10.296
  22.080         95.00	    10.677
  22.100         65.83	     8.888
  22.120         66.67	     8.944
  22.140         63.33	     8.718
  22.160         81.67	     9.899
  22.180         51.67	     7.874
  22.200         64.17	     8.775
  22.220         53.33	     8.000
  22.240         65.00	     8.832
  22.260         63.33	     8.718
  22.280         47.50	     7.550
  22.300         73.33	     9.381
  22.320         66.67	     8.944
  22.340         63.33	     8.718
  22.360         57.50	     8.307
  22.380         70.83	     9.220
  22.400         55.00	     8.124
  22.420         70.83	     9.220
  22.440         60.00	     8.485
  22.460         65.83	     8.888
  22.480         60.83	     8.544
  22.500         83.33	    10.000
  22.520         56.67	     8.246
  22.540         57.50	     8.307
  22.560         60.83	     8.544
  22.580         58.33	     8.367
  22.600         58.33	     8.367
  22.620         71.67	     9.274
  22.640         58.33	     8.367
  22.660         50.00	     7.746
  22.680         84.17	    10.050
  22.700         68.33	     9.055
  22.720         81.67	     9.899
  22.740         74.17	     9.434
  22.760         90.83	    10.440
  22.780         86.67	    10.198
  22.800        103.33	    11.136
  22.820         92.50	    10.536
  22.840         80.00	     9.798
  22.860         84.17	    10.050
  22.880         67.50	     9.000
  22.900         75.83	     9.539
  22.920         80.83	     9.849
  22.940         95.83	    10.724
  22.960         89.17	    10.344
  22.980         99.17	    10.909
  23.000         95.00	    10.677
  23.020         93.33	    10.583
  23.040         80.83	     9.849
  23.060         88.33	    10.296
  23.080         81.67	     9.899
  23.100         62.50	     8.660
  23.120         48.33	     7.616
  23.140         68.33	     9.055
  23.160         58.33	     8.367
  23.180         76.67	     9.592
  23.200         54.17	     8.062
  23.220         56.67	     8.246
  23.240         69.17	     9.110
  23.260         53.33	     8.000
  23.280         49.17	     7.681
  23.300         55.00	     8.124
  23.320         52.50	     7.937
  23.340         65.83	     8.888
  23.360         78.33	     9.695
  23.380         84.17	    10.050
  23.400        107.50	    11.358
  23.420        118.33	    11.916
  23.440        149.17	    13.379
  23.460        135.00	    12.728
  23.480        121.67	    12.083
  23.500        126.67	    12.329
  23.520        121.67	    12.083
  23.540         97.50	    10.817
  23.560         85.83	    10.149
  23.580         84.17	    10.050
  23.600         68.33	     9.055
  23.620         65.83	     8.888
  23.640         68.33	     9.055
  23.660         72.50	     9.327
  23.680         89.17	    10.344
  23.700         78.33	     9.695
  23.720         72.50	     9.327
  23.740         85.83	    10.149
  23.760         61.67	     8.602
  23.780         95.00	    10.677
  23.800         69.17	     9.110
  23.820         61.67	     8.602
  23.840         77.50	     9.644
  23.860         63.33	     8.718
  23.880         72.50	     9.327
  23.900         79.17	     9.747
  23.920         65.00	     8.832
  23.940         71.67	     9.274
  23.960         80.00	     9.798
  23.980         75.83	     9.539
  24.000         72.50	     9.327
  24.020         89.17	    10.344
  24.040         78.33	     9.695
  24.060         84.17	    10.050
  24.080         81.67	     9.899
  24.100         83.33	    10.000
  24.120         99.17	    10.909
  24.140         78.33	     9.695
  24.160         92.50	    10.536
  24.180        117.50	    11.874
  24.200        105.83	    11.269
  24.220        106.67	    11.314
  24.240        120.83	    12.042
  24.260        108.33	    11.402
  24.280         95.83	    10.724
  24.300         75.83	     9.539
  24.320         64.17	     8.775
  24.340         70.00	     9.165
  24.360         60.83	     8.544
  24.380         67.50	     9.000
  24.400         76.67	     9.592
  24.420         69.17	     9.110
  24.440         77.50	     9.644
  24.460         92.50	    10.536
  24.480        126.67	    12.329
  24.500        137.50	    12.845
  24.520        132.50	    12.610
  24.540        124.17	    12.207
  24.560        134.17	    12.689
  24.580        127.50	    12.369
  24.600        113.33	    11.662
  24.620        103.33	    11.136
  24.640        100.00	    10.954
  24.660         77.50	     9.644
  24.680        107.50	    11.358
  24.700         76.67	     9.592
  24.720         86.67	    10.198
  24.740         68.33	     9.055
  24.760         70.00	     9.165
  24.780         71.67	     9.274
  24.800         91.67	    10.488
  24.820         72.50	     9.327
  24.840         69.17	     9.110
  24.860         75.83	     9.539
  24.880         77.50	     9.644
  24.900         78.33	     9.695
  24.920         75.00	     9.487
  24.940         69.17	     9.110
  24.960         70.00	     9.165
  24.980         73.33	     9.381
  25.000         85.00	    10.100
  25.020        106.67	    11.314
  25.040         85.00	    10.100
  25.060        114.17	    11.705
  25.080        128.33	    12.410
  25.100        119.17	    11.958
  25.120        121.67	    12.083
  25.140        111.67	    11.576
  25.160         93.33	    10.583
  25.180         87.50	    10.247
  25.200         69.17	     9.110
  25.220         67.50	     9.000
  25.240         69.17	     9.110
  25.260         83.33	    10.000
  25.280         70.83	     9.220
  25.300         76.67	     9.592
  25.320         85.00	    10.100
  25.340         80.83	     9.849
  25.360         82.50	     9.950
  25.380         88.33	    10.296
  25.400        105.83	    11.269
  25.420        105.83	    11.269
  25.440        125.83	    12.288
  25.460        105.83	    11.269
  25.480        112.50	    11.619
  25.500        105.00	    11.225
  25.520         86.67	    10.198
  25.540         87.50	    10.247
  25.560         75.00	     9.487
  25.580        105.00	    11.225
  25.600         97.50	    10.817
  25.620         82.50	     9.950
  25.640         80.83	     9.849
  25.660         62.50	     8.660
  25.680         58.33	     8.367
  25.700         70.00	     9.165
  25.720         59.17	     8.426
  25.740         54.17	     8.062
  25.760         70.83	     9.220
  25.780         67.50	     9.000
  25.800         56.67	     8.246
  25.820         61.67	     8.602
  25.840         62.50	     8.660
  25.860         55.00	     8.124
  25.880         57.50	     8.307
  25.900         66.67	     8.944
  25.920         55.00	     8.124
  25.940         69.17	     9.110
  25.960         65.00	     8.832
  25.980         60.00	     8.485
  26.000         67.50	     9.000
  26.020         58.33	     8.367
  26.040         61.67	     8.602
  26.060         66.67	     8.944
  26.080         66.67	     8.944
  26.100         70.00	     9.165
  26.120         65.00	     8.832
  26.140         72.50	     9.327
  26.160         69.17	     9.110
  26.180        101.67	    11.045
  26.200         86.67	    10.198
  26.220         98.33	    10.863
  26.240         92.50	    10.536
  26.260         97.50	    10.817
  26.280        117.50	    11.874
  26.300        121.67	    12.083
  26.320        141.67	    13.038
  26.340        109.17	    11.446
  26.360        135.00	    12.728
  26.380        160.83	    13.892
  26.400        142.50	    13.077
  26.420        186.67	    14.967
  26.440        242.50	    17.059
  26.460        286.67	    18.547
  26.480        365.00	    20.928
  26.500        487.50	    24.187
  26.520        665.00	    28.249
  26.540       1221.67	    38.288
  26.560       1575.00	    43.474
  26.580       1530.83	    42.860
  26.600       1114.17	    36.565
  26.620        857.50	    32.078
  26.640        897.50	    32.818
  26.660        600.83	    26.851
  26.680        287.50	    18.574
  26.700        191.67	    15.166
  26.720        190.83	    15.133
  26.740        199.17	    15.460
  26.760        195.83	    15.330
  26.780        233.33	    16.733
  26.800        222.50	    16.340
  26.820        210.00	    15.875
  26.840        204.17	    15.652
  26.860        175.00	    14.491
  26.880        140.83	    13.000
  26.900        135.00	    12.728
  26.920        122.50	    12.124
  26.940        103.33	    11.136
  26.960         91.67	    10.488
  26.980         93.33	    10.583
  27.000        122.50	    12.124
  27.020        135.83	    12.767
  27.040        110.00	    11.489
  27.060         92.50	    10.536
  27.080         90.00	    10.392
  27.100         83.33	    10.000
  27.120         85.83	    10.149
  27.140         83.33	    10.000
  27.160         76.67	     9.592
  27.180         70.83	     9.220
  27.200         77.50	     9.644
  27.220         70.00	     9.165
  27.240         63.33	     8.718
  27.260         71.67	     9.274
  27.280         68.33	     9.055
  27.300         90.83	    10.440
  27.320         88.33	    10.296
  27.340         88.33	    10.296
  27.360         99.17	    10.909
  27.380         83.33	    10.000
  27.400        107.50	    11.358
  27.420        146.67	    13.266
  27.440        165.83	    14.107
  27.460        210.83	    15.906
  27.480        169.17	    14.248
  27.500        138.33	    12.884
  27.520        155.83	    13.675
  27.540        130.00	    12.490
  27.560         94.17	    10.630
  27.580         96.67	    10.770
  27.600        101.67	    11.045
  27.620        107.50	    11.358
  27.640        121.67	    12.083
  27.660        108.33	    11.402
  27.680        137.50	    12.845
  27.700        162.50	    13.964
  27.720        173.33	    14.422
  27.740        189.17	    15.067
  27.760        195.00	    15.297
  27.780        198.33	    15.427
  27.800        214.17	    16.031
  27.820        230.00	    16.613
  27.840        242.50	    17.059
  27.860        239.17	    16.941
  27.880        212.50	    15.969
  27.900        198.33	    15.427
  27.920        175.83	    14.526
  27.940        139.17	    12.923
  27.960        118.33	    11.916
  27.980         99.17	    10.909
  28.000        115.00	    11.747
  28.020         96.67	    10.770
  28.040        111.67	    11.576
  28.060         91.67	    10.488
  28.080        100.83	    11.000
  28.100        120.00	    12.000
  28.120        118.33	    11.916
  28.140         99.17	    10.909
  28.160        106.67	    11.314
  28.180         99.17	    10.909
  28.200         85.00	    10.100
  28.220         98.33	    10.863
  28.240         87.50	    10.247
  28.260         89.17	    10.344
  28.280         94.17	    10.630
  28.300         80.00	     9.798
  28.320         73.33	     9.381
  28.340         75.83	     9.539
  28.360         50.00	     7.746
  28.380         61.67	     8.602
  28.400         68.33	     9.055
  28.420         98.33	    10.863
  28.440        123.33	    12.166
  28.460        174.17	    14.457
  28.480        183.33	    14.832
  28.500        122.50	    12.124
  28.520        106.67	    11.314
  28.540        125.83	    12.288
  28.560        117.50	    11.874
  28.580        100.83	    11.000
  28.600         78.33	     9.695
  28.620         77.50	     9.644
  28.640         67.50	     9.000
  28.660         66.67	     8.944
  28.680         64.17	     8.775
  28.700         71.67	     9.274
  28.720         49.17	     7.681
  28.740         71.67	     9.274
  28.760         61.67	     8.602
  28.780         49.17	     7.681
  28.800         49.17	     7.681
  28.820         41.67	     7.071
  28.840         56.67	     8.246
  28.860         69.17	     9.110
  28.880         77.50	     9.644
  28.900         53.33	     8.000
  28.920         48.33	     7.616
  28.940         60.00	     8.485
  28.960         44.17	     7.280
  28.980         53.33	     8.000
  29.000         50.83	     7.810
  29.020         51.67	     7.874
  29.040         50.00	     7.746
  29.060         51.67	     7.874
  29.080         52.50	     7.937
  29.100         39.17	     6.856
  29.120         58.33	     8.367
  29.140         56.67	     8.246
  29.160         40.00	     6.928
  29.180         55.83	     8.185
  29.200         37.50	     6.708
  29.220         40.83	     7.000
  29.240         44.17	     7.280
  29.260         50.00	     7.746
  29.280         58.33	     8.367
  29.300         50.83	     7.810
  29.320         46.67	     7.483
  29.340         55.83	     8.185
  29.360         45.83	     7.416
  29.380         47.50	     7.550
  29.400         47.50	     7.550
  29.420         53.33	     8.000
  29.440         49.17	     7.681
  29.460         48.33	     7.616
  29.480         44.17	     7.280
  29.500         50.00	     7.746
  29.520         50.83	     7.810
  29.540         61.67	     8.602
  29.560         52.50	     7.937
  29.580         64.17	     8.775
  29.600         59.17	     8.426
  29.620         58.33	     8.367
  29.640         60.83	     8.544
  29.660         77.50	     9.644
  29.680         72.50	     9.327
  29.700         75.00	     9.487
  29.720         76.67	     9.592
  29.740         87.50	    10.247
  29.760        100.83	    11.000
  29.780        104.17	    11.180
  29.800         89.17	    10.344
  29.820         98.33	    10.863
  29.840         95.83	    10.724
  29.860        113.33	    11.662
  29.880        103.33	    11.136
  29.900        103.33	    11.136
  29.920         89.17	    10.344
  29.940         76.67	     9.592
  29.960         79.17	     9.747
  29.980         69.17	     9.110
  30.000         98.33	    10.863
  30.020         88.33	    10.296
  30.040         91.67	    10.488
  30.060        101.67	    11.045
  30.080         85.00	    10.100
  30.100         79.17	     9.747
  30.120         80.83	     9.849
  30.140         95.83	    10.724
  30.160         76.67	     9.592
  30.180         70.83	     9.220
  30.200         65.83	     8.888
  30.220         75.00	     9.487
  30.240         67.50	     9.000
  30.260         70.83	     9.220
  30.280         80.00	     9.798
  30.300         74.17	     9.434
  30.320         85.00	    10.100
  30.340        100.83	    11.000
  30.360        100.83	    11.000
  30.380        106.67	    11.314
  30.400        107.50	    11.358
  30.420         93.33	    10.583
  30.440        105.00	    11.225
  30.460         81.67	     9.899
  30.480         80.00	     9.798
  30.500         76.67	     9.592
  30.520         73.33	     9.381
  30.540         69.17	     9.110
  30.560         56.67	     8.246
  30.580         60.00	     8.485
  30.600         59.17	     8.426
  30.620         57.50	     8.307
  30.640         61.67	     8.602
  30.660         67.50	     9.000
  30.680         67.50	     9.000
  30.700         75.83	     9.539
  30.720         85.00	    10.100
  30.740         88.33	    10.296
  30.760        122.50	    12.124
  30.780        139.17	    12.923
  30.800        118.33	    11.916
  30.820         93.33	    10.583
  30.840         95.00	    10.677
  30.860         88.33	    10.296
  30.880         86.67	    10.198
  30.900         78.33	     9.695
  30.920         70.83	     9.220
  30.940         63.33	     8.718
  30.960         56.67	     8.246
  30.980         54.17	     8.062
  31.000         80.83	     9.849
  31.020         65.00	     8.832
  31.040         71.67	     9.274
  31.060         59.17	     8.426
  31.080         58.33	     8.367
  31.100         67.50	     9.000
  31.120         71.67	     9.274
  31.140         84.17	    10.050
  31.160         80.00	     9.798
  31.180        100.00	    10.954
  31.200         96.67	    10.770
  31.220         93.33	    10.583
  31.240         78.33	     9.695
  31.260         81.67	     9.899
  31.280         88.33	    10.296
  31.300         55.83	     8.185
  31.320         56.67	     8.246
  31.340         57.50	     8.307
  31.360         69.17	     9.110
  31.380         62.50	     8.660
  31.400         63.33	     8.718
  31.420         52.50	     7.937
  31.440         65.83	     8.888
  31.460         45.83	     7.416
  31.480         43.33	     7.211
  31.500         60.00	     8.485
  31.520         48.33	     7.616
  31.540         63.33	     8.718
  31.560         46.67	     7.483
  31.580         47.50	     7.550
  31.600         39.17	     6.856
  31.620         55.83	     8.185
  31.640         50.83	     7.810
  31.660         50.00	     7.746
  31.680         40.00	     6.928
  31.700         40.83	     7.000
  31.720         50.00	     7.746
  31.740         47.50	     7.550
  31.760         39.17	     6.856
  31.780         50.83	     7.810
  31.800         56.67	     8.246
  31.820         62.50	     8.660
  31.840         58.33	     8.367
  31.860         59.17	     8.426
  31.880         60.83	     8.544
  31.900         52.50	     7.937
  31.920         74.17	     9.434
  31.940         50.83	     7.810
  31.960         54.17	     8.062
  31.980         70.83	     9.220
  32.000         55.83	     8.185
  32.020         72.50	     9.327
  32.040         63.33	     8.718
  32.060         60.83	     8.544
  32.080         69.17	     9.110
  32.100         45.83	     7.416
  32.120         55.00	     8.124
  32.140         55.00	     8.124
  32.160         62.50	     8.660
  32.180         51.67	     7.874
  32.200         49.17	     7.681
  32.220         50.00	     7.746
  32.240         41.67	     7.071
  32.260         47.50	     7.550
  32.280         47.50	     7.550
  32.300         40.00	     6.928
  32.320         33.33	     6.325
  32.340         56.67	     8.246
  32.360         37.50	     6.708
  32.380         37.50	     6.708
  32.400         35.00	     6.481
  32.420         40.83	     7.000
  32.440         34.17	     6.403
  32.460         40.00	     6.928
  32.480         40.83	     7.000
  32.500         28.33	     5.831
  32.520         43.33	     7.211
  32.540         31.67	     6.164
  32.560         40.00	     6.928
  32.580         42.50	     7.141
  32.600         43.33	     7.211
  32.620         39.17	     6.856
  32.640         54.17	     8.062
  32.660         46.67	     7.483
  32.680         40.00	     6.928
  32.700         51.67	     7.874
  32.720         37.50	     6.708
  32.740         38.33	     6.782
  32.760         41.67	     7.071
  32.780         45.00	     7.348
  32.800         35.00	     6.481
  32.820         53.33	     8.000
  32.840         45.00	     7.348
  32.860         47.50	     7.550
  32.880         41.67	     7.071
  32.900         36.67	     6.633
  32.920         43.33	     7.211
  32.940         50.83	     7.810
  32.960         73.33	     9.381
  32.980         59.17	     8.426
  33.000         68.33	     9.055
  33.020         52.50	     7.937
  33.040         67.50	     9.000
  33.060         55.00	     8.124
  33.080         48.33	     7.616
  33.100         45.00	     7.348
  33.120         50.83	     7.810
  33.140         54.17	     8.062
  33.160         41.67	     7.071
  33.180         30.83	     6.083
  33.200         39.17	     6.856
  33.220         35.00	     6.481
  33.240         43.33	     7.211
  33.260         30.83	     6.083
  33.280         48.33	     7.616
  33.300         45.83	     7.416
  33.320         50.00	     7.746
  33.340         59.17	     8.426
  33.360         49.17	     7.681
  33.380         38.33	     6.782
  33.400         47.50	     7.550
  33.420         41.67	     7.071
  33.440         43.33	     7.211
  33.460         49.17	     7.681
  33.480         36.67	     6.633
  33.500         48.33	     7.616
  33.520         35.83	     6.557
  33.540         39.17	     6.856
  33.560         51.67	     7.874
  33.580         42.50	     7.141
  33.600         50.00	     7.746
  33.620         45.83	     7.416
  33.640         45.00	     7.348
  33.660         42.50	     7.141
  33.680         54.17	     8.062
  33.700         54.17	     8.062
  33.720         53.33	     8.000
  33.740         48.33	     7.616
  33.760         60.83	     8.544
  33.780         61.67	     8.602
  33.800         50.83	     7.810
  33.820         57.50	     8.307
  33.840         78.33	     9.695
  33.860         70.83	     9.220
  33.880         68.33	     9.055
  33.900         60.00	     8.485
  33.920         61.67	     8.602
  33.940         64.17	     8.775
  33.960         80.00	     9.798
  33.980         64.17	     8.775
  34.000         65.00	     8.832
  34.020         61.67	     8.602
  34.040         60.83	     8.544
  34.060         61.67	     8.602
  34.080         65.00	     8.832
  34.100         62.50	     8.660
  34.120         53.33	     8.000
  34.140         40.00	     6.928
  34.160         71.67	     9.274
  34.180         51.67	     7.874
  34.200         60.83	     8.544
  34.220         58.33	     8.367
  34.240         75.00	     9.487
  34.260         50.83	     7.810
  34.280         70.00	     9.165
  34.300         72.50	     9.327
  34.320         74.17	     9.434
  34.340         87.50	    10.247
  34.360         91.67	    10.488
  34.380        103.33	    11.136
  34.400         90.83	    10.440
  34.420         95.83	    10.724
  34.440         89.17	    10.344
  34.460         97.50	    10.817
  34.480        101.67	    11.045
  34.500         80.00	     9.798
  34.520         85.00	    10.100
  34.540         95.83	    10.724
  34.560        100.00	    10.954
  34.580         78.33	     9.695
  34.600         94.17	    10.630
  34.620         75.83	     9.539
  34.640         69.17	     9.110
  34.660         83.33	    10.000
  34.680         85.00	    10.100
  34.700         82.50	     9.950
  34.720         96.67	    10.770
  34.740         94.17	    10.630
  34.760        106.67	    11.314
  34.780        100.00	    10.954
  34.800        117.50	    11.874
  34.820        108.33	    11.402
  34.840        110.00	    11.489
  34.860        142.50	    13.077
  34.880        134.17	    12.689
  34.900        110.83	    11.533
  34.920        126.67	    12.329
  34.940        149.17	    13.379
  34.960        160.83	    13.892
  34.980        110.83	    11.533
  35.000         85.83	    10.149
  35.020        106.67	    11.314
  35.040         96.67	    10.770
  35.060         96.67	    10.770
  35.080         67.50	     9.000
  35.100         81.67	     9.899
  35.120         91.67	    10.488
  35.140         92.50	    10.536
  35.160         78.33	     9.695
  35.180         76.67	     9.592
  35.200         70.00	     9.165
  35.220         73.33	     9.381
  35.240         85.00	    10.100
  35.260         74.17	     9.434
  35.280         71.67	     9.274
  35.300         82.50	     9.950
  35.320         78.33	     9.695
  35.340         95.00	    10.677
  35.360        105.83	    11.269
  35.380        115.83	    11.790
  35.400         97.50	    10.817
  35.420         86.67	    10.198
  35.440        115.00	    11.747
  35.460        122.50	    12.124
  35.480        109.17	    11.446
  35.500         97.50	    10.817
  35.520        113.33	    11.662
  35.540         93.33	    10.583
  35.560         80.83	     9.849
  35.580         83.33	    10.000
  35.600         76.67	     9.592
  35.620         79.17	     9.747
  35.640         65.83	     8.888
  35.660         62.50	     8.660
  35.680         62.50	     8.660
  35.700         72.50	     9.327
  35.720         56.67	     8.246
  35.740         70.00	     9.165
  35.760         46.67	     7.483
  35.780         65.00	     8.832
  35.800         49.17	     7.681
  35.820         67.50	     9.000
  35.840         50.83	     7.810
  35.860         62.50	     8.660
  35.880         45.00	     7.348
  35.900         46.67	     7.483
  35.920         49.17	     7.681
  35.940         51.67	     7.874
  35.960         58.33	     8.367
  35.980         60.00	     8.485
  36.000         55.83	     8.185
  36.020         46.67	     7.483
  36.040         61.67	     8.602
  36.060         64.17	     8.775
  36.080         49.17	     7.681
  36.100         56.67	     8.246
  36.120         45.00	     7.348
  36.140         49.17	     7.681
  36.160         45.83	     7.416
  36.180         51.67	     7.874
  36.200         49.17	     7.681
  36.220         42.50	     7.141
  36.240         52.50	     7.937
  36.260         54.17	     8.062
  36.280         64.17	     8.775
  36.300         60.83	     8.544
  36.320         79.17	     9.747
  36.340         67.50	     9.000
  36.360         72.50	     9.327
  36.380         69.17	     9.110
  36.400         84.17	    10.050
  36.420        101.67	    11.045
  36.440        122.50	    12.124
  36.460        143.33	    13.115
  36.480        147.50	    13.304
  36.500        135.00	    12.728
  36.520        109.17	    11.446
  36.540        101.67	    11.045
  36.560        109.17	    11.446
  36.580        121.67	    12.083
  36.600         87.50	    10.247
  36.620         85.83	    10.149
  36.640         85.00	    10.100
  36.660         98.33	    10.863
  36.680         85.83	    10.149
  36.700         78.33	     9.695
  36.720         68.33	     9.055
  36.740         69.17	     9.110
  36.760         67.50	     9.000
  36.780         60.83	     8.544
  36.800         60.83	     8.544
  36.820         59.17	     8.426
  36.840         60.00	     8.485
  36.860         50.00	     7.746
  36.880         60.00	     8.485
  36.900         60.00	     8.485
  36.920         62.50	     8.660
  36.940         61.67	     8.602
  36.960         55.83	     8.185
  36.980         48.33	     7.616
  37.000         52.50	     7.937
  37.020         55.83	     8.185
  37.040         49.17	     7.681
  37.060         45.83	     7.416
  37.080         41.67	     7.071
  37.100         43.33	     7.211
  37.120         46.67	     7.483
  37.140         48.33	     7.616
  37.160         58.33	     8.367
  37.180         54.17	     8.062
  37.200         49.17	     7.681
  37.220         47.50	     7.550
  37.240         56.67	     8.246
  37.260         42.50	     7.141
  37.280         55.83	     8.185
  37.300         55.00	     8.124
  37.320         60.00	     8.485
  37.340         68.33	     9.055
  37.360         87.50	    10.247
  37.380         83.33	    10.000
  37.400         69.17	     9.110
  37.420         61.67	     8.602
  37.440         74.17	     9.434
  37.460         75.83	     9.539
  37.480         70.83	     9.220
  37.500         88.33	    10.296
  37.520         79.17	     9.747
  37.540         78.33	     9.695
  37.560         74.17	     9.434
  37.580         75.83	     9.539
  37.600         78.33	     9.695
  37.620         64.17	     8.775
  37.640         81.67	     9.899
  37.660         71.67	     9.274
  37.680         65.00	     8.832
  37.700         67.50	     9.000
  37.720         64.17	     8.775
  37.740         50.00	     7.746
  37.760         43.33	     7.211
  37.780         53.33	     8.000
  37.800         40.83	     7.000
  37.820         48.33	     7.616
  37.840         33.33	     6.325
  37.860         41.67	     7.071
  37.880         37.50	     6.708
  37.900         43.33	     7.211
  37.920         36.67	     6.633
  37.940         31.67	     6.164
  37.960         36.67	     6.633
  37.980         40.83	     7.000
  38.000         30.83	     6.083
  38.020         28.33	     5.831
  38.040         49.17	     7.681
  38.060         30.00	     6.000
  38.080         43.33	     7.211
  38.100         30.83	     6.083
  38.120         30.83	     6.083
  38.140         40.83	     7.000
  38.160         37.50	     6.708
  38.180         37.50	     6.708
  38.200         50.83	     7.810
  38.220         40.83	     7.000
  38.240         35.83	     6.557
  38.260         52.50	     7.937
  38.280         38.33	     6.782
  38.300         28.33	     5.831
  38.320         40.83	     7.000
  38.340         35.00	     6.481
  38.360         40.00	     6.928
  38.380         40.00	     6.928
  38.400         42.50	     7.141
  38.420         59.17	     8.426
  38.440         81.67	     9.899
  38.460        104.17	    11.180
  38.480        124.17	    12.207
  38.500        100.00	    10.954
  38.520         70.00	     9.165
  38.540         65.00	     8.832
  38.560         99.17	    10.909
  38.580        107.50	    11.358
  38.600         81.67	     9.899
  38.620         47.50	     7.550
  38.640         75.00	     9.487
  38.660         45.83	     7.416
  38.680         39.17	     6.856
  38.700         49.17	     7.681
  38.720         60.00	     8.485
  38.740         52.50	     7.937
  38.760         56.67	     8.246
  38.780         45.00	     7.348
  38.800         58.33	     8.367
  38.820         47.50	     7.550
  38.840         50.83	     7.810
  38.860         50.83	     7.810
  38.880         41.67	     7.071
  38.900         47.50	     7.550
  38.920         38.33	     6.782
  38.940         50.00	     7.746
  38.960         45.00	     7.348
  38.980         53.33	     8.000
  39.000         52.50	     7.937
  39.020         45.00	     7.348
  39.040         48.33	     7.616
  39.060         45.83	     7.416
  39.080         43.33	     7.211
  39.100         35.00	     6.481
  39.120         52.50	     7.937
  39.140         52.50	     7.937
  39.160         45.83	     7.416
  39.180         54.17	     8.062
  39.200         50.83	     7.810
  39.220         49.17	     7.681
  39.240         55.00	     8.124
  39.260         43.33	     7.211
  39.280         68.33	     9.055
  39.300         53.33	     8.000
  39.320        105.00	    11.225
  39.340         73.33	     9.381
  39.360        103.33	    11.136
  39.380        130.00	    12.490
  39.400        121.67	    12.083
  39.420        126.67	    12.329
  39.440         83.33	    10.000
  39.460         65.00	     8.832
  39.480         86.67	    10.198
  39.500         81.67	     9.899
  39.520         75.00	     9.487
  39.540         65.00	     8.832
  39.560         54.17	     8.062
  39.580         47.50	     7.550
  39.600         58.33	     8.367
  39.620         55.00	     8.124
  39.640         35.83	     6.557
  39.660         50.00	     7.746
  39.680         40.00	     6.928
  39.700         38.33	     6.782
  39.720         53.33	     8.000
  39.740         57.50	     8.307
  39.760         55.83	     8.185
  39.780         47.50	     7.550
  39.800         41.67	     7.071
  39.820         57.50	     8.307
  39.840         60.00	     8.485
  39.860         52.50	     7.937
  39.880         46.67	     7.483
  39.900         54.17	     8.062
  39.920         40.00	     6.928
  39.940         45.00	     7.348
  39.960         39.17	     6.856
  39.980         50.83	     7.810
  40.000         45.00	     7.348
  40.020         60.00	     8.485
  40.040         58.33	     8.367
  40.060         45.83	     7.416
  40.080         40.83	     7.000
  40.100         49.17	     7.681
  40.120         47.50	     7.550
  40.140         55.83	     8.185
  40.160         52.50	     7.937
  40.180         75.83	     9.539
  40.200         88.33	    10.296
  40.220         97.50	    10.817
  40.240         73.33	     9.381
  40.260         53.33	     8.000
  40.280         63.33	     8.718
  40.300         73.33	     9.381
  40.320         71.67	     9.274
  40.340         56.67	     8.246
  40.360         46.67	     7.483
  40.380         37.50	     6.708
  40.400         39.17	     6.856
  40.420         46.67	     7.483
  40.440         43.33	     7.211
  40.460         41.67	     7.071
  40.480         30.83	     6.083
  40.500         29.17	     5.916
  40.520         35.00	     6.481
  40.540         39.17	     6.856
  40.560         50.83	     7.810
  40.580         40.83	     7.000
  40.600         35.83	     6.557
  40.620         48.33	     7.616
  40.640         36.67	     6.633
  40.660         53.33	     8.000
  40.680         37.50	     6.708
  40.700         40.83	     7.000
  40.720         43.33	     7.211
  40.740         43.33	     7.211
  40.760         47.50	     7.550
  40.780         56.67	     8.246
  40.800         50.00	     7.746
  40.820         55.83	     8.185
  40.840         49.17	     7.681
  40.860         39.17	     6.856
  40.880         41.67	     7.071
  40.900         50.83	     7.810
  40.920         50.00	     7.746
  40.940         49.17	     7.681
  40.960         43.33	     7.211
  40.980         45.00	     7.348
  41.000         48.33	     7.616
  41.020         56.67	     8.246
  41.040         50.83	     7.810
  41.060         55.00	     8.124
  41.080         60.00	     8.485
  41.100         57.50	     8.307
  41.120         55.00	     8.124
  41.140         48.33	     7.616
  41.160         58.33	     8.367
  41.180         66.67	     8.944
  41.200         52.50	     7.937
  41.220         54.17	     8.062
  41.240         50.00	     7.746
  41.260         64.17	     8.775
  41.280         50.83	     7.810
  41.300         41.67	     7.071
  41.320         51.67	     7.874
  41.340         52.50	     7.937
  41.360         60.83	     8.544
  41.380         35.83	     6.557
  41.400         59.17	     8.426
  41.420         59.17	     8.426
  41.440         49.17	     7.681
  41.460         55.83	     8.185
  41.480         58.33	     8.367
  41.500         54.17	     8.062
  41.520         55.00	     8.124
  41.540         53.33	     8.000
  41.560         64.17	     8.775
  41.580         65.83	     8.888
  41.600         73.33	     9.381
  41.620         67.50	     9.000
  41.640         70.83	     9.220
  41.660         75.00	     9.487
  41.680         72.50	     9.327
  41.700         78.33	     9.695
  41.720         65.00	     8.832
  41.740         93.33	    10.583
  41.760         76.67	     9.592
  41.780         80.83	     9.849
  41.800         66.67	     8.944
  41.820         65.00	     8.832
  41.840         80.00	     9.798
  41.860         70.00	     9.165
  41.880         65.83	     8.888
  41.900         63.33	     8.718
  41.920         66.67	     8.944
  41.940         46.67	     7.483
  41.960         64.17	     8.775
  41.980         60.83	     8.544
  42.000         54.17	     8.062
  42.020         53.33	     8.000
  42.040         57.50	     8.307
  42.060         63.33	     8.718
  42.080         48.33	     7.616
  42.100         45.00	     7.348
  42.120         61.67	     8.602
  42.140         47.50	     7.550
  42.160         70.00	     9.165
  42.180         58.33	     8.367
  42.200         63.33	     8.718
  42.220         78.33	     9.695
  42.240         70.00	     9.165
  42.260         90.83	    10.440
  42.280         92.50	    10.536
  42.300         95.83	    10.724
  42.320         84.17	    10.050
  42.340        129.17	    12.450
  42.360         97.50	    10.817
  42.380        117.50	    11.874
  42.400        103.33	    11.136
  42.420        103.33	    11.136
  42.440         75.00	     9.487
  42.460         87.50	    10.247
  42.480         91.67	    10.488
  42.500        100.83	    11.000
  42.520         80.83	     9.849
  42.540         85.83	    10.149
  42.560         70.00	     9.165
  42.580         79.17	     9.747
  42.600         65.00	     8.832
  42.620         70.83	     9.220
  42.640         85.00	    10.100
  42.660         69.17	     9.110
  42.680         57.50	     8.307
  42.700         61.67	     8.602
  42.720         69.17	     9.110
  42.740         75.00	     9.487
  42.760         65.00	     8.832
  42.780         60.83	     8.544
  42.800         63.33	     8.718
  42.820         67.50	     9.000
  42.840         75.83	     9.539
  42.860         81.67	     9.899
  42.880         85.83	    10.149
  42.900         84.17	    10.050
  42.920         84.17	    10.050
  42.940         75.83	     9.539
  42.960         86.67	    10.198
  42.980         73.33	     9.381
  43.000         82.50	     9.950
  43.020         95.00	    10.677
  43.040        101.67	    11.045
  43.060        100.00	    10.954
  43.080         99.17	    10.909
  43.100        106.67	    11.314
  43.120        115.83	    11.790
  43.140        112.50	    11.619
  43.160        119.17	    11.958
  43.180        115.83	    11.790
  43.200        160.83	    13.892
  43.220        162.50	    13.964
  43.240        145.83	    13.229
  43.260        166.67	    14.142
  43.280        187.50	    15.000
  43.300        205.83	    15.716
  43.320        220.00	    16.248
  43.340        214.17	    16.031
  43.360        216.67	    16.125
  43.380        217.50	    16.155
  43.400        249.17	    17.292
  43.420        290.00	    18.655
  43.440        263.33	    17.776
  43.460        273.33	    18.111
  43.480        266.67	    17.889
  43.500        240.00	    16.971
  43.520        239.17	    16.941
  43.540        224.17	    16.401
  43.560        237.50	    16.882
  43.580        225.83	    16.462
  43.600        215.00	    16.062
  43.620        182.50	    14.799
  43.640        177.50	    14.595
  43.660        177.50	    14.595
  43.680        165.83	    14.107
  43.700        164.17	    14.036
  43.720        173.33	    14.422
  43.740        141.67	    13.038
  43.760        126.67	    12.329
  43.780        113.33	    11.662
  43.800        112.50	    11.619
  43.820        112.50	    11.619
  43.840        125.00	    12.247
  43.860         99.17	    10.909
  43.880         91.67	    10.488
  43.900         90.83	    10.440
  43.920         92.50	    10.536
  43.940         85.00	    10.100
  43.960         90.83	    10.440
  43.980         75.00	     9.487
  44.000         84.17	    10.050
  44.020         72.50	     9.327
  44.040         70.83	     9.220
  44.060         65.83	     8.888
  44.080         57.50	     8.307
  44.100         73.33	     9.381
  44.120         65.83	     8.888
  44.140         70.00	     9.165
  44.160         65.00	     8.832
  44.180         52.50	     7.937
  44.200         51.67	     7.874
  44.220         48.33	     7.616
  44.240         60.00	     8.485
  44.260         55.00	     8.124
  44.280         46.67	     7.483
  44.300         53.33	     8.000
  44.320         47.50	     7.550
  44.340         50.00	     7.746
  44.360         55.83	     8.185
  44.380         54.17	     8.062
  44.400         66.67	     8.944
  44.420         71.67	     9.274
  44.440         66.67	     8.944
  44.460         48.33	     7.616
  44.480         43.33	     7.211
  44.500         51.67	     7.874
  44.520         57.50	     8.307
  44.540         60.83	     8.544
  44.560         62.50	     8.660
  44.580         43.33	     7.211
  44.600         42.50	     7.141
  44.620         45.83	     7.416
  44.640         51.67	     7.874
  44.660         43.33	     7.211
  44.680         51.67	     7.874
  44.700         49.17	     7.681
  44.720         40.83	     7.000
  44.740         40.83	     7.000
  44.760         47.50	     7.550
  44.780         59.17	     8.426
  44.800         53.33	     8.000
  44.820         51.67	     7.874
  44.840         67.50	     9.000
  44.860         60.83	     8.544
  44.880         63.33	     8.718
  44.900         54.17	     8.062
  44.920         64.17	     8.775
  44.940         62.50	     8.660
  44.960         62.50	     8.660
  44.980         61.67	     8.602
  45.000         59.17	     8.426
  45.020         60.00	     8.485
  45.040         65.00	     8.832
  45.060         55.83	     8.185
  45.080         64.17	     8.775
  45.100         66.67	     8.944
  45.120         70.00	     9.165
  45.140         70.83	     9.220
  45.160         60.00	     8.485
  45.180         57.50	     8.307
  45.200         60.83	     8.544
  45.220         65.00	     8.832
  45.240         66.67	     8.944
  45.260         61.67	     8.602
  45.280         65.00	     8.832
  45.300         66.67	     8.944
  45.320         59.17	     8.426
  45.340         64.17	     8.775
  45.360         65.00	     8.832
  45.380         65.00	     8.832
  45.400         79.17	     9.747
  45.420         90.83	    10.440
  45.440         86.67	    10.198
  45.460        103.33	    11.136
  45.480         93.33	    10.583
  45.500         82.50	     9.950
  45.520         81.67	     9.899
  45.540         78.33	     9.695
  45.560         93.33	    10.583
  45.580         86.67	    10.198
  45.600         65.00	     8.832
  45.620         73.33	     9.381
  45.640         79.17	     9.747
  45.660         65.83	     8.888
  45.680         84.17	    10.050
  45.700        102.50	    11.091
  45.720         86.67	    10.198
  45.740         81.67	     9.899
  45.760         70.00	     9.165
  45.780         63.33	     8.718
  45.800         62.50	     8.660
  45.820         62.50	     8.660
  45.840         60.00	     8.485
  45.860         60.00	     8.485
  45.880         55.83	     8.185
  45.900         55.83	     8.185
  45.920         47.50	     7.550
  45.940         58.33	     8.367
  45.960         43.33	     7.211
  45.980         50.83	     7.810
  46.000         46.67	     7.483
  46.020         42.50	     7.141
  46.040         54.17	     8.062
  46.060         48.33	     7.616
  46.080         46.67	     7.483
  46.100         45.00	     7.348
  46.120         46.67	     7.483
  46.140         54.17	     8.062
  46.160         35.83	     6.557
  46.180         36.67	     6.633
  46.200         42.50	     7.141
  46.220         40.83	     7.000
  46.240         34.17	     6.403
  46.260         46.67	     7.483
  46.280         42.50	     7.141
  46.300         42.50	     7.141
  46.320         33.33	     6.325
  46.340         35.83	     6.557
  46.360         43.33	     7.211
  46.380         42.50	     7.141
  46.400         33.33	     6.325
  46.420         29.17	     5.916
  46.440         34.17	     6.403
  46.460         49.17	     7.681
  46.480         38.33	     6.782
  46.500         36.67	     6.633
  46.520         28.33	     5.831
  46.540         25.00	     5.477
  46.560         33.33	     6.325
  46.580         34.17	     6.403
  46.600         38.33	     6.782
  46.620         27.50	     5.745
  46.640         25.00	     5.477
  46.660         24.17	     5.385
  46.680         30.00	     6.000
  46.700         36.67	     6.633
  46.720         49.17	     7.681
  46.740         40.83	     7.000
  46.760         35.00	     6.481
  46.780         52.50	     7.937
  46.800         27.50	     5.745
  46.820         38.33	     6.782
  46.840         36.67	     6.633
  46.860         28.33	     5.831
  46.880         33.33	     6.325
  46.900         36.67	     6.633
  46.920         42.50	     7.141
  46.940         31.67	     6.164
  46.960         45.00	     7.348
  46.980         40.83	     7.000
  47.000         49.17	     7.681
  47.020         50.00	     7.746
  47.040         51.67	     7.874
  47.060         64.17	     8.775
  47.080         55.00	     8.124
  47.100         48.33	     7.616
  47.120         38.33	     6.782
  47.140         40.83	     7.000
  47.160         40.00	     6.928
  47.180         56.67	     8.246
  47.200         40.83	     7.000
  47.220         40.00	     6.928
  47.240         39.17	     6.856
  47.260         37.50	     6.708
  47.280         44.17	     7.280
  47.300         45.83	     7.416
  47.320         32.50	     6.245
  47.340         27.50	     5.745
  47.360         40.00	     6.928
  47.380         34.17	     6.403
  47.400         27.50	     5.745
  47.420         41.67	     7.071
  47.440         44.17	     7.280
  47.460         30.83	     6.083
  47.480         37.50	     6.708
  47.500         30.83	     6.083
  47.520         42.50	     7.141
  47.540         34.17	     6.403
  47.560         37.50	     6.708
  47.580         36.67	     6.633
  47.600         35.00	     6.481
  47.620         29.17	     5.916
  47.640         30.83	     6.083
  47.660         31.67	     6.164
  47.680         38.33	     6.782
  47.700         36.67	     6.633
  47.720         23.33	     5.292
  47.740         30.00	     6.000
  47.760         31.67	     6.164
  47.780         38.33	     6.782
  47.800         29.17	     5.916
  47.820         43.33	     7.211
  47.840         45.00	     7.348
  47.860         44.17	     7.280
  47.880         49.17	     7.681
  47.900         65.00	     8.832
  47.920         53.33	     8.000
  47.940         50.83	     7.810
  47.960         52.50	     7.937
  47.980         52.50	     7.937
  48.000         46.67	     7.483
  48.020         56.67	     8.246
  48.040         73.33	     9.381
  48.060         60.00	     8.485
  48.080         55.83	     8.185
  48.100         53.33	     8.000
  48.120         53.33	     8.000
  48.140         45.83	     7.416
  48.160         50.83	     7.810
  48.180         59.17	     8.426
  48.200         44.17	     7.280
  48.220         42.50	     7.141
  48.240         44.17	     7.280
  48.260         41.67	     7.071
  48.280         48.33	     7.616
  48.300         59.17	     8.426
  48.320         46.67	     7.483
  48.340         39.17	     6.856
  48.360         35.00	     6.481
  48.380         40.00	     6.928
  48.400         40.00	     6.928
  48.420         44.17	     7.280
  48.440         40.00	     6.928
  48.460         50.00	     7.746
  48.480         41.67	     7.071
  48.500         37.50	     6.708
  48.520         37.50	     6.708
  48.540         38.33	     6.782
  48.560         35.83	     6.557
  48.580         52.50	     7.937
  48.600         36.67	     6.633
  48.620         31.67	     6.164
  48.640         41.67	     7.071
  48.660         40.83	     7.000
  48.680         37.50	     6.708
  48.700         40.83	     7.000
  48.720         40.83	     7.000
  48.740         39.17	     6.856
  48.760         35.00	     6.481
  48.780         38.33	     6.782
  48.800         47.50	     7.550
  48.820         36.67	     6.633
  48.840         38.33	     6.782
  48.860         37.50	     6.708
  48.880         29.17	     5.916
  48.900         34.17	     6.403
  48.920         45.00	     7.348
  48.940         40.00	     6.928
  48.960         40.83	     7.000
  48.980         29.17	     5.916
  49.000         40.00	     6.928
  49.020         39.17	     6.856
  49.040         46.67	     7.483
  49.060         41.67	     7.071
  49.080         45.00	     7.348
  49.100         55.00	     8.124
  49.120         43.33	     7.211
  49.140         46.67	     7.483
  49.160         54.17	     8.062
  49.180         32.50	     6.245
  49.200         35.83	     6.557
  49.220         53.33	     8.000
  49.240         49.17	     7.681
  49.260         45.83	     7.416
  49.280         41.67	     7.071
  49.300         42.50	     7.141
  49.320         46.67	     7.483
  49.340         35.00	     6.481
  49.360         48.33	     7.616
  49.380         50.00	     7.746
  49.400         35.00	     6.481
  49.420         47.50	     7.550
  49.440         45.83	     7.416
  49.460         42.50	     7.141
  49.480         46.67	     7.483
  49.500         56.67	     8.246
  49.520         48.33	     7.616
  49.540         34.17	     6.403
  49.560         58.33	     8.367
  49.580         54.17	     8.062
  49.600         51.67	     7.874
  49.620         55.83	     8.185
  49.640         60.00	     8.485
  49.660         40.83	     7.000
  49.680         58.33	     8.367
  49.700         52.50	     7.937
  49.720         55.00	     8.124
  49.740         60.83	     8.544
  49.760         67.50	     9.000
  49.780         85.83	    10.149
  49.800         61.67	     8.602
  49.820         90.00	    10.392
  49.840         84.17	    10.050
  49.860        105.00	    11.225
  49.880        115.00	    11.747
  49.900        103.33	    11.136
  49.920        103.33	    11.136
  49.940        101.67	    11.045
  49.960        131.67	    12.570
  49.980        149.17	    13.379
  50.000        212.50	    15.969
  50.020        308.33	    19.235
  50.040        364.17	    20.905
  50.060        390.83	    21.656
  50.080        351.67	    20.543
  50.100        260.00	    17.664
  50.120        166.67	    14.142
  50.140        147.50	    13.304
  50.160        181.67	    14.765
  50.180        252.50	    17.407
  50.200        221.67	    16.310
  50.220        164.17	    14.036
  50.240        139.17	    12.923
  50.260         93.33	    10.583
  50.280         75.00	     9.487
  50.300         88.33	    10.296
  50.320         64.17	     8.775
  50.340         70.00	     9.165
  50.360         67.50	     9.000
  50.380         64.17	     8.775
  50.400         82.50	     9.950
  50.420         72.50	     9.327
  50.440         70.83	     9.220
  50.460         69.17	     9.110
  50.480         70.83	     9.220
  50.500         90.83	    10.440
  50.520         80.83	     9.849
  50.540         80.00	     9.798
  50.560         91.67	    10.488
  50.580         90.83	    10.440
  50.600         77.50	     9.644
  50.620         85.00	    10.100
  50.640         75.00	     9.487
  50.660         67.50	     9.000
  50.680         69.17	     9.110
  50.700         80.00	     9.798
  50.720         60.83	     8.544
  50.740         57.50	     8.307
  50.760         57.50	     8.307
  50.780         52.50	     7.937
  50.800         38.33	     6.782
  50.820         54.17	     8.062
  50.840         63.33	     8.718
  50.860         50.83	     7.810
  50.880         46.67	     7.483
  50.900         45.83	     7.416
  50.920         53.33	     8.000
  50.940         44.17	     7.280
  50.960         35.83	     6.557
  50.980         48.33	     7.616
  51.000         60.83	     8.544
  51.020         75.00	     9.487
  51.040         73.33	     9.381
  51.060         73.33	     9.381
  51.080         70.83	     9.220
  51.100         53.33	     8.000
  51.120         54.17	     8.062
  51.140         50.00	     7.746
  51.160         58.33	     8.367
  51.180         59.17	     8.426
  51.200         56.67	     8.246
  51.220         56.67	     8.246
  51.240         55.00	     8.124
  51.260         37.50	     6.708
  51.280         50.83	     7.810
  51.300         35.00	     6.481
  51.320         41.67	     7.071
  51.340         35.83	     6.557
  51.360         35.83	     6.557
  51.380         30.83	     6.083
  51.400         30.83	     6.083
  51.420         48.33	     7.616
  51.440         39.17	     6.856
  51.460         36.67	     6.633
  51.480         46.67	     7.483
  51.500         38.33	     6.782
  51.520         31.67	     6.164
  51.540         30.00	     6.000
  51.560         18.33	     4.690
  51.580         30.00	     6.000
  51.600         30.00	     6.000
  51.620         30.83	     6.083
  51.640         21.67	     5.099
  51.660         32.50	     6.245
  51.680         31.67	     6.164
  51.700         26.67	     5.657
  51.720         32.50	     6.245
  51.740         24.17	     5.385
  51.760         30.00	     6.000
  51.780         46.67	     7.483
  51.800         35.00	     6.481
  51.820         40.00	     6.928
  51.840         38.33	     6.782
  51.860         30.00	     6.000
  51.880         38.33	     6.782
  51.900         42.50	     7.141
  51.920         36.67	     6.633
  51.940         40.83	     7.000
  51.960         41.67	     7.071
  51.980         41.67	     7.071
  52.000         47.50	     7.550
  52.020         42.50	     7.141
  52.040         46.67	     7.483
  52.060         46.67	     7.483
  52.080         38.33	     6.782
  52.100         32.50	     6.245
  52.120         40.83	     7.000
  52.140         45.00	     7.348
  52.160         50.00	     7.746
  52.180         58.33	     8.367
  52.200         55.83	     8.185
  52.220         64.17	     8.775
  52.240         54.17	     8.062
  52.260         40.00	     6.928
  52.280         44.17	     7.280
  52.300         43.33	     7.211
  52.320         44.17	     7.280
  52.340         50.00	     7.746
  52.360         43.33	     7.211
  52.380         43.33	     7.211
  52.400         49.17	     7.681
  52.420         35.00	     6.481
  52.440         52.50	     7.937
  52.460         49.17	     7.681
  52.480         63.33	     8.718
  52.500         41.67	     7.071
  52.520         27.50	     5.745
  52.540         31.67	     6.164
  52.560         33.33	     6.325
  52.580         48.33	     7.616
  52.600         37.50	     6.708
  52.620         29.17	     5.916
  52.640         32.50	     6.245
  52.660         34.17	     6.403
  52.680         40.00	     6.928
  52.700         36.67	     6.633
  52.720         40.00	     6.928
  52.740         40.00	     6.928
  52.760         46.67	     7.483
  52.780         45.83	     7.416
  52.800         38.33	     6.782
  52.820         40.00	     6.928
  52.840         38.33	     6.782
  52.860         35.83	     6.557
  52.880         42.50	     7.141
  52.900         29.17	     5.916
  52.920         32.50	     6.245
  52.940         32.50	     6.245
  52.960         42.50	     7.141
  52.980         40.00	     6.928
  53.000         41.67	     7.071
  53.020         35.83	     6.557
  53.040         40.83	     7.000
  53.060         38.33	     6.782
  53.080         51.67	     7.874
  53.100         55.00	     8.124
  53.120         57.50	     8.307
  53.140         55.00	     8.124
  53.160         54.17	     8.062
  53.180         55.83	     8.185
  53.200         42.50	     7.141
  53.220         53.33	     8.000
  53.240         47.50	     7.550
  53.260         44.17	     7.280
  53.280         37.50	     6.708
  53.300         38.33	     6.782
  53.320         45.00	     7.348
  53.340         40.83	     7.000
  53.360         39.17	     6.856
  53.380         39.17	     6.856
  53.400         45.00	     7.348
  53.420         48.33	     7.616
  53.440         45.83	     7.416
  53.460         44.17	     7.280
  53.480         39.17	     6.856
  53.500         35.83	     6.557
  53.520         38.33	     6.782
  53.540         32.50	     6.245
  53.560         42.50	     7.141
  53.580         36.67	     6.633
  53.600         51.67	     7.874
  53.620         44.17	     7.280
  53.640         35.83	     6.557
  53.660         45.00	     7.348
  53.680         39.17	     6.856
  53.700         42.50	     7.141
  53.720         28.33	     5.831
  53.740         25.83	     5.568
  53.760         37.50	     6.708
  53.780         27.50	     5.745
  53.800         45.00	     7.348
  53.820         30.00	     6.000
  53.840         28.33	     5.831
  53.860         25.83	     5.568
  53.880         35.00	     6.481
  53.900         31.67	     6.164
  53.920         32.50	     6.245
  53.940         38.33	     6.782
  53.960         34.17	     6.403
  53.980         35.83	     6.557
  54.000         41.67	     7.071
  54.020         30.83	     6.083
  54.040         35.00	     6.481
  54.060         34.17	     6.403
  54.080         30.00	     6.000
  54.100         22.50	     5.196
  54.120         32.50	     6.245
  54.140         40.00	     6.928
  54.160         34.17	     6.403
  54.180         47.50	     7.550
  54.200         41.67	     7.071
  54.220         46.67	     7.483
  54.240         37.50	     6.708
  54.260         43.33	     7.211
  54.280         42.50	     7.141
  54.300         40.83	     7.000
  54.320         32.50	     6.245
  54.340         46.67	     7.483
  54.360         40.83	     7.000
  54.380         37.50	     6.708
  54.400         54.17	     8.062
  54.420         46.67	     7.483
  54.440         43.33	     7.211
  54.460         38.33	     6.782
  54.480         43.33	     7.211
  54.500         47.50	     7.550
  54.520         49.17	     7.681
  54.540         55.00	     8.124
  54.560         30.83	     6.083
  54.580         46.67	     7.483
  54.600         45.00	     7.348
  54.620         52.50	     7.937
  54.640         47.50	     7.550
  54.660         56.67	     8.246
  54.680         55.00	     8.124
  54.700         55.00	     8.124
  54.720         69.17	     9.110
  54.740         72.50	     9.327
  54.760         87.50	    10.247
  54.780         77.50	     9.644
  54.800        110.00	    11.489
  54.820         84.17	    10.050
  54.840         71.67	     9.274
  54.860         55.83	     8.185
  54.880         42.50	     7.141
  54.900         60.00	     8.485
  54.920         70.00	     9.165
  54.940         70.00	     9.165
  54.960         80.00	     9.798
  54.980         65.83	     8.888
  55.000         61.67	     8.602
  55.020         45.83	     7.416
  55.040         37.50	     6.708
  55.060         39.17	     6.856
  55.080         45.83	     7.416
  55.100         42.50	     7.141
  55.120         48.33	     7.616
  55.140         50.83	     7.810
  55.160         60.00	     8.485
  55.180         56.67	     8.246
  55.200         50.00	     7.746
  55.220         53.33	     8.000
  55.240         63.33	     8.718
  55.260         57.50	     8.307
  55.280         47.50	     7.550
  55.300         54.17	     8.062
  55.320         40.83	     7.000
  55.340         60.00	     8.485
  55.360         46.67	     7.483
  55.380         56.67	     8.246
  55.400         47.50	     7.550
  55.420         47.50	     7.550
  55.440         50.00	     7.746
  55.460         46.67	     7.483
  55.480         39.17	     6.856
  55.500         45.00	     7.348
  55.520         36.67	     6.633
  55.540         51.67	     7.874
  55.560         40.00	     6.928
  55.580         43.33	     7.211
  55.600         52.50	     7.937
  55.620         47.50	     7.550
  55.640         51.67	     7.874
  55.660         45.83	     7.416
  55.680         53.33	     8.000
  55.700         65.83	     8.888
  55.720         46.67	     7.483
  55.740         49.17	     7.681
  55.760         56.67	     8.246
  55.780         51.67	     7.874
  55.800         40.00	     6.928
  55.820         40.00	     6.928
  55.840         54.17	     8.062
  55.860         49.17	     7.681
  55.880         63.33	     8.718
  55.900         50.83	     7.810
  55.920         51.67	     7.874
  55.940         52.50	     7.937
  55.960         36.67	     6.633
  55.980         51.67	     7.874
  56.000         35.83	     6.557
  56.020         47.50	     7.550
  56.040         47.50	     7.550
  56.060         50.83	     7.810
  56.080         44.17	     7.280
  56.100         49.17	     7.681
  56.120         47.50	     7.550
  56.140         35.83	     6.557
  56.160         37.50	     6.708
  56.180         32.50	     6.245
  56.200         39.17	     6.856
  56.220         51.67	     7.874
  56.240         30.83	     6.083
  56.260         40.00	     6.928
  56.280         40.00	     6.928
  56.300         35.00	     6.481
  56.320         39.17	     6.856
  56.340         60.00	     8.485
  56.360         36.67	     6.633
  56.380         38.33	     6.782
  56.400         46.67	     7.483
  56.420         37.50	     6.708
  56.440         33.33	     6.325
  56.460         33.33	     6.325
  56.480         35.83	     6.557
  56.500         32.50	     6.245
  56.520         39.17	     6.856
  56.540         34.17	     6.403
  56.560         33.33	     6.325
  56.580         40.83	     7.000
  56.600         43.33	     7.211
  56.620         34.17	     6.403
  56.640         52.50	     7.937
  56.660         45.00	     7.348
  56.680         39.17	     6.856
  56.700         34.17	     6.403
  56.720         33.33	     6.325
  56.740         37.50	     6.708
  56.760         31.67	     6.164
  56.780         35.83	     6.557
  56.800         38.33	     6.782
  56.820         39.17	     6.856
  56.840         49.17	     7.681
  56.860         31.67	     6.164
  56.880         37.50	     6.708
  56.900         36.67	     6.633
  56.920         35.83	     6.557
  56.940         29.17	     5.916
  56.960         45.00	     7.348
  56.980         36.67	     6.633
  57.000         31.67	     6.164
  57.020         33.33	     6.325
  57.040         31.67	     6.164
  57.060         35.83	     6.557
  57.080         30.00	     6.000
  57.100         40.00	     6.928
  57.120         33.33	     6.325
  57.140         36.67	     6.633
  57.160         40.00	     6.928
  57.180         37.50	     6.708
  57.200         34.17	     6.403
  57.220         36.67	     6.633
  57.240         36.67	     6.633
  57.260         36.67	     6.633
  57.280         39.17	     6.856
  57.300         35.83	     6.557
  57.320         40.83	     7.000
  57.340         40.00	     6.928
  57.360         45.83	     7.416
  57.380         27.50	     5.745
  57.400         46.67	     7.483
  57.420         33.33	     6.325
  57.440         40.00	     6.928
  57.460         33.33	     6.325
  57.480         29.17	     5.916
  57.500         35.83	     6.557
  57.520         35.83	     6.557
  57.540         38.33	     6.782
  57.560         43.33	     7.211
  57.580         38.33	     6.782
  57.600         34.17	     6.403
  57.620         37.50	     6.708
  57.640         38.33	     6.782
  57.660         38.33	     6.782
  57.680         33.33	     6.325
  57.700         44.17	     7.280
  57.720         25.83	     5.568
  57.740         45.83	     7.416
  57.760         41.67	     7.071
  57.780         30.83	     6.083
  57.800         37.50	     6.708
  57.820         34.17	     6.403
  57.840         27.50	     5.745
  57.860         35.00	     6.481
  57.880         35.83	     6.557
  57.900         25.00	     5.477
  57.920         24.17	     5.385
  57.940         27.50	     5.745
  57.960         36.67	     6.633
  57.980         40.00	     6.928
  58.000         38.33	     6.782
  58.020         35.83	     6.557
  58.040         45.00	     7.348
  58.060         38.33	     6.782
  58.080         35.83	     6.557
  58.100         30.83	     6.083
  58.120         39.17	     6.856
  58.140         35.00	     6.481
  58.160         30.83	     6.083
  58.180         24.17	     5.385
  58.200         40.00	     6.928
  58.220         35.00	     6.481
  58.240         30.83	     6.083
  58.260         37.50	     6.708
  58.280         25.83	     5.568
  58.300         32.50	     6.245
  58.320         30.00	     6.000
  58.340         35.00	     6.481
  58.360         42.50	     7.141
  58.380         37.50	     6.708
  58.400         46.67	     7.483
  58.420         38.33	     6.782
  58.440         40.00	     6.928
  58.460         40.83	     7.000
  58.480         38.33	     6.782
  58.500         43.33	     7.211
  58.520         50.00	     7.746
  58.540         46.67	     7.483
  58.560         45.00	     7.348
  58.580         44.17	     7.280
  58.600         42.50	     7.141
  58.620         38.33	     6.782
  58.640         50.00	     7.746
  58.660         46.67	     7.483
  58.680         46.67	     7.483
  58.700         42.50	     7.141
  58.720         48.33	     7.616
  58.740         42.50	     7.141
  58.760         41.67	     7.071
  58.780         54.17	     8.062
  58.800         45.00	     7.348
  58.820         41.67	     7.071
  58.840         40.00	     6.928
  58.860         46.67	     7.483
  58.880         50.00	     7.746
  58.900         47.50	     7.550
  58.920         33.33	     6.325
  58.940         42.50	     7.141
  58.960         49.17	     7.681
  58.980         53.33	     8.000
  59.000         47.50	     7.550
  59.020         49.17	     7.681
  59.040         60.00	     8.485
  59.060         57.50	     8.307
  59.080         37.50	     6.708
  59.100         35.00	     6.481
  59.120         57.50	     8.307
  59.140         55.00	     8.124
  59.160         39.17	     6.856
  59.180         50.00	     7.746
  59.200         54.17	     8.062
  59.220         50.00	     7.746
  59.240         45.00	     7.348
  59.260         41.67	     7.071
  59.280         46.67	     7.483
  59.300         37.50	     6.708
  59.320         50.00	     7.746
  59.340         47.50	     7.550
  59.360         46.67	     7.483
  59.380         35.00	     6.481
  59.400         50.00	     7.746
  59.420         44.17	     7.280
  59.440         42.50	     7.141
  59.460         46.67	     7.483
  59.480         37.50	     6.708
  59.500         57.50	     8.307
  59.520         51.67	     7.874
  59.540         44.17	     7.280
  59.560         65.83	     8.888
  59.580         62.50	     8.660
  59.600         59.17	     8.426
  59.620         51.67	     7.874
  59.640         49.17	     7.681
  59.660         60.83	     8.544
  59.680         56.67	     8.246
  59.700         70.00	     9.165
  59.720         79.17	     9.747
  59.740        110.00	    11.489
  59.760         91.67	    10.488
  59.780         86.67	    10.198
  59.800        110.83	    11.533
  59.820        110.00	    11.489
  59.840        152.50	    13.528
  59.860        160.00	    13.856
  59.880        158.33	    13.784
  59.900        171.67	    14.353
  59.920        127.50	    12.369
  59.940        111.67	    11.576
  59.960         97.50	    10.817
  59.980         79.17	     9.747
  60.000        114.17	    11.705
  60.020        112.50	    11.619
  60.040        130.00	    12.490
  60.060        100.00	    10.954
  60.080         85.83	    10.149
  60.100         85.83	    10.149
  60.120         69.17	     9.110
  60.140         55.83	     8.185
  60.160         51.67	     7.874
  60.180         45.00	     7.348
  60.200         55.00	     8.124
  60.220         56.67	     8.246
  60.240         50.00	     7.746
  60.260         48.33	     7.616
  60.280         50.83	     7.810
  60.300         60.00	     8.485
  60.320         52.50	     7.937
  60.340         47.50	     7.550
  60.360         50.00	     7.746
  60.380         42.50	     7.141
  60.400         42.50	     7.141
  60.420         45.00	     7.348
  60.440         47.50	     7.550
  60.460         43.33	     7.211
  60.480         37.50	     6.708
  60.500         65.00	     8.832
  60.520         51.67	     7.874
  60.540         51.67	     7.874
  60.560         43.33	     7.211
  60.580         54.17	     8.062
  60.600         45.83	     7.416
  60.620         49.17	     7.681
  60.640         48.33	     7.616
  60.660         51.67	     7.874
  60.680         50.83	     7.810
  60.700         42.50	     7.141
  60.720         41.67	     7.071
  60.740         43.33	     7.211
  60.760         47.50	     7.550
  60.780         69.17	     9.110
  60.800         45.00	     7.348
  60.820         53.33	     8.000
  60.840         37.50	     6.708
  60.860         50.00	     7.746
  60.880         51.67	     7.874
  60.900         45.83	     7.416
  60.920         53.33	     8.000
  60.940         49.17	     7.681
  60.960         59.17	     8.426
  60.980         55.83	     8.185
  61.000         42.50	     7.141
  61.020         43.33	     7.211
  61.040         45.00	     7.348
  61.060         58.33	     8.367
  61.080         43.33	     7.211
  61.100         47.50	     7.550
  61.120         41.67	     7.071
  61.140         50.83	     7.810
  61.160         45.83	     7.416
  61.180         49.17	     7.681
  61.200         42.50	     7.141
  61.220         46.67	     7.483
  61.240         57.50	     8.307
  61.260         46.67	     7.483
  61.280         51.67	     7.874
  61.300         55.83	     8.185
  61.320         68.33	     9.055
  61.340         61.67	     8.602
  61.360         79.17	     9.747
  61.380         65.00	     8.832
  61.400         77.50	     9.644
  61.420         62.50	     8.660
  61.440         70.83	     9.220
  61.460         60.83	     8.544
  61.480         65.83	     8.888
  61.500         65.00	     8.832
  61.520         73.33	     9.381
  61.540         79.17	     9.747
  61.560         60.83	     8.544
  61.580         57.50	     8.307
  61.600         64.17	     8.775
  61.620         61.67	     8.602
  61.640         50.00	     7.746
  61.660         76.67	     9.592
  61.680         72.50	     9.327
  61.700         56.67	     8.246
  61.720         45.00	     7.348
  61.740         49.17	     7.681
  61.760         56.67	     8.246
  61.780         37.50	     6.708
  61.800         49.17	     7.681
  61.820         49.17	     7.681
  61.840         55.00	     8.124
  61.860         56.67	     8.246
  61.880         50.00	     7.746
  61.900         59.17	     8.426
  61.920         60.83	     8.544
  61.940         57.50	     8.307
  61.960         53.33	     8.000
  61.980         35.00	     6.481
  62.000         53.33	     8.000
  62.020         33.33	     6.325
  62.040         40.83	     7.000
  62.060         50.00	     7.746
  62.080         40.83	     7.000
  62.100         40.00	     6.928
  62.120         52.50	     7.937
  62.140         38.33	     6.782
  62.160         35.83	     6.557
  62.180         31.67	     6.164
  62.200         34.17	     6.403
  62.220         34.17	     6.403
  62.240         33.33	     6.325
  62.260         41.67	     7.071
  62.280         31.67	     6.164
  62.300         35.00	     6.481
  62.320         29.17	     5.916
  62.340         30.83	     6.083
  62.360         29.17	     5.916
  62.380         28.33	     5.831
  62.400         34.17	     6.403
  62.420         35.00	     6.481
  62.440         30.83	     6.083
  62.460         30.83	     6.083
  62.480         30.00	     6.000
  62.500         38.33	     6.782
  62.520         35.00	     6.481
  62.540         37.50	     6.708
  62.560         50.83	     7.810
  62.580         35.83	     6.557
  62.600         38.33	     6.782
  62.620         35.83	     6.557
  62.640         36.67	     6.633
  62.660         36.67	     6.633
  62.680         39.17	     6.856
  62.700         37.50	     6.708
  62.720         31.67	     6.164
  62.740         35.83	     6.557
  62.760         31.67	     6.164
  62.780         30.00	     6.000
  62.800         32.50	     6.245
  62.820         38.33	     6.782
  62.840         40.00	     6.928
  62.860         32.50	     6.245
  62.880         35.83	     6.557
  62.900         38.33	     6.782
  62.920         33.33	     6.325
  62.940         43.33	     7.211
  62.960         30.83	     6.083
  62.980         36.67	     6.633
  63.000         39.17	     6.856
  63.020         43.33	     7.211
  63.040         35.00	     6.481
  63.060         35.83	     6.557
  63.080         31.67	     6.164
  63.100         39.17	     6.856
  63.120         44.17	     7.280
  63.140         26.67	     5.657
  63.160         40.00	     6.928
  63.180         35.00	     6.481
  63.200         30.83	     6.083
  63.220         30.00	     6.000
  63.240         42.50	     7.141
  63.260         43.33	     7.211
  63.280         30.83	     6.083
  63.300         42.50	     7.141
  63.320         47.50	     7.550
  63.340         46.67	     7.483
  63.360         35.83	     6.557
  63.380         60.00	     8.485
  63.400         46.67	     7.483
  63.420         49.17	     7.681
  63.440         43.33	     7.211
  63.460         50.83	     7.810
  63.480         45.00	     7.348
  63.500         42.50	     7.141
  63.520         48.33	     7.616
  63.540         43.33	     7.211
  63.560         44.17	     7.280
  63.580         27.50	     5.745
  63.600         46.67	     7.483
  63.620         42.50	     7.141
  63.640         56.67	     8.246
  63.660         59.17	     8.426
  63.680         49.17	     7.681
  63.700         44.17	     7.280
  63.720         46.67	     7.483
  63.740         53.33	     8.000
  63.760         35.83	     6.557
  63.780         44.17	     7.280
  63.800         70.00	     9.165
  63.820         46.67	     7.483
  63.840         55.00	     8.124
  63.860         70.83	     9.220
  63.880         60.83	     8.544
  63.900         60.00	     8.485
  63.920         52.50	     7.937
  63.940         70.00	     9.165
  63.960         59.17	     8.426
  63.980         65.83	     8.888
  64.000         58.33	     8.367
  64.020         57.50	     8.307
  64.040         57.50	     8.307
  64.060         50.00	     7.746
  64.080         40.83	     7.000
  64.100         55.00	     8.124
  64.120         50.83	     7.810
  64.140         60.00	     8.485
  64.160         58.33	     8.367
  64.180         40.00	     6.928
  64.200         42.50	     7.141
  64.220         34.17	     6.403
  64.240         45.00	     7.348
  64.260         39.17	     6.856
  64.280         26.67	     5.657
  64.300         34.17	     6.403
  64.320         30.83	     6.083
  64.340         46.67	     7.483
  64.360         30.83	     6.083
  64.380         37.50	     6.708
  64.400         30.83	     6.083
  64.420         45.00	     7.348
  64.440         32.50	     6.245
  64.460         35.83	     6.557
  64.480         40.83	     7.000
  64.500         25.00	     5.477
  64.520         42.50	     7.141
  64.540         40.00	     6.928
  64.560         34.17	     6.403
  64.580         29.17	     5.916
  64.600         38.33	     6.782
  64.620         47.50	     7.550
  64.640         44.17	     7.280
  64.660         35.83	     6.557
  64.680         48.33	     7.616
  64.700         42.50	     7.141
  64.720         40.00	     6.928
  64.740         41.67	     7.071
  64.760         43.33	     7.211
  64.780         44.17	     7.280
  64.800         57.50	     8.307
  64.820         38.33	     6.782
  64.840         39.17	     6.856
  64.860         35.00	     6.481
  64.880         33.33	     6.325
  64.900         45.00	     7.348
  64.920         45.83	     7.416
  64.940         61.67	     8.602
  64.960         54.17	     8.062
  64.980         53.33	     8.000
  65.000         73.33	     9.381
