
Filename:
	C:\Program Files\Thermo Electron\WinXRD\Datafiles\F_HERMAN\GEO\G89_RT.raw

File Created:
	February 21, 2020 - 04:21 AM

Specimen Id:
	G89_RT

Specimen Name:
	

Specimen Description:
	

Comment:
Scan Type: 2Theta Scan
Start Angle: 3 deg.
Stop Angle: 65 deg.
Num Points: 3101
Step Size: 0.02 deg.
Scan Rate: 1.000000
Scan Mode: Continuous
Wavelength: 1.540562
\Kalpha1: 1.540562	\Kalpha2: 1.544390	\Kbeta: 1.392218

Optics:
		Detector:
			 Type: Fixed Slits
		Tube: 
			 Type: Fixed Slits


Datas:
 Pos [deg]       Rate [CPS]      ESD [-]

Range 1 ---> Iteration 1
   3.000        405.83	    22.068
   3.020        455.83	    23.388
   3.040        443.33	    23.065
   3.060        455.83	    23.388
   3.080        445.83	    23.130
   3.100        417.50	    22.383
   3.120        441.67	    23.022
   3.140        445.83	    23.130
   3.160        451.67	    23.281
   3.180        388.33	    21.587
   3.200        445.00	    23.108
   3.220        427.50	    22.650
   3.240        391.67	    21.679
   3.260        393.33	    21.726
   3.280        406.67	    22.091
   3.300        391.67	    21.679
   3.320        413.33	    22.271
   3.340        416.67	    22.361
   3.360        425.83	    22.605
   3.380        400.83	    21.932
   3.400        375.83	    21.237
   3.420        392.50	    21.703
   3.440        360.00	    20.785
   3.460        350.83	    20.518
   3.480        369.17	    21.048
   3.500        368.33	    21.024
   3.520        372.50	    21.142
   3.540        362.50	    20.857
   3.560        372.50	    21.142
   3.580        346.67	    20.396
   3.600        365.83	    20.952
   3.620        389.17	    21.610
   3.640        347.50	    20.421
   3.660        352.50	    20.567
   3.680        373.33	    21.166
   3.700        371.67	    21.119
   3.720        351.67	    20.543
   3.740        326.67	    19.799
   3.760        356.67	    20.688
   3.780        353.33	    20.591
   3.800        362.50	    20.857
   3.820        364.17	    20.905
   3.840        302.50	    19.053
   3.860        364.17	    20.905
   3.880        336.67	    20.100
   3.900        342.50	    20.273
   3.920        299.17	    18.947
   3.940        333.33	    20.000
   3.960        345.00	    20.347
   3.980        305.83	    19.157
   4.000        305.83	    19.157
   4.020        284.17	    18.466
   4.040        295.00	    18.815
   4.060        321.67	    19.647
   4.080        341.67	    20.248
   4.100        326.67	    19.799
   4.120        312.50	    19.365
   4.140        309.17	    19.261
   4.160        337.50	    20.125
   4.180        321.67	    19.647
   4.200        313.33	    19.391
   4.220        289.17	    18.628
   4.240        294.17	    18.788
   4.260        312.50	    19.365
   4.280        306.67	    19.183
   4.300        310.00	    19.287
   4.320        287.50	    18.574
   4.340        285.83	    18.520
   4.360        316.67	    19.494
   4.380        268.33	    17.944
   4.400        302.50	    19.053
   4.420        278.33	    18.276
   4.440        302.50	    19.053
   4.460        270.00	    18.000
   4.480        246.67	    17.205
   4.500        267.50	    17.916
   4.520        263.33	    17.776
   4.540        290.00	    18.655
   4.560        284.17	    18.466
   4.580        295.00	    18.815
   4.600        293.33	    18.762
   4.620        268.33	    17.944
   4.640        282.50	    18.412
   4.660        258.33	    17.607
   4.680        265.83	    17.861
   4.700        255.00	    17.493
   4.720        290.83	    18.682
   4.740        263.33	    17.776
   4.760        282.50	    18.412
   4.780        258.33	    17.607
   4.800        261.67	    17.720
   4.820        246.67	    17.205
   4.840        233.33	    16.733
   4.860        255.00	    17.493
   4.880        269.17	    17.972
   4.900        244.17	    17.117
   4.920        232.50	    16.703
   4.940        270.83	    18.028
   4.960        248.33	    17.263
   4.980        252.50	    17.407
   5.000        260.00	    17.664
   5.020        278.33	    18.276
   5.040        241.67	    17.029
   5.060        250.00	    17.321
   5.080        254.17	    17.464
   5.100        246.67	    17.205
   5.120        240.00	    16.971
   5.140        271.67	    18.055
   5.160        240.00	    16.971
   5.180        234.17	    16.763
   5.200        223.33	    16.371
   5.220        229.17	    16.583
   5.240        216.67	    16.125
   5.260        236.67	    16.852
   5.280        232.50	    16.703
   5.300        206.67	    15.748
   5.320        231.67	    16.673
   5.340        250.83	    17.349
   5.360        231.67	    16.673
   5.380        225.83	    16.462
   5.400        218.33	    16.186
   5.420        224.17	    16.401
   5.440        235.83	    16.823
   5.460        217.50	    16.155
   5.480        236.67	    16.852
   5.500        220.83	    16.279
   5.520        255.83	    17.521
   5.540        208.33	    15.811
   5.560        223.33	    16.371
   5.580        235.00	    16.793
   5.600        207.50	    15.780
   5.620        240.83	    17.000
   5.640        215.83	    16.093
   5.660        220.83	    16.279
   5.680        218.33	    16.186
   5.700        232.50	    16.703
   5.720        241.67	    17.029
   5.740        226.67	    16.492
   5.760        257.50	    17.578
   5.780        206.67	    15.748
   5.800        230.83	    16.643
   5.820        225.00	    16.432
   5.840        239.17	    16.941
   5.860        270.00	    18.000
   5.880        253.33	    17.436
   5.900        277.50	    18.248
   5.920        269.17	    17.972
   5.940        257.50	    17.578
   5.960        259.17	    17.635
   5.980        268.33	    17.944
   6.000        265.83	    17.861
   6.020        270.00	    18.000
   6.040        246.67	    17.205
   6.060        242.50	    17.059
   6.080        267.50	    17.916
   6.100        251.67	    17.378
   6.120        286.67	    18.547
   6.140        304.17	    19.105
   6.160        302.50	    19.053
   6.180        330.83	    19.925
   6.200        270.83	    18.028
   6.220        247.50	    17.234
   6.240        230.83	    16.643
   6.260        220.00	    16.248
   6.280        219.17	    16.217
   6.300        220.83	    16.279
   6.320        192.50	    15.199
   6.340        213.33	    16.000
   6.360        189.17	    15.067
   6.380        199.17	    15.460
   6.400        191.67	    15.166
   6.420        205.00	    15.684
   6.440        210.83	    15.906
   6.460        190.83	    15.133
   6.480        201.67	    15.556
   6.500        197.50	    15.395
   6.520        183.33	    14.832
   6.540        200.00	    15.492
   6.560        178.33	    14.629
   6.580        202.50	    15.588
   6.600        188.33	    15.033
   6.620        177.50	    14.595
   6.640        182.50	    14.799
   6.660        179.17	    14.663
   6.680        180.83	    14.731
   6.700        188.33	    15.033
   6.720        181.67	    14.765
   6.740        155.83	    13.675
   6.760        180.83	    14.731
   6.780        173.33	    14.422
   6.800        176.67	    14.560
   6.820        183.33	    14.832
   6.840        171.67	    14.353
   6.860        164.17	    14.036
   6.880        168.33	    14.213
   6.900        175.00	    14.491
   6.920        188.33	    15.033
   6.940        177.50	    14.595
   6.960        177.50	    14.595
   6.980        175.83	    14.526
   7.000        156.67	    13.711
   7.020        185.00	    14.900
   7.040        180.00	    14.697
   7.060        153.33	    13.565
   7.080        150.00	    13.416
   7.100        171.67	    14.353
   7.120        146.67	    13.266
   7.140        180.83	    14.731
   7.160        153.33	    13.565
   7.180        186.67	    14.967
   7.200        172.50	    14.387
   7.220        166.67	    14.142
   7.240        165.83	    14.107
   7.260        167.50	    14.177
   7.280        164.17	    14.036
   7.300        165.00	    14.071
   7.320        160.00	    13.856
   7.340        150.83	    13.454
   7.360        147.50	    13.304
   7.380        165.00	    14.071
   7.400        181.67	    14.765
   7.420        148.33	    13.342
   7.440        191.67	    15.166
   7.460        143.33	    13.115
   7.480        160.83	    13.892
   7.500        164.17	    14.036
   7.520        174.17	    14.457
   7.540        163.33	    14.000
   7.560        148.33	    13.342
   7.580        148.33	    13.342
   7.600        166.67	    14.142
   7.620        166.67	    14.142
   7.640        149.17	    13.379
   7.660        160.83	    13.892
   7.680        155.83	    13.675
   7.700        159.17	    13.820
   7.720        162.50	    13.964
   7.740        155.00	    13.638
   7.760        160.83	    13.892
   7.780        170.00	    14.283
   7.800        155.83	    13.675
   7.820        155.83	    13.675
   7.840        150.00	    13.416
   7.860        157.50	    13.748
   7.880        169.17	    14.248
   7.900        158.33	    13.784
   7.920        165.00	    14.071
   7.940        172.50	    14.387
   7.960        145.00	    13.191
   7.980        142.50	    13.077
   8.000        154.17	    13.601
   8.020        150.00	    13.416
   8.040        158.33	    13.784
   8.060        163.33	    14.000
   8.080        145.83	    13.229
   8.100        163.33	    14.000
   8.120        170.00	    14.283
   8.140        187.50	    15.000
   8.160        155.83	    13.675
   8.180        147.50	    13.304
   8.200        145.00	    13.191
   8.220        150.00	    13.416
   8.240        161.67	    13.928
   8.260        160.00	    13.856
   8.280        160.00	    13.856
   8.300        149.17	    13.379
   8.320        185.00	    14.900
   8.340        159.17	    13.820
   8.360        181.67	    14.765
   8.380        162.50	    13.964
   8.400        180.83	    14.731
   8.420        170.00	    14.283
   8.440        165.83	    14.107
   8.460        190.83	    15.133
   8.480        190.00	    15.100
   8.500        184.17	    14.866
   8.520        176.67	    14.560
   8.540        217.50	    16.155
   8.560        241.67	    17.029
   8.580        237.50	    16.882
   8.600        264.17	    17.804
   8.620        259.17	    17.635
   8.640        312.50	    19.365
   8.660        322.50	    19.672
   8.680        380.00	    21.354
   8.700        436.67	    22.891
   8.720        495.00	    24.372
   8.740        536.67	    25.377
   8.760        643.33	    27.785
   8.780        844.17	    31.828
   8.800       1062.50	    35.707
   8.820       1015.00	    34.900
   8.840        726.67	    29.530
   8.860        436.67	    22.891
   8.880        265.83	    17.861
   8.900        198.33	    15.427
   8.920        199.17	    15.460
   8.940        168.33	    14.213
   8.960        178.33	    14.629
   8.980        164.17	    14.036
   9.000        159.17	    13.820
   9.020        174.17	    14.457
   9.040        145.00	    13.191
   9.060        160.00	    13.856
   9.080        152.50	    13.528
   9.100        171.67	    14.353
   9.120        160.83	    13.892
   9.140        141.67	    13.038
   9.160        154.17	    13.601
   9.180        138.33	    12.884
   9.200        140.83	    13.000
   9.220        131.67	    12.570
   9.240        138.33	    12.884
   9.260        130.00	    12.490
   9.280        131.67	    12.570
   9.300        127.50	    12.369
   9.320        134.17	    12.689
   9.340        147.50	    13.304
   9.360        136.67	    12.806
   9.380        139.17	    12.923
   9.400        144.17	    13.153
   9.420        111.67	    11.576
   9.440        120.00	    12.000
   9.460        130.00	    12.490
   9.480        145.83	    13.229
   9.500        118.33	    11.916
   9.520        126.67	    12.329
   9.540        130.83	    12.530
   9.560        128.33	    12.410
   9.580        117.50	    11.874
   9.600        136.67	    12.806
   9.620        123.33	    12.166
   9.640        120.00	    12.000
   9.660        130.00	    12.490
   9.680        126.67	    12.329
   9.700        114.17	    11.705
   9.720        134.17	    12.689
   9.740        143.33	    13.115
   9.760        101.67	    11.045
   9.780        117.50	    11.874
   9.800        125.83	    12.288
   9.820        112.50	    11.619
   9.840        115.83	    11.790
   9.860        126.67	    12.329
   9.880        100.00	    10.954
   9.900        106.67	    11.314
   9.920        112.50	    11.619
   9.940        118.33	    11.916
   9.960        100.83	    11.000
   9.980        108.33	    11.402
  10.000         96.67	    10.770
  10.020        121.67	    12.083
  10.040        115.00	    11.747
  10.060        130.83	    12.530
  10.080        123.33	    12.166
  10.100        111.67	    11.576
  10.120        121.67	    12.083
  10.140        106.67	    11.314
  10.160         97.50	    10.817
  10.180        103.33	    11.136
  10.200        117.50	    11.874
  10.220        124.17	    12.207
  10.240        130.00	    12.490
  10.260        110.83	    11.533
  10.280        120.00	    12.000
  10.300         96.67	    10.770
  10.320        114.17	    11.705
  10.340        109.17	    11.446
  10.360        116.67	    11.832
  10.380        119.17	    11.958
  10.400        144.17	    13.153
  10.420        167.50	    14.177
  10.440        161.67	    13.928
  10.460        170.83	    14.318
  10.480        152.50	    13.528
  10.500        113.33	    11.662
  10.520        115.83	    11.790
  10.540        100.83	    11.000
  10.560         94.17	    10.630
  10.580        120.00	    12.000
  10.600        105.00	    11.225
  10.620         99.17	    10.909
  10.640        105.00	    11.225
  10.660        115.83	    11.790
  10.680        110.00	    11.489
  10.700        103.33	    11.136
  10.720        102.50	    11.091
  10.740         95.00	    10.677
  10.760        112.50	    11.619
  10.780        101.67	    11.045
  10.800         97.50	    10.817
  10.820        111.67	    11.576
  10.840        119.17	    11.958
  10.860        110.83	    11.533
  10.880        108.33	    11.402
  10.900        102.50	    11.091
  10.920         80.00	     9.798
  10.940        111.67	    11.576
  10.960         99.17	    10.909
  10.980         90.00	    10.392
  11.000        101.67	    11.045
  11.020         90.83	    10.440
  11.040        105.00	    11.225
  11.060        105.00	    11.225
  11.080        107.50	    11.358
  11.100         97.50	    10.817
  11.120        110.83	    11.533
  11.140        113.33	    11.662
  11.160        106.67	    11.314
  11.180        117.50	    11.874
  11.200         98.33	    10.863
  11.220        104.17	    11.180
  11.240         93.33	    10.583
  11.260        101.67	    11.045
  11.280        105.83	    11.269
  11.300        113.33	    11.662
  11.320         90.83	    10.440
  11.340        104.17	    11.180
  11.360         84.17	    10.050
  11.380         86.67	    10.198
  11.400         95.00	    10.677
  11.420        107.50	    11.358
  11.440        109.17	    11.446
  11.460         99.17	    10.909
  11.480        100.00	    10.954
  11.500        103.33	    11.136
  11.520         98.33	    10.863
  11.540        107.50	    11.358
  11.560         89.17	    10.344
  11.580        105.83	    11.269
  11.600        120.83	    12.042
  11.620        107.50	    11.358
  11.640        105.83	    11.269
  11.660         94.17	    10.630
  11.680        117.50	    11.874
  11.700        110.83	    11.533
  11.720        104.17	    11.180
  11.740        111.67	    11.576
  11.760         94.17	    10.630
  11.780         98.33	    10.863
  11.800         98.33	    10.863
  11.820         94.17	    10.630
  11.840        105.83	    11.269
  11.860        123.33	    12.166
  11.880        105.83	    11.269
  11.900        100.83	    11.000
  11.920        108.33	    11.402
  11.940        107.50	    11.358
  11.960        100.83	    11.000
  11.980         98.33	    10.863
  12.000        100.00	    10.954
  12.020        124.17	    12.207
  12.040        130.00	    12.490
  12.060        121.67	    12.083
  12.080        140.00	    12.961
  12.100        189.17	    15.067
  12.120        192.50	    15.199
  12.140        175.83	    14.526
  12.160        135.00	    12.728
  12.180        133.33	    12.649
  12.200        120.83	    12.042
  12.220        119.17	    11.958
  12.240        136.67	    12.806
  12.260        119.17	    11.958
  12.280        142.50	    13.077
  12.300        138.33	    12.884
  12.320        163.33	    14.000
  12.340        187.50	    15.000
  12.360        197.50	    15.395
  12.380        263.33	    17.776
  12.400        342.50	    20.273
  12.420        431.67	    22.760
  12.440        445.00	    23.108
  12.460        432.50	    22.782
  12.480        270.00	    18.000
  12.500        193.33	    15.232
  12.520        146.67	    13.266
  12.540        114.17	    11.705
  12.560         92.50	    10.536
  12.580         96.67	    10.770
  12.600        108.33	    11.402
  12.620         96.67	    10.770
  12.640         90.83	    10.440
  12.660         86.67	    10.198
  12.680        119.17	    11.958
  12.700        107.50	    11.358
  12.720         95.00	    10.677
  12.740         83.33	    10.000
  12.760        103.33	    11.136
  12.780         88.33	    10.296
  12.800         94.17	    10.630
  12.820         83.33	    10.000
  12.840         80.00	     9.798
  12.860         99.17	    10.909
  12.880         86.67	    10.198
  12.900         90.83	    10.440
  12.920         76.67	     9.592
  12.940         90.00	    10.392
  12.960         75.83	     9.539
  12.980         93.33	    10.583
  13.000         80.83	     9.849
  13.020         82.50	     9.950
  13.040         90.83	    10.440
  13.060         93.33	    10.583
  13.080         85.83	    10.149
  13.100         84.17	    10.050
  13.120         74.17	     9.434
  13.140         91.67	    10.488
  13.160         94.17	    10.630
  13.180         85.00	    10.100
  13.200         67.50	     9.000
  13.220         91.67	    10.488
  13.240         90.83	    10.440
  13.260         93.33	    10.583
  13.280        105.00	    11.225
  13.300         85.83	    10.149
  13.320         81.67	     9.899
  13.340         75.00	     9.487
  13.360         89.17	    10.344
  13.380         75.83	     9.539
  13.400         86.67	    10.198
  13.420         76.67	     9.592
  13.440         76.67	     9.592
  13.460         94.17	    10.630
  13.480         83.33	    10.000
  13.500        102.50	    11.091
  13.520         85.00	    10.100
  13.540         83.33	    10.000
  13.560         84.17	    10.050
  13.580         87.50	    10.247
  13.600         82.50	     9.950
  13.620         94.17	    10.630
  13.640         89.17	    10.344
  13.660         75.83	     9.539
  13.680         70.00	     9.165
  13.700         87.50	    10.247
  13.720         99.17	    10.909
  13.740         99.17	    10.909
  13.760        124.17	    12.207
  13.780        157.50	    13.748
  13.800        152.50	    13.528
  13.820        119.17	    11.958
  13.840         96.67	    10.770
  13.860        102.50	    11.091
  13.880         89.17	    10.344
  13.900         95.83	    10.724
  13.920         84.17	    10.050
  13.940         81.67	     9.899
  13.960         92.50	    10.536
  13.980        112.50	    11.619
  14.000         87.50	    10.247
  14.020         79.17	     9.747
  14.040         84.17	    10.050
  14.060         75.83	     9.539
  14.080         78.33	     9.695
  14.100         79.17	     9.747
  14.120         79.17	     9.747
  14.140         75.83	     9.539
  14.160         75.00	     9.487
  14.180         76.67	     9.592
  14.200         65.83	     8.888
  14.220         79.17	     9.747
  14.240         86.67	    10.198
  14.260         65.00	     8.832
  14.280         85.83	    10.149
  14.300         84.17	    10.050
  14.320         73.33	     9.381
  14.340         70.83	     9.220
  14.360         77.50	     9.644
  14.380         73.33	     9.381
  14.400         88.33	    10.296
  14.420         75.00	     9.487
  14.440         70.83	     9.220
  14.460         93.33	    10.583
  14.480         75.00	     9.487
  14.500         95.83	    10.724
  14.520         81.67	     9.899
  14.540         73.33	     9.381
  14.560         69.17	     9.110
  14.580         66.67	     8.944
  14.600         86.67	    10.198
  14.620         67.50	     9.000
  14.640         76.67	     9.592
  14.660         75.83	     9.539
  14.680         79.17	     9.747
  14.700         75.00	     9.487
  14.720         71.67	     9.274
  14.740         84.17	    10.050
  14.760         65.83	     8.888
  14.780         79.17	     9.747
  14.800         79.17	     9.747
  14.820         69.17	     9.110
  14.840         65.00	     8.832
  14.860         82.50	     9.950
  14.880         73.33	     9.381
  14.900         77.50	     9.644
  14.920         91.67	    10.488
  14.940         82.50	     9.950
  14.960         70.83	     9.220
  14.980         90.00	    10.392
  15.000         85.83	    10.149
  15.020         76.67	     9.592
  15.040         82.50	     9.950
  15.060         85.00	    10.100
  15.080         70.00	     9.165
  15.100         81.67	     9.899
  15.120         75.00	     9.487
  15.140         75.83	     9.539
  15.160         67.50	     9.000
  15.180         70.83	     9.220
  15.200         60.00	     8.485
  15.220         79.17	     9.747
  15.240         73.33	     9.381
  15.260         62.50	     8.660
  15.280         75.83	     9.539
  15.300         70.83	     9.220
  15.320         79.17	     9.747
  15.340         74.17	     9.434
  15.360         77.50	     9.644
  15.380         76.67	     9.592
  15.400         80.83	     9.849
  15.420         75.00	     9.487
  15.440         72.50	     9.327
  15.460         75.83	     9.539
  15.480         94.17	    10.630
  15.500         77.50	     9.644
  15.520         73.33	     9.381
  15.540         70.83	     9.220
  15.560         76.67	     9.592
  15.580         73.33	     9.381
  15.600         65.83	     8.888
  15.620         75.83	     9.539
  15.640         69.17	     9.110
  15.660         80.83	     9.849
  15.680         59.17	     8.426
  15.700         70.83	     9.220
  15.720         76.67	     9.592
  15.740         64.17	     8.775
  15.760         74.17	     9.434
  15.780         77.50	     9.644
  15.800         82.50	     9.950
  15.820         84.17	    10.050
  15.840         71.67	     9.274
  15.860         77.50	     9.644
  15.880         57.50	     8.307
  15.900         80.83	     9.849
  15.920         70.00	     9.165
  15.940         90.83	    10.440
  15.960         58.33	     8.367
  15.980         86.67	    10.198
  16.000         74.17	     9.434
  16.020         90.83	    10.440
  16.040         58.33	     8.367
  16.060         50.00	     7.746
  16.080         68.33	     9.055
  16.100         82.50	     9.950
  16.120         67.50	     9.000
  16.140         69.17	     9.110
  16.160         63.33	     8.718
  16.180         73.33	     9.381
  16.200         75.00	     9.487
  16.220         82.50	     9.950
  16.240         64.17	     8.775
  16.260         67.50	     9.000
  16.280         81.67	     9.899
  16.300         77.50	     9.644
  16.320         69.17	     9.110
  16.340         80.83	     9.849
  16.360         68.33	     9.055
  16.380         85.00	    10.100
  16.400         60.00	     8.485
  16.420         69.17	     9.110
  16.440         70.83	     9.220
  16.460         75.83	     9.539
  16.480         69.17	     9.110
  16.500         60.83	     8.544
  16.520         69.17	     9.110
  16.540         54.17	     8.062
  16.560         55.83	     8.185
  16.580         47.50	     7.550
  16.600         69.17	     9.110
  16.620         68.33	     9.055
  16.640         62.50	     8.660
  16.660         65.00	     8.832
  16.680         65.83	     8.888
  16.700         78.33	     9.695
  16.720         78.33	     9.695
  16.740         56.67	     8.246
  16.760         60.00	     8.485
  16.780         46.67	     7.483
  16.800         75.83	     9.539
  16.820         70.00	     9.165
  16.840         55.00	     8.124
  16.860         78.33	     9.695
  16.880         80.83	     9.849
  16.900         78.33	     9.695
  16.920         77.50	     9.644
  16.940         71.67	     9.274
  16.960         71.67	     9.274
  16.980         65.00	     8.832
  17.000         70.83	     9.220
  17.020         58.33	     8.367
  17.040         65.83	     8.888
  17.060         80.83	     9.849
  17.080         66.67	     8.944
  17.100         84.17	    10.050
  17.120         63.33	     8.718
  17.140         85.83	    10.149
  17.160         69.17	     9.110
  17.180         74.17	     9.434
  17.200         53.33	     8.000
  17.220         65.00	     8.832
  17.240         63.33	     8.718
  17.260         80.83	     9.849
  17.280         63.33	     8.718
  17.300         85.00	    10.100
  17.320         55.83	     8.185
  17.340         70.83	     9.220
  17.360         68.33	     9.055
  17.380         70.83	     9.220
  17.400         73.33	     9.381
  17.420         75.83	     9.539
  17.440         64.17	     8.775
  17.460         61.67	     8.602
  17.480         66.67	     8.944
  17.500         68.33	     9.055
  17.520         82.50	     9.950
  17.540         75.00	     9.487
  17.560         84.17	    10.050
  17.580         84.17	    10.050
  17.600         82.50	     9.950
  17.620         95.83	    10.724
  17.640        122.50	    12.124
  17.660        150.83	    13.454
  17.680        217.50	    16.155
  17.700        262.50	    17.748
  17.720        321.67	    19.647
  17.740        396.67	    21.817
  17.760        401.67	    21.954
  17.780        377.50	    21.284
  17.800        265.00	    17.833
  17.820        203.33	    15.620
  17.840        135.83	    12.767
  17.860        102.50	    11.091
  17.880         92.50	    10.536
  17.900         79.17	     9.747
  17.920         68.33	     9.055
  17.940         73.33	     9.381
  17.960         72.50	     9.327
  17.980         87.50	    10.247
  18.000         66.67	     8.944
  18.020         68.33	     9.055
  18.040         73.33	     9.381
  18.060         71.67	     9.274
  18.080         70.83	     9.220
  18.100         76.67	     9.592
  18.120         70.00	     9.165
  18.140         65.83	     8.888
  18.160         75.83	     9.539
  18.180         71.67	     9.274
  18.200         77.50	     9.644
  18.220         63.33	     8.718
  18.240         65.00	     8.832
  18.260         61.67	     8.602
  18.280         60.83	     8.544
  18.300         72.50	     9.327
  18.320         93.33	    10.583
  18.340         84.17	    10.050
  18.360        100.00	    10.954
  18.380         90.83	    10.440
  18.400         75.83	     9.539
  18.420         72.50	     9.327
  18.440         71.67	     9.274
  18.460         62.50	     8.660
  18.480         70.00	     9.165
  18.500         70.83	     9.220
  18.520        100.83	    11.000
  18.540         90.00	    10.392
  18.560         80.00	     9.798
  18.580         89.17	    10.344
  18.600         84.17	    10.050
  18.620        110.83	    11.533
  18.640         94.17	    10.630
  18.660        130.00	    12.490
  18.680        135.83	    12.767
  18.700        149.17	    13.379
  18.720        160.00	    13.856
  18.740        208.33	    15.811
  18.760        153.33	    13.565
  18.780        145.83	    13.229
  18.800        115.83	    11.790
  18.820        103.33	    11.136
  18.840         75.83	     9.539
  18.860         71.67	     9.274
  18.880         70.83	     9.220
  18.900         70.00	     9.165
  18.920         67.50	     9.000
  18.940         76.67	     9.592
  18.960         63.33	     8.718
  18.980         67.50	     9.000
  19.000         73.33	     9.381
  19.020         60.00	     8.485
  19.040         80.00	     9.798
  19.060         70.00	     9.165
  19.080         63.33	     8.718
  19.100         70.83	     9.220
  19.120         91.67	    10.488
  19.140         71.67	     9.274
  19.160         63.33	     8.718
  19.180         58.33	     8.367
  19.200         73.33	     9.381
  19.220         63.33	     8.718
  19.240         81.67	     9.899
  19.260         78.33	     9.695
  19.280         71.67	     9.274
  19.300         82.50	     9.950
  19.320         84.17	    10.050
  19.340         61.67	     8.602
  19.360         61.67	     8.602
  19.380         51.67	     7.874
  19.400         71.67	     9.274
  19.420         64.17	     8.775
  19.440         63.33	     8.718
  19.460         70.00	     9.165
  19.480         75.83	     9.539
  19.500         69.17	     9.110
  19.520         71.67	     9.274
  19.540         69.17	     9.110
  19.560         71.67	     9.274
  19.580         59.17	     8.426
  19.600         75.83	     9.539
  19.620         85.83	    10.149
  19.640         76.67	     9.592
  19.660         85.00	    10.100
  19.680         80.83	     9.849
  19.700         95.83	    10.724
  19.720         83.33	    10.000
  19.740         90.83	    10.440
  19.760         90.83	    10.440
  19.780         90.00	    10.392
  19.800         99.17	    10.909
  19.820         98.33	    10.863
  19.840        105.00	    11.225
  19.860         92.50	    10.536
  19.880        100.00	    10.954
  19.900         79.17	     9.747
  19.920         90.83	    10.440
  19.940         71.67	     9.274
  19.960         75.83	     9.539
  19.980         74.17	     9.434
  20.000         71.67	     9.274
  20.020         85.83	    10.149
  20.040         64.17	     8.775
  20.060         80.00	     9.798
  20.080         89.17	    10.344
  20.100         70.00	     9.165
  20.120         85.83	    10.149
  20.140         60.00	     8.485
  20.160         71.67	     9.274
  20.180         63.33	     8.718
  20.200         64.17	     8.775
  20.220         72.50	     9.327
  20.240         58.33	     8.367
  20.260         67.50	     9.000
  20.280         69.17	     9.110
  20.300         70.83	     9.220
  20.320         65.83	     8.888
  20.340         68.33	     9.055
  20.360         65.00	     8.832
  20.380         75.83	     9.539
  20.400         66.67	     8.944
  20.420         65.00	     8.832
  20.440         70.00	     9.165
  20.460         62.50	     8.660
  20.480         55.83	     8.185
  20.500         74.17	     9.434
  20.520         70.00	     9.165
  20.540         70.83	     9.220
  20.560         95.00	    10.677
  20.580         90.83	    10.440
  20.600         82.50	     9.950
  20.620         92.50	    10.536
  20.640         99.17	    10.909
  20.660         95.00	    10.677
  20.680        122.50	    12.124
  20.700        168.33	    14.213
  20.720        230.83	    16.643
  20.740        379.17	    21.331
  20.760        710.00	    29.189
  20.780       1060.83	    35.679
  20.800        965.83	    34.044
  20.820        763.33	    30.265
  20.840        593.33	    26.683
  20.860        447.50	    23.173
  20.880        194.17	    15.264
  20.900        150.00	    13.416
  20.920        143.33	    13.115
  20.940        172.50	    14.387
  20.960        134.17	    12.689
  20.980        122.50	    12.124
  21.000        125.83	    12.288
  21.020         87.50	    10.247
  21.040         91.67	    10.488
  21.060         80.83	     9.849
  21.080         90.00	    10.392
  21.100         78.33	     9.695
  21.120         70.83	     9.220
  21.140         65.00	     8.832
  21.160         60.83	     8.544
  21.180         58.33	     8.367
  21.200         47.50	     7.550
  21.220         61.67	     8.602
  21.240         66.67	     8.944
  21.260         54.17	     8.062
  21.280         68.33	     9.055
  21.300         70.83	     9.220
  21.320         67.50	     9.000
  21.340         63.33	     8.718
  21.360         62.50	     8.660
  21.380         66.67	     8.944
  21.400         65.83	     8.888
  21.420         68.33	     9.055
  21.440         62.50	     8.660
  21.460         54.17	     8.062
  21.480         67.50	     9.000
  21.500         65.00	     8.832
  21.520         67.50	     9.000
  21.540         74.17	     9.434
  21.560         64.17	     8.775
  21.580         58.33	     8.367
  21.600         58.33	     8.367
  21.620         61.67	     8.602
  21.640         74.17	     9.434
  21.660         71.67	     9.274
  21.680         55.83	     8.185
  21.700         62.50	     8.660
  21.720         60.83	     8.544
  21.740         64.17	     8.775
  21.760         70.00	     9.165
  21.780         56.67	     8.246
  21.800         64.17	     8.775
  21.820         64.17	     8.775
  21.840         60.00	     8.485
  21.860         80.00	     9.798
  21.880        117.50	    11.874
  21.900        119.17	    11.958
  21.920        172.50	    14.387
  21.940        185.00	    14.900
  21.960        210.00	    15.875
  21.980        184.17	    14.866
  22.000        155.00	    13.638
  22.020        146.67	    13.266
  22.040        129.17	    12.450
  22.060         95.83	    10.724
  22.080         75.83	     9.539
  22.100         77.50	     9.644
  22.120         69.17	     9.110
  22.140         59.17	     8.426
  22.160         71.67	     9.274
  22.180         59.17	     8.426
  22.200         57.50	     8.307
  22.220         69.17	     9.110
  22.240         57.50	     8.307
  22.260         63.33	     8.718
  22.280         65.00	     8.832
  22.300         74.17	     9.434
  22.320         74.17	     9.434
  22.340         70.83	     9.220
  22.360         81.67	     9.899
  22.380         75.00	     9.487
  22.400         50.83	     7.810
  22.420         76.67	     9.592
  22.440         70.83	     9.220
  22.460         59.17	     8.426
  22.480         71.67	     9.274
  22.500         63.33	     8.718
  22.520         84.17	    10.050
  22.540         62.50	     8.660
  22.560         52.50	     7.937
  22.580         75.00	     9.487
  22.600         64.17	     8.775
  22.620         74.17	     9.434
  22.640         75.83	     9.539
  22.660         60.00	     8.485
  22.680         50.83	     7.810
  22.700         58.33	     8.367
  22.720         75.83	     9.539
  22.740         62.50	     8.660
  22.760         85.00	    10.100
  22.780         89.17	    10.344
  22.800        100.83	    11.000
  22.820         80.83	     9.849
  22.840         97.50	    10.817
  22.860        108.33	    11.402
  22.880         96.67	    10.770
  22.900        100.83	    11.000
  22.920        109.17	    11.446
  22.940        109.17	    11.446
  22.960        125.83	    12.288
  22.980        125.00	    12.247
  23.000         96.67	    10.770
  23.020        100.83	    11.000
  23.040         89.17	    10.344
  23.060         84.17	    10.050
  23.080         72.50	     9.327
  23.100         53.33	     8.000
  23.120         71.67	     9.274
  23.140         68.33	     9.055
  23.160         78.33	     9.695
  23.180         63.33	     8.718
  23.200         52.50	     7.937
  23.220         62.50	     8.660
  23.240         65.00	     8.832
  23.260         54.17	     8.062
  23.280         62.50	     8.660
  23.300         60.00	     8.485
  23.320         59.17	     8.426
  23.340         75.00	     9.487
  23.360         85.00	    10.100
  23.380         74.17	     9.434
  23.400         90.83	    10.440
  23.420        100.00	    10.954
  23.440        120.00	    12.000
  23.460        130.83	    12.530
  23.480        161.67	    13.928
  23.500        127.50	    12.369
  23.520        121.67	    12.083
  23.540        113.33	    11.662
  23.560        109.17	    11.446
  23.580         95.83	    10.724
  23.600         85.83	    10.149
  23.620         85.83	    10.149
  23.640         73.33	     9.381
  23.660         70.00	     9.165
  23.680         90.00	    10.392
  23.700         93.33	    10.583
  23.720        109.17	    11.446
  23.740        115.00	    11.747
  23.760        101.67	    11.045
  23.780        103.33	    11.136
  23.800        110.83	    11.533
  23.820        102.50	    11.091
  23.840         96.67	    10.770
  23.860         86.67	    10.198
  23.880        106.67	    11.314
  23.900         79.17	     9.747
  23.920        100.83	    11.000
  23.940        129.17	    12.450
  23.960        140.00	    12.961
  23.980        116.67	    11.832
  24.000        101.67	    11.045
  24.020        103.33	    11.136
  24.040        101.67	    11.045
  24.060        106.67	    11.314
  24.080        123.33	    12.166
  24.100        128.33	    12.410
  24.120        137.50	    12.845
  24.140        120.83	    12.042
  24.160        136.67	    12.806
  24.180        152.50	    13.528
  24.200        165.83	    14.107
  24.220        154.17	    13.601
  24.240        159.17	    13.820
  24.260        134.17	    12.689
  24.280        110.83	    11.533
  24.300         98.33	    10.863
  24.320        111.67	    11.576
  24.340         88.33	    10.296
  24.360         75.83	     9.539
  24.380         83.33	    10.000
  24.400         88.33	    10.296
  24.420         86.67	    10.198
  24.440         83.33	    10.000
  24.460         81.67	     9.899
  24.480         83.33	    10.000
  24.500        113.33	    11.662
  24.520        117.50	    11.874
  24.540        121.67	    12.083
  24.560        115.83	    11.790
  24.580        132.50	    12.610
  24.600        113.33	    11.662
  24.620        110.00	    11.489
  24.640        146.67	    13.266
  24.660        119.17	    11.958
  24.680         82.50	     9.950
  24.700         95.83	    10.724
  24.720         81.67	     9.899
  24.740         95.00	    10.677
  24.760         75.83	     9.539
  24.780         89.17	    10.344
  24.800         86.67	    10.198
  24.820         73.33	     9.381
  24.840         95.83	    10.724
  24.860         80.00	     9.798
  24.880         78.33	     9.695
  24.900         94.17	    10.630
  24.920        102.50	    11.091
  24.940        104.17	    11.180
  24.960        143.33	    13.115
  24.980        125.83	    12.288
  25.000        146.67	    13.266
  25.020        168.33	    14.213
  25.040        206.67	    15.748
  25.060        266.67	    17.889
  25.080        332.50	    19.975
  25.100        410.00	    22.181
  25.120        374.17	    21.190
  25.140        297.50	    18.894
  25.160        256.67	    17.550
  25.180        237.50	    16.882
  25.200        150.83	    13.454
  25.220        135.83	    12.767
  25.240        115.00	    11.747
  25.260        125.00	    12.247
  25.280        117.50	    11.874
  25.300        135.00	    12.728
  25.320        135.83	    12.767
  25.340        144.17	    13.153
  25.360        145.83	    13.229
  25.380        190.83	    15.133
  25.400        185.00	    14.900
  25.420        212.50	    15.969
  25.440        221.67	    16.310
  25.460        191.67	    15.166
  25.480        178.33	    14.629
  25.500        148.33	    13.342
  25.520        146.67	    13.266
  25.540        133.33	    12.649
  25.560        134.17	    12.689
  25.580        132.50	    12.610
  25.600        125.83	    12.288
  25.620        135.83	    12.767
  25.640        109.17	    11.446
  25.660        118.33	    11.916
  25.680         97.50	    10.817
  25.700         85.00	    10.100
  25.720         85.83	    10.149
  25.740         80.00	     9.798
  25.760        109.17	    11.446
  25.780         94.17	    10.630
  25.800         98.33	    10.863
  25.820         80.83	     9.849
  25.840         70.83	     9.220
  25.860         88.33	    10.296
  25.880         95.83	    10.724
  25.900         77.50	     9.644
  25.920         80.83	     9.849
  25.940         80.00	     9.798
  25.960         85.00	    10.100
  25.980         83.33	    10.000
  26.000         87.50	    10.247
  26.020        103.33	    11.136
  26.040         88.33	    10.296
  26.060         84.17	    10.050
  26.080         86.67	    10.198
  26.100         72.50	     9.327
  26.120        106.67	    11.314
  26.140        120.00	    12.000
  26.160         89.17	    10.344
  26.180        104.17	    11.180
  26.200        111.67	    11.576
  26.220        153.33	    13.565
  26.240        152.50	    13.528
  26.260        148.33	    13.342
  26.280        161.67	    13.928
  26.300        195.00	    15.297
  26.320        223.33	    16.371
  26.340        250.83	    17.349
  26.360        293.33	    18.762
  26.380        327.50	    19.824
  26.400        320.00	    19.596
  26.420        386.67	    21.541
  26.440        415.83	    22.338
  26.460        475.00	    23.875
  26.480        639.17	    27.695
  26.500        997.50	    34.598
  26.520       1855.83	    47.191
  26.540       3666.67	    66.332
  26.560       4724.17	    75.293
  26.580       3710.00	    66.723
  26.600       2717.50	    57.105
  26.620       2623.33	    56.107
  26.640       2108.33	    50.299
  26.660       1323.33	    39.850
  26.680        718.33	    29.360
  26.700        584.17	    26.476
  26.720        713.33	    29.257
  26.740        934.17	    33.481
  26.760       1041.67	    35.355
  26.780       1084.17	    36.069
  26.800       1282.50	    39.230
  26.820       1091.67	    36.194
  26.840        925.00	    33.317
  26.860        710.83	    29.206
  26.880        619.17	    27.258
  26.900        473.33	    23.833
  26.920        334.17	    20.025
  26.940        230.00	    16.613
  26.960        181.67	    14.765
  26.980        150.00	    13.416
  27.000        145.83	    13.229
  27.020        133.33	    12.649
  27.040        139.17	    12.923
  27.060         99.17	    10.909
  27.080         98.33	    10.863
  27.100        104.17	    11.180
  27.120        119.17	    11.958
  27.140        110.00	    11.489
  27.160        110.00	    11.489
  27.180        120.00	    12.000
  27.200        134.17	    12.689
  27.220        132.50	    12.610
  27.240        117.50	    11.874
  27.260        113.33	    11.662
  27.280        123.33	    12.166
  27.300        100.00	    10.954
  27.320         99.17	    10.909
  27.340        145.00	    13.191
  27.360        145.83	    13.229
  27.380        173.33	    14.422
  27.400        201.67	    15.556
  27.420        214.17	    16.031
  27.440        220.00	    16.248
  27.460        210.83	    15.906
  27.480        154.17	    13.601
  27.500        157.50	    13.748
  27.520        144.17	    13.153
  27.540        118.33	    11.916
  27.560        138.33	    12.884
  27.580        119.17	    11.958
  27.600        155.83	    13.675
  27.620        203.33	    15.620
  27.640        249.17	    17.292
  27.660        295.00	    18.815
  27.680        294.17	    18.788
  27.700        341.67	    20.248
  27.720        349.17	    20.469
  27.740        334.17	    20.025
  27.760        330.83	    19.925
  27.780        350.83	    20.518
  27.800        480.00	    24.000
  27.820        545.83	    25.593
  27.840        530.83	    25.239
  27.860        450.00	    23.238
  27.880        402.50	    21.977
  27.900        440.83	    23.000
  27.920        345.00	    20.347
  27.940        310.00	    19.287
  27.960        255.00	    17.493
  27.980        200.00	    15.492
  28.000        178.33	    14.629
  28.020        220.83	    16.279
  28.040        196.67	    15.362
  28.060        163.33	    14.000
  28.080        155.83	    13.675
  28.100        165.00	    14.071
  28.120        155.00	    13.638
  28.140        134.17	    12.689
  28.160        110.00	    11.489
  28.180        135.83	    12.767
  28.200        155.00	    13.638
  28.220        165.00	    14.071
  28.240        167.50	    14.177
  28.260        158.33	    13.784
  28.280        123.33	    12.166
  28.300        128.33	    12.410
  28.320         97.50	    10.817
  28.340         97.50	    10.817
  28.360        123.33	    12.166
  28.380         85.00	    10.100
  28.400         95.00	    10.677
  28.420        110.00	    11.489
  28.440        100.00	    10.954
  28.460        100.00	    10.954
  28.480        130.83	    12.530
  28.500        144.17	    13.153
  28.520        142.50	    13.077
  28.540        154.17	    13.601
  28.560        150.00	    13.416
  28.580        130.83	    12.530
  28.600        112.50	    11.619
  28.620        119.17	    11.958
  28.640         97.50	    10.817
  28.660         90.83	    10.440
  28.680        111.67	    11.576
  28.700         91.67	    10.488
  28.720         75.83	     9.539
  28.740         80.83	     9.849
  28.760         75.83	     9.539
  28.780         75.83	     9.539
  28.800         75.83	     9.539
  28.820         65.83	     8.888
  28.840         66.67	     8.944
  28.860         80.83	     9.849
  28.880         66.67	     8.944
  28.900         73.33	     9.381
  28.920         64.17	     8.775
  28.940         57.50	     8.307
  28.960         55.83	     8.185
  28.980         53.33	     8.000
  29.000         64.17	     8.775
  29.020         46.67	     7.483
  29.040         60.00	     8.485
  29.060         63.33	     8.718
  29.080         43.33	     7.211
  29.100         53.33	     8.000
  29.120         69.17	     9.110
  29.140         55.00	     8.124
  29.160         45.00	     7.348
  29.180         55.00	     8.124
  29.200         57.50	     8.307
  29.220         55.00	     8.124
  29.240         62.50	     8.660
  29.260         46.67	     7.483
  29.280         55.00	     8.124
  29.300         63.33	     8.718
  29.320         66.67	     8.944
  29.340         59.17	     8.426
  29.360         66.67	     8.944
  29.380         55.00	     8.124
  29.400         69.17	     9.110
  29.420         75.83	     9.539
  29.440         59.17	     8.426
  29.460         65.83	     8.888
  29.480         61.67	     8.602
  29.500         66.67	     8.944
  29.520         54.17	     8.062
  29.540         60.00	     8.485
  29.560         66.67	     8.944
  29.580         65.00	     8.832
  29.600         73.33	     9.381
  29.620         85.00	    10.100
  29.640         82.50	     9.950
  29.660        111.67	    11.576
  29.680        131.67	    12.570
  29.700        127.50	    12.369
  29.720        150.00	    13.416
  29.740        178.33	    14.629
  29.760        157.50	    13.748
  29.780        148.33	    13.342
  29.800        165.00	    14.071
  29.820        190.00	    15.100
  29.840        158.33	    13.784
  29.860        143.33	    13.115
  29.880        143.33	    13.115
  29.900        144.17	    13.153
  29.920        126.67	    12.329
  29.940         75.00	     9.487
  29.960        113.33	    11.662
  29.980        112.50	    11.619
  30.000        104.17	    11.180
  30.020        100.83	    11.000
  30.040        108.33	    11.402
  30.060         95.00	    10.677
  30.080        101.67	    11.045
  30.100        120.83	    12.042
  30.120        105.83	    11.269
  30.140        123.33	    12.166
  30.160         95.83	    10.724
  30.180        108.33	    11.402
  30.200         91.67	    10.488
  30.220         93.33	    10.583
  30.240         92.50	    10.536
  30.260         94.17	    10.630
  30.280        120.00	    12.000
  30.300        115.00	    11.747
  30.320         98.33	    10.863
  30.340        116.67	    11.832
  30.360        140.00	    12.961
  30.380        137.50	    12.845
  30.400        154.17	    13.601
  30.420        128.33	    12.410
  30.440        122.50	    12.124
  30.460         99.17	    10.909
  30.480         90.83	    10.440
  30.500         90.83	    10.440
  30.520         97.50	    10.817
  30.540         80.00	     9.798
  30.560         60.83	     8.544
  30.580         62.50	     8.660
  30.600         53.33	     8.000
  30.620         64.17	     8.775
  30.640         80.00	     9.798
  30.660         75.83	     9.539
  30.680         78.33	     9.695
  30.700         90.83	    10.440
  30.720         90.83	    10.440
  30.740         75.83	     9.539
  30.760         90.00	    10.392
  30.780        113.33	    11.662
  30.800        110.00	    11.489
  30.820         77.50	     9.644
  30.840         73.33	     9.381
  30.860         79.17	     9.747
  30.880         65.00	     8.832
  30.900         68.33	     9.055
  30.920         54.17	     8.062
  30.940         70.00	     9.165
  30.960         72.50	     9.327
  30.980         77.50	     9.644
  31.000         87.50	    10.247
  31.020         77.50	     9.644
  31.040         82.50	     9.950
  31.060         83.33	    10.000
  31.080         91.67	    10.488
  31.100        100.83	    11.000
  31.120        131.67	    12.570
  31.140        134.17	    12.689
  31.160        149.17	    13.379
  31.180        156.67	    13.711
  31.200        135.00	    12.728
  31.220        137.50	    12.845
  31.240        133.33	    12.649
  31.260        100.83	    11.000
  31.280        105.83	    11.269
  31.300        103.33	    11.136
  31.320         99.17	    10.909
  31.340         93.33	    10.583
  31.360         85.00	    10.100
  31.380         86.67	    10.198
  31.400         88.33	    10.296
  31.420         74.17	     9.434
  31.440         67.50	     9.000
  31.460         82.50	     9.950
  31.480         82.50	     9.950
  31.500        111.67	    11.576
  31.520         93.33	    10.583
  31.540         91.67	    10.488
  31.560        120.00	    12.000
  31.580         96.67	    10.770
  31.600         82.50	     9.950
  31.620         70.00	     9.165
  31.640         70.83	     9.220
  31.660         82.50	     9.950
  31.680         70.00	     9.165
  31.700         44.17	     7.280
  31.720         64.17	     8.775
  31.740         66.67	     8.944
  31.760         55.83	     8.185
  31.780         63.33	     8.718
  31.800         50.00	     7.746
  31.820         72.50	     9.327
  31.840         68.33	     9.055
  31.860         65.83	     8.888
  31.880         81.67	     9.899
  31.900         76.67	     9.592
  31.920         87.50	    10.247
  31.940         95.83	    10.724
  31.960        105.83	    11.269
  31.980        116.67	    11.832
  32.000        137.50	    12.845
  32.020        127.50	    12.369
  32.040        136.67	    12.806
  32.060        127.50	    12.369
  32.080        116.67	    11.832
  32.100        101.67	    11.045
  32.120         78.33	     9.695
  32.140         95.00	    10.677
  32.160         75.00	     9.487
  32.180         70.83	     9.220
  32.200         43.33	     7.211
  32.220         65.83	     8.888
  32.240         64.17	     8.775
  32.260         47.50	     7.550
  32.280         50.83	     7.810
  32.300         55.83	     8.185
  32.320         55.83	     8.185
  32.340         58.33	     8.367
  32.360         60.83	     8.544
  32.380         36.67	     6.633
  32.400         54.17	     8.062
  32.420         49.17	     7.681
  32.440         46.67	     7.483
  32.460         41.67	     7.071
  32.480         53.33	     8.000
  32.500         55.83	     8.185
  32.520         32.50	     6.245
  32.540         50.83	     7.810
  32.560         54.17	     8.062
  32.580         57.50	     8.307
  32.600         51.67	     7.874
  32.620         47.50	     7.550
  32.640         37.50	     6.708
  32.660         41.67	     7.071
  32.680         50.83	     7.810
  32.700         45.00	     7.348
  32.720         50.00	     7.746
  32.740         47.50	     7.550
  32.760         40.83	     7.000
  32.780         49.17	     7.681
  32.800         50.00	     7.746
  32.820         58.33	     8.367
  32.840         50.00	     7.746
  32.860         49.17	     7.681
  32.880         55.00	     8.124
  32.900         70.83	     9.220
  32.920         60.83	     8.544
  32.940         71.67	     9.274
  32.960         84.17	    10.050
  32.980         70.00	     9.165
  33.000         57.50	     8.307
  33.020         65.83	     8.888
  33.040         65.00	     8.832
  33.060         65.00	     8.832
  33.080         75.00	     9.487
  33.100         55.83	     8.185
  33.120         50.83	     7.810
  33.140         53.33	     8.000
  33.160         55.83	     8.185
  33.180         54.17	     8.062
  33.200         55.00	     8.124
  33.220         46.67	     7.483
  33.240         55.00	     8.124
  33.260         47.50	     7.550
  33.280         41.67	     7.071
  33.300         54.17	     8.062
  33.320         59.17	     8.426
  33.340         62.50	     8.660
  33.360         60.83	     8.544
  33.380         50.83	     7.810
  33.400         45.00	     7.348
  33.420         47.50	     7.550
  33.440         48.33	     7.616
  33.460         59.17	     8.426
  33.480         55.00	     8.124
  33.500         46.67	     7.483
  33.520         49.17	     7.681
  33.540         50.83	     7.810
  33.560         44.17	     7.280
  33.580         50.83	     7.810
  33.600         43.33	     7.211
  33.620         45.00	     7.348
  33.640         56.67	     8.246
  33.660         44.17	     7.280
  33.680         48.33	     7.616
  33.700         44.17	     7.280
  33.720         59.17	     8.426
  33.740         55.83	     8.185
  33.760         60.83	     8.544
  33.780         40.00	     6.928
  33.800         57.50	     8.307
  33.820         63.33	     8.718
  33.840         75.00	     9.487
  33.860         70.83	     9.220
  33.880         69.17	     9.110
  33.900         46.67	     7.483
  33.920         61.67	     8.602
  33.940         66.67	     8.944
  33.960         63.33	     8.718
  33.980         58.33	     8.367
  34.000         66.67	     8.944
  34.020         70.00	     9.165
  34.040         70.83	     9.220
  34.060         57.50	     8.307
  34.080         67.50	     9.000
  34.100         56.67	     8.246
  34.120         60.83	     8.544
  34.140         65.83	     8.888
  34.160         55.00	     8.124
  34.180         46.67	     7.483
  34.200         50.83	     7.810
  34.220         59.17	     8.426
  34.240         65.83	     8.888
  34.260         61.67	     8.602
  34.280         58.33	     8.367
  34.300         58.33	     8.367
  34.320         70.83	     9.220
  34.340         64.17	     8.775
  34.360         84.17	    10.050
  34.380         80.00	     9.798
  34.400         90.00	    10.392
  34.420         94.17	    10.630
  34.440         84.17	    10.050
  34.460         94.17	    10.630
  34.480         93.33	    10.583
  34.500         87.50	    10.247
  34.520         96.67	    10.770
  34.540         82.50	     9.950
  34.560         72.50	     9.327
  34.580         75.00	     9.487
  34.600         85.00	    10.100
  34.620         80.83	     9.849
  34.640         78.33	     9.695
  34.660         80.00	     9.798
  34.680         67.50	     9.000
  34.700         72.50	     9.327
  34.720         81.67	     9.899
  34.740         81.67	     9.899
  34.760        101.67	    11.045
  34.780        106.67	    11.314
  34.800        115.00	    11.747
  34.820        112.50	    11.619
  34.840        111.67	    11.576
  34.860        140.83	    13.000
  34.880        148.33	    13.342
  34.900        150.00	    13.416
  34.920        229.17	    16.583
  34.940        230.83	    16.643
  34.960        265.83	    17.861
  34.980        196.67	    15.362
  35.000        180.00	    14.697
  35.020        173.33	    14.422
  35.040        175.83	    14.526
  35.060        151.67	    13.491
  35.080        130.83	    12.530
  35.100         97.50	    10.817
  35.120         94.17	    10.630
  35.140         95.83	    10.724
  35.160         82.50	     9.950
  35.180         85.00	    10.100
  35.200         72.50	     9.327
  35.220         77.50	     9.644
  35.240         80.00	     9.798
  35.260         70.00	     9.165
  35.280         64.17	     8.775
  35.300         67.50	     9.000
  35.320         65.83	     8.888
  35.340         83.33	    10.000
  35.360         70.00	     9.165
  35.380         76.67	     9.592
  35.400         77.50	     9.644
  35.420         82.50	     9.950
  35.440         63.33	     8.718
  35.460         67.50	     9.000
  35.480         66.67	     8.944
  35.500         78.33	     9.695
  35.520         71.67	     9.274
  35.540         80.00	     9.798
  35.560         65.00	     8.832
  35.580         87.50	    10.247
  35.600         73.33	     9.381
  35.620         87.50	    10.247
  35.640         64.17	     8.775
  35.660         74.17	     9.434
  35.680         66.67	     8.944
  35.700         77.50	     9.644
  35.720         94.17	    10.630
  35.740         87.50	    10.247
  35.760         86.67	    10.198
  35.780         74.17	     9.434
  35.800         80.83	     9.849
  35.820         71.67	     9.274
  35.840         69.17	     9.110
  35.860         68.33	     9.055
  35.880         69.17	     9.110
  35.900         77.50	     9.644
  35.920         80.00	     9.798
  35.940         97.50	    10.817
  35.960         97.50	    10.817
  35.980        103.33	    11.136
  36.000        139.17	    12.923
  36.020        135.00	    12.728
  36.040        147.50	    13.304
  36.060        124.17	    12.207
  36.080        105.83	    11.269
  36.100         96.67	    10.770
  36.120         96.67	    10.770
  36.140         90.83	    10.440
  36.160         86.67	    10.198
  36.180         75.83	     9.539
  36.200         69.17	     9.110
  36.220         85.00	    10.100
  36.240         53.33	     8.000
  36.260         71.67	     9.274
  36.280         70.83	     9.220
  36.300         64.17	     8.775
  36.320         62.50	     8.660
  36.340         80.00	     9.798
  36.360         72.50	     9.327
  36.380         96.67	    10.770
  36.400        110.83	    11.533
  36.420        192.50	    15.199
  36.440        245.83	    17.176
  36.460        309.17	    19.261
  36.480        282.50	    18.412
  36.500        242.50	    17.059
  36.520        173.33	    14.422
  36.540        197.50	    15.395
  36.560        220.00	    16.248
  36.580        172.50	    14.387
  36.600        140.00	    12.961
  36.620         97.50	    10.817
  36.640        116.67	    11.832
  36.660         93.33	    10.583
  36.680         82.50	     9.950
  36.700         71.67	     9.274
  36.720         63.33	     8.718
  36.740         81.67	     9.899
  36.760         80.83	     9.849
  36.780         60.00	     8.485
  36.800         70.00	     9.165
  36.820         51.67	     7.874
  36.840         60.00	     8.485
  36.860         62.50	     8.660
  36.880         66.67	     8.944
  36.900         59.17	     8.426
  36.920         72.50	     9.327
  36.940         66.67	     8.944
  36.960         58.33	     8.367
  36.980         60.83	     8.544
  37.000         53.33	     8.000
  37.020         59.17	     8.426
  37.040         60.83	     8.544
  37.060         60.83	     8.544
  37.080         62.50	     8.660
  37.100         56.67	     8.246
  37.120         53.33	     8.000
  37.140         65.00	     8.832
  37.160         56.67	     8.246
  37.180         55.83	     8.185
  37.200         60.00	     8.485
  37.220         58.33	     8.367
  37.240         85.00	    10.100
  37.260         77.50	     9.644
  37.280         69.17	     9.110
  37.300         75.83	     9.539
  37.320         84.17	    10.050
  37.340         75.83	     9.539
  37.360         73.33	     9.381
  37.380         61.67	     8.602
  37.400         72.50	     9.327
  37.420         84.17	    10.050
  37.440         65.00	     8.832
  37.460         84.17	    10.050
  37.480         70.83	     9.220
  37.500         63.33	     8.718
  37.520         91.67	    10.488
  37.540         76.67	     9.592
  37.560         88.33	    10.296
  37.580        105.83	    11.269
  37.600         89.17	    10.344
  37.620         96.67	    10.770
  37.640         87.50	    10.247
  37.660         83.33	    10.000
  37.680         88.33	    10.296
  37.700         85.83	    10.149
  37.720         83.33	    10.000
  37.740         62.50	     8.660
  37.760         61.67	     8.602
  37.780         53.33	     8.000
  37.800         57.50	     8.307
  37.820         60.00	     8.485
  37.840         55.00	     8.124
  37.860         45.00	     7.348
  37.880         36.67	     6.633
  37.900         39.17	     6.856
  37.920         35.00	     6.481
  37.940         53.33	     8.000
  37.960         37.50	     6.708
  37.980         50.00	     7.746
  38.000         32.50	     6.245
  38.020         49.17	     7.681
  38.040         44.17	     7.280
  38.060         41.67	     7.071
  38.080         48.33	     7.616
  38.100         42.50	     7.141
  38.120         43.33	     7.211
  38.140         45.00	     7.348
  38.160         45.83	     7.416
  38.180         45.83	     7.416
  38.200         35.00	     6.481
  38.220         35.00	     6.481
  38.240         34.17	     6.403
  38.260         37.50	     6.708
  38.280         35.00	     6.481
  38.300         38.33	     6.782
  38.320         39.17	     6.856
  38.340         40.00	     6.928
  38.360         50.83	     7.810
  38.380         55.00	     8.124
  38.400         41.67	     7.071
  38.420         34.17	     6.403
  38.440         36.67	     6.633
  38.460         51.67	     7.874
  38.480         47.50	     7.550
  38.500         45.00	     7.348
  38.520         50.83	     7.810
  38.540         60.83	     8.544
  38.560         52.50	     7.937
  38.580         60.00	     8.485
  38.600         63.33	     8.718
  38.620         62.50	     8.660
  38.640         61.67	     8.602
  38.660         55.83	     8.185
  38.680         75.00	     9.487
  38.700         75.00	     9.487
  38.720         82.50	     9.950
  38.740         64.17	     8.775
  38.760         85.00	    10.100
  38.780         83.33	    10.000
  38.800         69.17	     9.110
  38.820         69.17	     9.110
  38.840         75.83	     9.539
  38.860         65.00	     8.832
  38.880         69.17	     9.110
  38.900         45.83	     7.416
  38.920         53.33	     8.000
  38.940         40.00	     6.928
  38.960         49.17	     7.681
  38.980         48.33	     7.616
  39.000         52.50	     7.937
  39.020         51.67	     7.874
  39.040         48.33	     7.616
  39.060         45.83	     7.416
  39.080         56.67	     8.246
  39.100         59.17	     8.426
  39.120         55.00	     8.124
  39.140         51.67	     7.874
  39.160         45.00	     7.348
  39.180         51.67	     7.874
  39.200         56.67	     8.246
  39.220         54.17	     8.062
  39.240         58.33	     8.367
  39.260         43.33	     7.211
  39.280         52.50	     7.937
  39.300         55.00	     8.124
  39.320         80.83	     9.849
  39.340        114.17	    11.705
  39.360        192.50	    15.199
  39.380        285.00	    18.493
  39.400        265.83	    17.861
  39.420        174.17	    14.457
  39.440        110.83	    11.533
  39.460        145.83	    13.229
  39.480        180.83	    14.731
  39.500        165.00	    14.071
  39.520        126.67	    12.329
  39.540         72.50	     9.327
  39.560         69.17	     9.110
  39.580         60.83	     8.544
  39.600         52.50	     7.937
  39.620         56.67	     8.246
  39.640         59.17	     8.426
  39.660         51.67	     7.874
  39.680         37.50	     6.708
  39.700         51.67	     7.874
  39.720         63.33	     8.718
  39.740         45.00	     7.348
  39.760         44.17	     7.280
  39.780         45.83	     7.416
  39.800         51.67	     7.874
  39.820         51.67	     7.874
  39.840         44.17	     7.280
  39.860         39.17	     6.856
  39.880         44.17	     7.280
  39.900         58.33	     8.367
  39.920         36.67	     6.633
  39.940         59.17	     8.426
  39.960         41.67	     7.071
  39.980         55.83	     8.185
  40.000         58.33	     8.367
  40.020         56.67	     8.246
  40.040         66.67	     8.944
  40.060         62.50	     8.660
  40.080         65.00	     8.832
  40.100         59.17	     8.426
  40.120         57.50	     8.307
  40.140         61.67	     8.602
  40.160         77.50	     9.644
  40.180        117.50	    11.874
  40.200        171.67	    14.353
  40.220        155.00	    13.638
  40.240        143.33	    13.115
  40.260         88.33	    10.296
  40.280         93.33	    10.583
  40.300        101.67	    11.045
  40.320        122.50	    12.124
  40.340        113.33	    11.662
  40.360         85.83	    10.149
  40.380         50.00	     7.746
  40.400         53.33	     8.000
  40.420         53.33	     8.000
  40.440         54.17	     8.062
  40.460         40.00	     6.928
  40.480         47.50	     7.550
  40.500         38.33	     6.782
  40.520         48.33	     7.616
  40.540         44.17	     7.280
  40.560         52.50	     7.937
  40.580         47.50	     7.550
  40.600         43.33	     7.211
  40.620         39.17	     6.856
  40.640         38.33	     6.782
  40.660         43.33	     7.211
  40.680         51.67	     7.874
  40.700         44.17	     7.280
  40.720         50.83	     7.810
  40.740         50.00	     7.746
  40.760         55.83	     8.185
  40.780         52.50	     7.937
  40.800         59.17	     8.426
  40.820         49.17	     7.681
  40.840         48.33	     7.616
  40.860         60.83	     8.544
  40.880         51.67	     7.874
  40.900         37.50	     6.708
  40.920         50.00	     7.746
  40.940         59.17	     8.426
  40.960         42.50	     7.141
  40.980         49.17	     7.681
  41.000         39.17	     6.856
  41.020         53.33	     8.000
  41.040         45.83	     7.416
  41.060         58.33	     8.367
  41.080         40.83	     7.000
  41.100         65.00	     8.832
  41.120         65.00	     8.832
  41.140         58.33	     8.367
  41.160         60.00	     8.485
  41.180         64.17	     8.775
  41.200         55.00	     8.124
  41.220         55.00	     8.124
  41.240         60.00	     8.485
  41.260         60.83	     8.544
  41.280         63.33	     8.718
  41.300         53.33	     8.000
  41.320         52.50	     7.937
  41.340         63.33	     8.718
  41.360         50.83	     7.810
  41.380         45.00	     7.348
  41.400         52.50	     7.937
  41.420         57.50	     8.307
  41.440         47.50	     7.550
  41.460         51.67	     7.874
  41.480         52.50	     7.937
  41.500         50.83	     7.810
  41.520         51.67	     7.874
  41.540         43.33	     7.211
  41.560         56.67	     8.246
  41.580         58.33	     8.367
  41.600         65.00	     8.832
  41.620         59.17	     8.426
  41.640         57.50	     8.307
  41.660         65.83	     8.888
  41.680         68.33	     9.055
  41.700         54.17	     8.062
  41.720         65.83	     8.888
  41.740         70.00	     9.165
  41.760         67.50	     9.000
  41.780         61.67	     8.602
  41.800         80.00	     9.798
  41.820         59.17	     8.426
  41.840         54.17	     8.062
  41.860         51.67	     7.874
  41.880         56.67	     8.246
  41.900         63.33	     8.718
  41.920         63.33	     8.718
  41.940         70.83	     9.220
  41.960         55.00	     8.124
  41.980         65.83	     8.888
  42.000         50.83	     7.810
  42.020         53.33	     8.000
  42.040         59.17	     8.426
  42.060         54.17	     8.062
  42.080         59.17	     8.426
  42.100         55.00	     8.124
  42.120         65.83	     8.888
  42.140         71.67	     9.274
  42.160         73.33	     9.381
  42.180         78.33	     9.695
  42.200         75.83	     9.539
  42.220         70.83	     9.220
  42.240         90.83	    10.440
  42.260        101.67	    11.045
  42.280         88.33	    10.296
  42.300        140.00	    12.961
  42.320        164.17	    14.036
  42.340        272.50	    18.083
  42.360        348.33	    20.445
  42.380        418.33	    22.405
  42.400        365.00	    20.928
  42.420        259.17	    17.635
  42.440        206.67	    15.748
  42.460        207.50	    15.780
  42.480        251.67	    17.378
  42.500        230.83	    16.643
  42.520        165.83	    14.107
  42.540        139.17	    12.923
  42.560         97.50	    10.817
  42.580         88.33	    10.296
  42.600         89.17	    10.344
  42.620         73.33	     9.381
  42.640         83.33	    10.000
  42.660         76.67	     9.592
  42.680         78.33	     9.695
  42.700         80.83	     9.849
  42.720         85.83	    10.149
  42.740         92.50	    10.536
  42.760         75.83	     9.539
  42.780         85.83	    10.149
  42.800         82.50	     9.950
  42.820         89.17	    10.344
  42.840        105.00	    11.225
  42.860         97.50	    10.817
  42.880         94.17	    10.630
  42.900         77.50	     9.644
  42.920         91.67	    10.488
  42.940         90.83	    10.440
  42.960        104.17	    11.180
  42.980         86.67	    10.198
  43.000         88.33	    10.296
  43.020         87.50	    10.247
  43.040         93.33	    10.583
  43.060         88.33	    10.296
  43.080         93.33	    10.583
  43.100        112.50	    11.619
  43.120        122.50	    12.124
  43.140        130.00	    12.490
  43.160        115.00	    11.747
  43.180        131.67	    12.570
  43.200        133.33	    12.649
  43.220        136.67	    12.806
  43.240        175.83	    14.526
  43.260        165.00	    14.071
  43.280        178.33	    14.629
  43.300        175.00	    14.491
  43.320        197.50	    15.395
  43.340        205.83	    15.716
  43.360        241.67	    17.029
  43.380        232.50	    16.703
  43.400        232.50	    16.703
  43.420        228.33	    16.553
  43.440        219.17	    16.217
  43.460        233.33	    16.733
  43.480        251.67	    17.378
  43.500        228.33	    16.553
  43.520        207.50	    15.780
  43.540        195.83	    15.330
  43.560        170.83	    14.318
  43.580        201.67	    15.556
  43.600        159.17	    13.820
  43.620        148.33	    13.342
  43.640        175.00	    14.491
  43.660        162.50	    13.964
  43.680        142.50	    13.077
  43.700        145.00	    13.191
  43.720        129.17	    12.450
  43.740        121.67	    12.083
  43.760        134.17	    12.689
  43.780        120.83	    12.042
  43.800        141.67	    13.038
  43.820         97.50	    10.817
  43.840         93.33	    10.583
  43.860         87.50	    10.247
  43.880         96.67	    10.770
  43.900         94.17	    10.630
  43.920         85.83	    10.149
  43.940         84.17	    10.050
  43.960         75.00	     9.487
  43.980         92.50	    10.536
  44.000         72.50	     9.327
  44.020         73.33	     9.381
  44.040         78.33	     9.695
  44.060         73.33	     9.381
  44.080         60.83	     8.544
  44.100         65.83	     8.888
  44.120         65.00	     8.832
  44.140         47.50	     7.550
  44.160         55.83	     8.185
  44.180         61.67	     8.602
  44.200         66.67	     8.944
  44.220         57.50	     8.307
  44.240         55.00	     8.124
  44.260         70.83	     9.220
  44.280         68.33	     9.055
  44.300         42.50	     7.141
  44.320         58.33	     8.367
  44.340         46.67	     7.483
  44.360         55.00	     8.124
  44.380         57.50	     8.307
  44.400         60.00	     8.485
  44.420         50.00	     7.746
  44.440         52.50	     7.937
  44.460         57.50	     8.307
  44.480         57.50	     8.307
  44.500         58.33	     8.367
  44.520         50.00	     7.746
  44.540         53.33	     8.000
  44.560         46.67	     7.483
  44.580         48.33	     7.616
  44.600         55.83	     8.185
  44.620         51.67	     7.874
  44.640         42.50	     7.141
  44.660         52.50	     7.937
  44.680         59.17	     8.426
  44.700         70.00	     9.165
  44.720         59.17	     8.426
  44.740         70.83	     9.220
  44.760         79.17	     9.747
  44.780         85.00	    10.100
  44.800         80.83	     9.849
  44.820         69.17	     9.110
  44.840         61.67	     8.602
  44.860         88.33	    10.296
  44.880         79.17	     9.747
  44.900         82.50	     9.950
  44.920         90.83	    10.440
  44.940         90.83	    10.440
  44.960         82.50	     9.950
  44.980         72.50	     9.327
  45.000         76.67	     9.592
  45.020         76.67	     9.592
  45.040         75.00	     9.487
  45.060         80.83	     9.849
  45.080         70.83	     9.220
  45.100         75.83	     9.539
  45.120         71.67	     9.274
  45.140         69.17	     9.110
  45.160         80.83	     9.849
  45.180         71.67	     9.274
  45.200         85.00	    10.100
  45.220        109.17	    11.446
  45.240        110.00	    11.489
  45.260        109.17	    11.446
  45.280        110.00	    11.489
  45.300        147.50	    13.304
  45.320        157.50	    13.748
  45.340        178.33	    14.629
  45.360        220.83	    16.279
  45.380        262.50	    17.748
  45.400        295.00	    18.815
  45.420        328.33	    19.849
  45.440        376.67	    21.260
  45.460        391.67	    21.679
  45.480        430.00	    22.716
  45.500        487.50	    24.187
  45.520        485.83	    24.145
  45.540        468.33	    23.707
  45.560        418.33	    22.405
  45.580        320.83	    19.621
  45.600        293.33	    18.762
  45.620        325.00	    19.748
  45.640        280.83	    18.358
  45.660        275.00	    18.166
  45.680        240.00	    16.971
  45.700        290.83	    18.682
  45.720        310.00	    19.287
  45.740        303.33	    19.079
  45.760        217.50	    16.155
  45.780        135.00	    12.728
  45.800        120.83	    12.042
  45.820        157.50	    13.748
  45.840        183.33	    14.832
  45.860        175.83	    14.526
  45.880        145.00	    13.191
  45.900         90.00	    10.392
  45.920         79.17	     9.747
  45.940         77.50	     9.644
  45.960         58.33	     8.367
  45.980         80.83	     9.849
  46.000         64.17	     8.775
  46.020         80.00	     9.798
  46.040         77.50	     9.644
  46.060         63.33	     8.718
  46.080         67.50	     9.000
  46.100         66.67	     8.944
  46.120         61.67	     8.602
  46.140         60.00	     8.485
  46.160         61.67	     8.602
  46.180         55.00	     8.124
  46.200         63.33	     8.718
  46.220         63.33	     8.718
  46.240         47.50	     7.550
  46.260         54.17	     8.062
  46.280         42.50	     7.141
  46.300         54.17	     8.062
  46.320         48.33	     7.616
  46.340         45.00	     7.348
  46.360         46.67	     7.483
  46.380         45.00	     7.348
  46.400         55.83	     8.185
  46.420         38.33	     6.782
  46.440         49.17	     7.681
  46.460         47.50	     7.550
  46.480         59.17	     8.426
  46.500         48.33	     7.616
  46.520         63.33	     8.718
  46.540         37.50	     6.708
  46.560         48.33	     7.616
  46.580         45.83	     7.416
  46.600         38.33	     6.782
  46.620         40.00	     6.928
  46.640         37.50	     6.708
  46.660         56.67	     8.246
  46.680         46.67	     7.483
  46.700         39.17	     6.856
  46.720         42.50	     7.141
  46.740         42.50	     7.141
  46.760         47.50	     7.550
  46.780         40.83	     7.000
  46.800         51.67	     7.874
  46.820         53.33	     8.000
  46.840         44.17	     7.280
  46.860         49.17	     7.681
  46.880         50.00	     7.746
  46.900         48.33	     7.616
  46.920         39.17	     6.856
  46.940         51.67	     7.874
  46.960         63.33	     8.718
  46.980         50.83	     7.810
  47.000         56.67	     8.246
  47.020         47.50	     7.550
  47.040         63.33	     8.718
  47.060         64.17	     8.775
  47.080         69.17	     9.110
  47.100         58.33	     8.367
  47.120         64.17	     8.775
  47.140         55.83	     8.185
  47.160         60.83	     8.544
  47.180         45.83	     7.416
  47.200         55.00	     8.124
  47.220         72.50	     9.327
  47.240         46.67	     7.483
  47.260         50.00	     7.746
  47.280         50.83	     7.810
  47.300         46.67	     7.483
  47.320         54.17	     8.062
  47.340         47.50	     7.550
  47.360         39.17	     6.856
  47.380         50.00	     7.746
  47.400         47.50	     7.550
  47.420         39.17	     6.856
  47.440         40.83	     7.000
  47.460         35.83	     6.557
  47.480         44.17	     7.280
  47.500         33.33	     6.325
  47.520         44.17	     7.280
  47.540         33.33	     6.325
  47.560         43.33	     7.211
  47.580         37.50	     6.708
  47.600         37.50	     6.708
  47.620         35.83	     6.557
  47.640         39.17	     6.856
  47.660         39.17	     6.856
  47.680         50.00	     7.746
  47.700         37.50	     6.708
  47.720         35.83	     6.557
  47.740         39.17	     6.856
  47.760         43.33	     7.211
  47.780         50.00	     7.746
  47.800         48.33	     7.616
  47.820         45.83	     7.416
  47.840         52.50	     7.937
  47.860         45.00	     7.348
  47.880         49.17	     7.681
  47.900         50.00	     7.746
  47.920         54.17	     8.062
  47.940         46.67	     7.483
  47.960         47.50	     7.550
  47.980         49.17	     7.681
  48.000         59.17	     8.426
  48.020         60.00	     8.485
  48.040         54.17	     8.062
  48.060         57.50	     8.307
  48.080         48.33	     7.616
  48.100         53.33	     8.000
  48.120         57.50	     8.307
  48.140         55.00	     8.124
  48.160         60.83	     8.544
  48.180         69.17	     9.110
  48.200         57.50	     8.307
  48.220         57.50	     8.307
  48.240         59.17	     8.426
  48.260         54.17	     8.062
  48.280         55.83	     8.185
  48.300         46.67	     7.483
  48.320         48.33	     7.616
  48.340         38.33	     6.782
  48.360         42.50	     7.141
  48.380         52.50	     7.937
  48.400         45.83	     7.416
  48.420         45.83	     7.416
  48.440         42.50	     7.141
  48.460         42.50	     7.141
  48.480         46.67	     7.483
  48.500         47.50	     7.550
  48.520         47.50	     7.550
  48.540         50.00	     7.746
  48.560         58.33	     8.367
  48.580         46.67	     7.483
  48.600         42.50	     7.141
  48.620         51.67	     7.874
  48.640         33.33	     6.325
  48.660         49.17	     7.681
  48.680         40.00	     6.928
  48.700         42.50	     7.141
  48.720         35.83	     6.557
  48.740         39.17	     6.856
  48.760         36.67	     6.633
  48.780         43.33	     7.211
  48.800         44.17	     7.280
  48.820         35.00	     6.481
  48.840         40.83	     7.000
  48.860         55.00	     8.124
  48.880         44.17	     7.280
  48.900         50.83	     7.810
  48.920         47.50	     7.550
  48.940         45.83	     7.416
  48.960         45.00	     7.348
  48.980         45.00	     7.348
  49.000         55.00	     8.124
  49.020         41.67	     7.071
  49.040         46.67	     7.483
  49.060         44.17	     7.280
  49.080         55.83	     8.185
  49.100         69.17	     9.110
  49.120         85.00	    10.100
  49.140         65.83	     8.888
  49.160         74.17	     9.434
  49.180         51.67	     7.874
  49.200         65.83	     8.888
  49.220         50.00	     7.746
  49.240         53.33	     8.000
  49.260         47.50	     7.550
  49.280         55.00	     8.124
  49.300         54.17	     8.062
  49.320         50.83	     7.810
  49.340         60.00	     8.485
  49.360         55.00	     8.124
  49.380         57.50	     8.307
  49.400         52.50	     7.937
  49.420         52.50	     7.937
  49.440         65.00	     8.832
  49.460         54.17	     8.062
  49.480         55.00	     8.124
  49.500         36.67	     6.633
  49.520         63.33	     8.718
  49.540         58.33	     8.367
  49.560         50.83	     7.810
  49.580         60.00	     8.485
  49.600         64.17	     8.775
  49.620         66.67	     8.944
  49.640         61.67	     8.602
  49.660         70.00	     9.165
  49.680         69.17	     9.110
  49.700         74.17	     9.434
  49.720         70.00	     9.165
  49.740         94.17	    10.630
  49.760         79.17	     9.747
  49.780         84.17	    10.050
  49.800         74.17	     9.434
  49.820         95.83	    10.724
  49.840         99.17	    10.909
  49.860        110.00	    11.489
  49.880        105.83	    11.269
  49.900        110.83	    11.533
  49.920        112.50	    11.619
  49.940        125.00	    12.247
  49.960        115.83	    11.790
  49.980        130.83	    12.530
  50.000        198.33	    15.427
  50.020        268.33	    17.944
  50.040        370.00	    21.071
  50.060        470.00	    23.749
  50.080        381.67	    21.401
  50.100        281.67	    18.385
  50.120        216.67	    16.125
  50.140        179.17	    14.663
  50.160        197.50	    15.395
  50.180        220.83	    16.279
  50.200        248.33	    17.263
  50.220        215.00	    16.062
  50.240        145.00	    13.191
  50.260        105.83	    11.269
  50.280        109.17	    11.446
  50.300         97.50	    10.817
  50.320         81.67	     9.899
  50.340        100.00	    10.954
  50.360         92.50	    10.536
  50.380         82.50	     9.950
  50.400         92.50	    10.536
  50.420         86.67	    10.198
  50.440         85.00	    10.100
  50.460         87.50	    10.247
  50.480        118.33	    11.916
  50.500        110.83	    11.533
  50.520        202.50	    15.588
  50.540        253.33	    17.436
  50.560        232.50	    16.703
  50.580        166.67	    14.142
  50.600        121.67	    12.083
  50.620        111.67	    11.576
  50.640        129.17	    12.450
  50.660        170.00	    14.283
  50.680        160.00	    13.856
  50.700        148.33	    13.342
  50.720        117.50	    11.874
  50.740         95.83	    10.724
  50.760        106.67	    11.314
  50.780        102.50	    11.091
  50.800         70.83	     9.220
  50.820         84.17	    10.050
  50.840         80.83	     9.849
  50.860         66.67	     8.944
  50.880         65.00	     8.832
  50.900         69.17	     9.110
  50.920         66.67	     8.944
  50.940         58.33	     8.367
  50.960         52.50	     7.937
  50.980         53.33	     8.000
  51.000         73.33	     9.381
  51.020        115.00	    11.747
  51.040        203.33	    15.620
  51.060        204.17	    15.652
  51.080        146.67	    13.266
  51.100         95.83	    10.724
  51.120         78.33	     9.695
  51.140         72.50	     9.327
  51.160         92.50	    10.536
  51.180        118.33	    11.916
  51.200        121.67	    12.083
  51.220         90.83	    10.440
  51.240         83.33	    10.000
  51.260         63.33	     8.718
  51.280         55.00	     8.124
  51.300         52.50	     7.937
  51.320         47.50	     7.550
  51.340         42.50	     7.141
  51.360         45.00	     7.348
  51.380         42.50	     7.141
  51.400         46.67	     7.483
  51.420         45.00	     7.348
  51.440         52.50	     7.937
  51.460         48.33	     7.616
  51.480         36.67	     6.633
  51.500         38.33	     6.782
  51.520         34.17	     6.403
  51.540         36.67	     6.633
  51.560         32.50	     6.245
  51.580         35.00	     6.481
  51.600         37.50	     6.708
  51.620         40.83	     7.000
  51.640         33.33	     6.325
  51.660         34.17	     6.403
  51.680         30.83	     6.083
  51.700         35.00	     6.481
  51.720         39.17	     6.856
  51.740         35.83	     6.557
  51.760         32.50	     6.245
  51.780         40.00	     6.928
  51.800         36.67	     6.633
  51.820         40.83	     7.000
  51.840         31.67	     6.164
  51.860         38.33	     6.782
  51.880         36.67	     6.633
  51.900         42.50	     7.141
  51.920         33.33	     6.325
  51.940         30.83	     6.083
  51.960         50.83	     7.810
  51.980         45.83	     7.416
  52.000         52.50	     7.937
  52.020         56.67	     8.246
  52.040         60.00	     8.485
  52.060         63.33	     8.718
  52.080         54.17	     8.062
  52.100         50.00	     7.746
  52.120         50.00	     7.746
  52.140         50.00	     7.746
  52.160         50.83	     7.810
  52.180         43.33	     7.211
  52.200         45.00	     7.348
  52.220         51.67	     7.874
  52.240         60.83	     8.544
  52.260         74.17	     9.434
  52.280         95.00	    10.677
  52.300         60.00	     8.485
  52.320         70.00	     9.165
  52.340         60.00	     8.485
  52.360         57.50	     8.307
  52.380         43.33	     7.211
  52.400         50.00	     7.746
  52.420         75.00	     9.487
  52.440         59.17	     8.426
  52.460         55.00	     8.124
  52.480         48.33	     7.616
  52.500         44.17	     7.280
  52.520         42.50	     7.141
  52.540         56.67	     8.246
  52.560         51.67	     7.874
  52.580         58.33	     8.367
  52.600         41.67	     7.071
  52.620         35.83	     6.557
  52.640         40.83	     7.000
  52.660         49.17	     7.681
  52.680         53.33	     8.000
  52.700         53.33	     8.000
  52.720         59.17	     8.426
  52.740         45.83	     7.416
  52.760         43.33	     7.211
  52.780         49.17	     7.681
  52.800         35.83	     6.557
  52.820         40.83	     7.000
  52.840         45.83	     7.416
  52.860         63.33	     8.718
  52.880         58.33	     8.367
  52.900         55.83	     8.185
  52.920         50.83	     7.810
  52.940         56.67	     8.246
  52.960         52.50	     7.937
  52.980         50.83	     7.810
  53.000         45.00	     7.348
  53.020         49.17	     7.681
  53.040         49.17	     7.681
  53.060         55.83	     8.185
  53.080         65.00	     8.832
  53.100         75.00	     9.487
  53.120         62.50	     8.660
  53.140         52.50	     7.937
  53.160         62.50	     8.660
  53.180         47.50	     7.550
  53.200         41.67	     7.071
  53.220         53.33	     8.000
  53.240         63.33	     8.718
  53.260         48.33	     7.616
  53.280         46.67	     7.483
  53.300         50.00	     7.746
  53.320         47.50	     7.550
  53.340         41.67	     7.071
  53.360         40.00	     6.928
  53.380         41.67	     7.071
  53.400         40.00	     6.928
  53.420         42.50	     7.141
  53.440         45.83	     7.416
  53.460         39.17	     6.856
  53.480         34.17	     6.403
  53.500         36.67	     6.633
  53.520         53.33	     8.000
  53.540         34.17	     6.403
  53.560         35.00	     6.481
  53.580         44.17	     7.280
  53.600         35.00	     6.481
  53.620         45.00	     7.348
  53.640         40.00	     6.928
  53.660         31.67	     6.164
  53.680         39.17	     6.856
  53.700         33.33	     6.325
  53.720         40.00	     6.928
  53.740         34.17	     6.403
  53.760         40.83	     7.000
  53.780         33.33	     6.325
  53.800         38.33	     6.782
  53.820         31.67	     6.164
  53.840         35.83	     6.557
  53.860         48.33	     7.616
  53.880         33.33	     6.325
  53.900         38.33	     6.782
  53.920         42.50	     7.141
  53.940         33.33	     6.325
  53.960         36.67	     6.633
  53.980         41.67	     7.071
  54.000         27.50	     5.745
  54.020         35.83	     6.557
  54.040         35.00	     6.481
  54.060         42.50	     7.141
  54.080         34.17	     6.403
  54.100         43.33	     7.211
  54.120         37.50	     6.708
  54.140         38.33	     6.782
  54.160         35.00	     6.481
  54.180         31.67	     6.164
  54.200         45.00	     7.348
  54.220         55.83	     8.185
  54.240         55.83	     8.185
  54.260         78.33	     9.695
  54.280         59.17	     8.426
  54.300         59.17	     8.426
  54.320         55.00	     8.124
  54.340         65.00	     8.832
  54.360         65.83	     8.888
  54.380         58.33	     8.367
  54.400         49.17	     7.681
  54.420         59.17	     8.426
  54.440         47.50	     7.550
  54.460         55.00	     8.124
  54.480         58.33	     8.367
  54.500         62.50	     8.660
  54.520         57.50	     8.307
  54.540         62.50	     8.660
  54.560         60.00	     8.485
  54.580         59.17	     8.426
  54.600         49.17	     7.681
  54.620         48.33	     7.616
  54.640         66.67	     8.944
  54.660         46.67	     7.483
  54.680         59.17	     8.426
  54.700         61.67	     8.602
  54.720         75.83	     9.539
  54.740        111.67	    11.576
  54.760        146.67	    13.266
  54.780        208.33	    15.811
  54.800        196.67	    15.362
  54.820        176.67	    14.560
  54.840        113.33	    11.662
  54.860        107.50	    11.358
  54.880        111.67	    11.576
  54.900        135.83	    12.767
  54.920        147.50	    13.304
  54.940        162.50	    13.964
  54.960        150.83	    13.454
  54.980        117.50	    11.874
  55.000         80.83	     9.849
  55.020         69.17	     9.110
  55.040         78.33	     9.695
  55.060         73.33	     9.381
  55.080         62.50	     8.660
  55.100         72.50	     9.327
  55.120         75.83	     9.539
  55.140         65.83	     8.888
  55.160         70.00	     9.165
  55.180         71.67	     9.274
  55.200         80.83	     9.849
  55.220         95.00	    10.677
  55.240         91.67	    10.488
  55.260         95.83	    10.724
  55.280         97.50	    10.817
  55.300         83.33	    10.000
  55.320         64.17	     8.775
  55.340         73.33	     9.381
  55.360         87.50	    10.247
  55.380         81.67	     9.899
  55.400         84.17	    10.050
  55.420         86.67	    10.198
  55.440         85.83	    10.149
  55.460         72.50	     9.327
  55.480         57.50	     8.307
  55.500         62.50	     8.660
  55.520         65.00	     8.832
  55.540         58.33	     8.367
  55.560         70.83	     9.220
  55.580         62.50	     8.660
  55.600         73.33	     9.381
  55.620         76.67	     9.592
  55.640         68.33	     9.055
  55.660         80.00	     9.798
  55.680         87.50	    10.247
  55.700         89.17	    10.344
  55.720         85.00	    10.100
  55.740         96.67	    10.770
  55.760         90.83	    10.440
  55.780         90.83	    10.440
  55.800         75.83	     9.539
  55.820        124.17	    12.207
  55.840        124.17	    12.207
  55.860        106.67	    11.314
  55.880         80.83	     9.849
  55.900         76.67	     9.592
  55.920         81.67	     9.899
  55.940         70.83	     9.220
  55.960         65.83	     8.888
  55.980         70.83	     9.220
  56.000         74.17	     9.434
  56.020         75.00	     9.487
  56.040         50.00	     7.746
  56.060         52.50	     7.937
  56.080         57.50	     8.307
  56.100         52.50	     7.937
  56.120         57.50	     8.307
  56.140         46.67	     7.483
  56.160         47.50	     7.550
  56.180         59.17	     8.426
  56.200         71.67	     9.274
  56.220         72.50	     9.327
  56.240         71.67	     9.274
  56.260         61.67	     8.602
  56.280         60.00	     8.485
  56.300         44.17	     7.280
  56.320         54.17	     8.062
  56.340         52.50	     7.937
  56.360         54.17	     8.062
  56.380         59.17	     8.426
  56.400         45.83	     7.416
  56.420         44.17	     7.280
  56.440         48.33	     7.616
  56.460         31.67	     6.164
  56.480         32.50	     6.245
  56.500         48.33	     7.616
  56.520         46.67	     7.483
  56.540         38.33	     6.782
  56.560         33.33	     6.325
  56.580         51.67	     7.874
  56.600         40.83	     7.000
  56.620         41.67	     7.071
  56.640         35.83	     6.557
  56.660         36.67	     6.633
  56.680         35.83	     6.557
  56.700         45.00	     7.348
  56.720         35.00	     6.481
  56.740         35.00	     6.481
  56.760         35.83	     6.557
  56.780         44.17	     7.280
  56.800         39.17	     6.856
  56.820         35.00	     6.481
  56.840         44.17	     7.280
  56.860         40.00	     6.928
  56.880         34.17	     6.403
  56.900         36.67	     6.633
  56.920         38.33	     6.782
  56.940         39.17	     6.856
  56.960         45.00	     7.348
  56.980         40.00	     6.928
  57.000         41.67	     7.071
  57.020         40.83	     7.000
  57.040         38.33	     6.782
  57.060         48.33	     7.616
  57.080         40.83	     7.000
  57.100         51.67	     7.874
  57.120         43.33	     7.211
  57.140         53.33	     8.000
  57.160         45.83	     7.416
  57.180         53.33	     8.000
  57.200         38.33	     6.782
  57.220         40.00	     6.928
  57.240         32.50	     6.245
  57.260         37.50	     6.708
  57.280         48.33	     7.616
  57.300         32.50	     6.245
  57.320         36.67	     6.633
  57.340         45.00	     7.348
  57.360         41.67	     7.071
  57.380         46.67	     7.483
  57.400         43.33	     7.211
  57.420         46.67	     7.483
  57.440         45.00	     7.348
  57.460         43.33	     7.211
  57.480         49.17	     7.681
  57.500         49.17	     7.681
  57.520         46.67	     7.483
  57.540         56.67	     8.246
  57.560         50.83	     7.810
  57.580         55.83	     8.185
  57.600         49.17	     7.681
  57.620         41.67	     7.071
  57.640         44.17	     7.280
  57.660         39.17	     6.856
  57.680         39.17	     6.856
  57.700         45.83	     7.416
  57.720         48.33	     7.616
  57.740         47.50	     7.550
  57.760         44.17	     7.280
  57.780         34.17	     6.403
  57.800         34.17	     6.403
  57.820         36.67	     6.633
  57.840         35.00	     6.481
  57.860         38.33	     6.782
  57.880         30.83	     6.083
  57.900         34.17	     6.403
  57.920         32.50	     6.245
  57.940         42.50	     7.141
  57.960         45.00	     7.348
  57.980         38.33	     6.782
  58.000         43.33	     7.211
  58.020         40.83	     7.000
  58.040         43.33	     7.211
  58.060         37.50	     6.708
  58.080         43.33	     7.211
  58.100         40.00	     6.928
  58.120         23.33	     5.292
  58.140         37.50	     6.708
  58.160         45.83	     7.416
  58.180         43.33	     7.211
  58.200         35.83	     6.557
  58.220         34.17	     6.403
  58.240         35.83	     6.557
  58.260         50.00	     7.746
  58.280         37.50	     6.708
  58.300         36.67	     6.633
  58.320         42.50	     7.141
  58.340         48.33	     7.616
  58.360         35.83	     6.557
  58.380         29.17	     5.916
  58.400         41.67	     7.071
  58.420         48.33	     7.616
  58.440         40.83	     7.000
  58.460         42.50	     7.141
  58.480         56.67	     8.246
  58.500         45.00	     7.348
  58.520         57.50	     8.307
  58.540         66.67	     8.944
  58.560         78.33	     9.695
  58.580         86.67	    10.198
  58.600         73.33	     9.381
  58.620         76.67	     9.592
  58.640         50.00	     7.746
  58.660         55.83	     8.185
  58.680         53.33	     8.000
  58.700         73.33	     9.381
  58.720         68.33	     9.055
  58.740         60.83	     8.544
  58.760         66.67	     8.944
  58.780         43.33	     7.211
  58.800         78.33	     9.695
  58.820         48.33	     7.616
  58.840         49.17	     7.681
  58.860         52.50	     7.937
  58.880         45.83	     7.416
  58.900         50.83	     7.810
  58.920         55.83	     8.185
  58.940         57.50	     8.307
  58.960         56.67	     8.246
  58.980         55.83	     8.185
  59.000         46.67	     7.483
  59.020         30.83	     6.083
  59.040         48.33	     7.616
  59.060         52.50	     7.937
  59.080         53.33	     8.000
  59.100         52.50	     7.937
  59.120         50.00	     7.746
  59.140         62.50	     8.660
  59.160         55.00	     8.124
  59.180         60.00	     8.485
  59.200         56.67	     8.246
  59.220         49.17	     7.681
  59.240         54.17	     8.062
  59.260         45.83	     7.416
  59.280         41.67	     7.071
  59.300         39.17	     6.856
  59.320         62.50	     8.660
  59.340         51.67	     7.874
  59.360         57.50	     8.307
  59.380         49.17	     7.681
  59.400         46.67	     7.483
  59.420         52.50	     7.937
  59.440         41.67	     7.071
  59.460         35.00	     6.481
  59.480         46.67	     7.483
  59.500         60.00	     8.485
  59.520         50.83	     7.810
  59.540         33.33	     6.325
  59.560         59.17	     8.426
  59.580         59.17	     8.426
  59.600         62.50	     8.660
  59.620         55.00	     8.124
  59.640         62.50	     8.660
  59.660         62.50	     8.660
  59.680         57.50	     8.307
  59.700         74.17	     9.434
  59.720         82.50	     9.950
  59.740         68.33	     9.055
  59.760        101.67	    11.045
  59.780        115.00	    11.747
  59.800        145.83	    13.229
  59.820        165.00	    14.071
  59.840        232.50	    16.703
  59.860        332.50	    19.975
  59.880        410.83	    22.204
  59.900        343.33	    20.298
  59.920        255.83	    17.521
  59.940        175.83	    14.526
  59.960        147.50	    13.304
  59.980        141.67	    13.038
  60.000        159.17	    13.820
  60.020        191.67	    15.166
  60.040        240.00	    16.971
  60.060        210.83	    15.906
  60.080        148.33	    13.342
  60.100        115.83	    11.790
  60.120         83.33	    10.000
  60.140         66.67	     8.944
  60.160         55.00	     8.124
  60.180         70.83	     9.220
  60.200         67.50	     9.000
  60.220         57.50	     8.307
  60.240         55.83	     8.185
  60.260         35.83	     6.557
  60.280         52.50	     7.937
  60.300         58.33	     8.367
  60.320         65.83	     8.888
  60.340         49.17	     7.681
  60.360         55.83	     8.185
  60.380         45.83	     7.416
  60.400         41.67	     7.071
  60.420         43.33	     7.211
  60.440         54.17	     8.062
  60.460         40.83	     7.000
  60.480         50.00	     7.746
  60.500         58.33	     8.367
  60.520         53.33	     8.000
  60.540         54.17	     8.062
  60.560         38.33	     6.782
  60.580         58.33	     8.367
  60.600         67.50	     9.000
  60.620         51.67	     7.874
  60.640         65.83	     8.888
  60.660         60.00	     8.485
  60.680         50.00	     7.746
  60.700         67.50	     9.000
  60.720         62.50	     8.660
  60.740         61.67	     8.602
  60.760         60.83	     8.544
  60.780         55.83	     8.185
  60.800         76.67	     9.592
  60.820         66.67	     8.944
  60.840         65.00	     8.832
  60.860         53.33	     8.000
  60.880         51.67	     7.874
  60.900         42.50	     7.141
  60.920         68.33	     9.055
  60.940         60.00	     8.485
  60.960         50.00	     7.746
  60.980         54.17	     8.062
  61.000         56.67	     8.246
  61.020         53.33	     8.000
  61.040         49.17	     7.681
  61.060         56.67	     8.246
  61.080         61.67	     8.602
  61.100         58.33	     8.367
  61.120         53.33	     8.000
  61.140         55.00	     8.124
  61.160         50.00	     7.746
  61.180         60.83	     8.544
  61.200         55.83	     8.185
  61.220         58.33	     8.367
  61.240         50.00	     7.746
  61.260         49.17	     7.681
  61.280         51.67	     7.874
  61.300         57.50	     8.307
  61.320         45.83	     7.416
  61.340         49.17	     7.681
  61.360         53.33	     8.000
  61.380         60.00	     8.485
  61.400         71.67	     9.274
  61.420         65.83	     8.888
  61.440         58.33	     8.367
  61.460         63.33	     8.718
  61.480         60.83	     8.544
  61.500         74.17	     9.434
  61.520         73.33	     9.381
  61.540         71.67	     9.274
  61.560         79.17	     9.747
  61.580         90.00	    10.392
  61.600        131.67	    12.570
  61.620        243.33	    17.088
  61.640        351.67	    20.543
  61.660        316.67	    19.494
  61.680        200.83	    15.524
  61.700        105.83	    11.269
  61.720         75.00	     9.487
  61.740         70.83	     9.220
  61.760         83.33	    10.000
  61.780        110.83	    11.533
  61.800        181.67	    14.765
  61.820        207.50	    15.780
  61.840        146.67	    13.266
  61.860         94.17	    10.630
  61.880         79.17	     9.747
  61.900         70.00	     9.165
  61.920         62.50	     8.660
  61.940         59.17	     8.426
  61.960         60.83	     8.544
  61.980         53.33	     8.000
  62.000         52.50	     7.937
  62.020         60.83	     8.544
  62.040         44.17	     7.280
  62.060         37.50	     6.708
  62.080         50.00	     7.746
  62.100         51.67	     7.874
  62.120         30.00	     6.000
  62.140         45.00	     7.348
  62.160         48.33	     7.616
  62.180         43.33	     7.211
  62.200         40.83	     7.000
  62.220         45.00	     7.348
  62.240         37.50	     6.708
  62.260         29.17	     5.916
  62.280         35.00	     6.481
  62.300         41.67	     7.071
  62.320         44.17	     7.280
  62.340         35.83	     6.557
  62.360         38.33	     6.782
  62.380         42.50	     7.141
  62.400         39.17	     6.856
  62.420         27.50	     5.745
  62.440         37.50	     6.708
  62.460         30.00	     6.000
  62.480         43.33	     7.211
  62.500         33.33	     6.325
  62.520         38.33	     6.782
  62.540         31.67	     6.164
  62.560         41.67	     7.071
  62.580         38.33	     6.782
  62.600         29.17	     5.916
  62.620         49.17	     7.681
  62.640         30.83	     6.083
  62.660         37.50	     6.708
  62.680         29.17	     5.916
  62.700         37.50	     6.708
  62.720         37.50	     6.708
  62.740         41.67	     7.071
  62.760         45.00	     7.348
  62.780         45.00	     7.348
  62.800         43.33	     7.211
  62.820         47.50	     7.550
  62.840         50.83	     7.810
  62.860         35.00	     6.481
  62.880         40.83	     7.000
  62.900         46.67	     7.483
  62.920         40.00	     6.928
  62.940         53.33	     8.000
  62.960         37.50	     6.708
  62.980         38.33	     6.782
  63.000         37.50	     6.708
  63.020         40.00	     6.928
  63.040         30.00	     6.000
  63.060         45.00	     7.348
  63.080         39.17	     6.856
  63.100         33.33	     6.325
  63.120         43.33	     7.211
  63.140         37.50	     6.708
  63.160         41.67	     7.071
  63.180         36.67	     6.633
  63.200         45.83	     7.416
  63.220         43.33	     7.211
  63.240         39.17	     6.856
  63.260         41.67	     7.071
  63.280         51.67	     7.874
  63.300         52.50	     7.937
  63.320         38.33	     6.782
  63.340         53.33	     8.000
  63.360         41.67	     7.071
  63.380         48.33	     7.616
  63.400         54.17	     8.062
  63.420         44.17	     7.280
  63.440         35.00	     6.481
  63.460         42.50	     7.141
  63.480         42.50	     7.141
  63.500         41.67	     7.071
  63.520         35.83	     6.557
  63.540         43.33	     7.211
  63.560         49.17	     7.681
  63.580         46.67	     7.483
  63.600         53.33	     8.000
  63.620         48.33	     7.616
  63.640         44.17	     7.280
  63.660         46.67	     7.483
  63.680         48.33	     7.616
  63.700         41.67	     7.071
  63.720         52.50	     7.937
  63.740         46.67	     7.483
  63.760         46.67	     7.483
  63.780         43.33	     7.211
  63.800         53.33	     8.000
  63.820         42.50	     7.141
  63.840         46.67	     7.483
  63.860         59.17	     8.426
  63.880         79.17	     9.747
  63.900         78.33	     9.695
  63.920         90.00	    10.392
  63.940        102.50	    11.091
  63.960        106.67	    11.314
  63.980         89.17	    10.344
  64.000         78.33	     9.695
  64.020         70.83	     9.220
  64.040         60.83	     8.544
  64.060         60.00	     8.485
  64.080         67.50	     9.000
  64.100         82.50	     9.950
  64.120         72.50	     9.327
  64.140         80.83	     9.849
  64.160         64.17	     8.775
  64.180         47.50	     7.550
  64.200         50.83	     7.810
  64.220         46.67	     7.483
  64.240         40.00	     6.928
  64.260         50.83	     7.810
  64.280         35.00	     6.481
  64.300         45.83	     7.416
  64.320         40.83	     7.000
  64.340         50.00	     7.746
  64.360         40.83	     7.000
  64.380         41.67	     7.071
  64.400         55.00	     8.124
  64.420         38.33	     6.782
  64.440         34.17	     6.403
  64.460         41.67	     7.071
  64.480         35.00	     6.481
  64.500         32.50	     6.245
  64.520         40.00	     6.928
  64.540         51.67	     7.874
  64.560         53.33	     8.000
  64.580         40.83	     7.000
  64.600         45.00	     7.348
  64.620         46.67	     7.483
  64.640         50.83	     7.810
  64.660         45.00	     7.348
  64.680         48.33	     7.616
  64.700         48.33	     7.616
  64.720         47.50	     7.550
  64.740         68.33	     9.055
  64.760         50.83	     7.810
  64.780         47.50	     7.550
  64.800         56.67	     8.246
  64.820         49.17	     7.681
  64.840         55.00	     8.124
  64.860         45.00	     7.348
  64.880         54.17	     8.062
  64.900         44.17	     7.280
  64.920         46.67	     7.483
  64.940         52.50	     7.937
  64.960         43.33	     7.211
  64.980         45.00	     7.348
  65.000         44.17	     7.280
