
Filename:
	C:\Program Files\Thermo Electron\WinXRD\Datafiles\F_HERMAN\GEO\G90_RT.raw

File Created:
	February 21, 2020 - 05:24 AM

Specimen Id:
	G90_RT

Specimen Name:
	

Specimen Description:
	

Comment:
Scan Type: 2Theta Scan
Start Angle: 3 deg.
Stop Angle: 65 deg.
Num Points: 3101
Step Size: 0.02 deg.
Scan Rate: 1.000000
Scan Mode: Continuous
Wavelength: 1.540562
\Kalpha1: 1.540562	\Kalpha2: 1.544390	\Kbeta: 1.392218

Optics:
		Detector:
			 Type: Fixed Slits
		Tube: 
			 Type: Fixed Slits


Datas:
 Pos [deg]       Rate [CPS]      ESD [-]

Range 1 ---> Iteration 1
   3.000        445.00	    23.108
   3.020        515.83	    24.880
   3.040        491.67	    24.290
   3.060        461.67	    23.537
   3.080        447.50	    23.173
   3.100        435.00	    22.847
   3.120        444.17	    23.087
   3.140        442.50	    23.043
   3.160        425.83	    22.605
   3.180        439.17	    22.956
   3.200        430.83	    22.738
   3.220        415.00	    22.316
   3.240        428.33	    22.672
   3.260        413.33	    22.271
   3.280        396.67	    21.817
   3.300        361.67	    20.833
   3.320        402.50	    21.977
   3.340        392.50	    21.703
   3.360        412.50	    22.249
   3.380        393.33	    21.726
   3.400        426.67	    22.627
   3.420        394.17	    21.749
   3.440        367.50	    21.000
   3.460        384.17	    21.471
   3.480        395.00	    21.772
   3.500        372.50	    21.142
   3.520        400.00	    21.909
   3.540        371.67	    21.119
   3.560        359.17	    20.761
   3.580        364.17	    20.905
   3.600        389.17	    21.610
   3.620        360.00	    20.785
   3.640        381.67	    21.401
   3.660        351.67	    20.543
   3.680        347.50	    20.421
   3.700        335.00	    20.050
   3.720        389.17	    21.610
   3.740        366.67	    20.976
   3.760        355.83	    20.664
   3.780        332.50	    19.975
   3.800        345.00	    20.347
   3.820        360.00	    20.785
   3.840        338.33	    20.149
   3.860        356.67	    20.688
   3.880        354.17	    20.616
   3.900        325.83	    19.774
   3.920        325.83	    19.774
   3.940        310.00	    19.287
   3.960        330.00	    19.900
   3.980        328.33	    19.849
   4.000        341.67	    20.248
   4.020        334.17	    20.025
   4.040        324.17	    19.723
   4.060        296.67	    18.868
   4.080        294.17	    18.788
   4.100        311.67	    19.339
   4.120        328.33	    19.849
   4.140        285.00	    18.493
   4.160        294.17	    18.788
   4.180        295.00	    18.815
   4.200        330.00	    19.900
   4.220        327.50	    19.824
   4.240        300.00	    18.974
   4.260        296.67	    18.868
   4.280        292.50	    18.735
   4.300        284.17	    18.466
   4.320        301.67	    19.026
   4.340        291.67	    18.708
   4.360        299.17	    18.947
   4.380        301.67	    19.026
   4.400        294.17	    18.788
   4.420        305.00	    19.131
   4.440        289.17	    18.628
   4.460        265.00	    17.833
   4.480        271.67	    18.055
   4.500        294.17	    18.788
   4.520        284.17	    18.466
   4.540        280.83	    18.358
   4.560        272.50	    18.083
   4.580        247.50	    17.234
   4.600        238.33	    16.912
   4.620        272.50	    18.083
   4.640        260.83	    17.692
   4.660        261.67	    17.720
   4.680        286.67	    18.547
   4.700        255.83	    17.521
   4.720        264.17	    17.804
   4.740        290.00	    18.655
   4.760        269.17	    17.972
   4.780        253.33	    17.436
   4.800        263.33	    17.776
   4.820        258.33	    17.607
   4.840        266.67	    17.889
   4.860        255.00	    17.493
   4.880        220.00	    16.248
   4.900        256.67	    17.550
   4.920        255.83	    17.521
   4.940        247.50	    17.234
   4.960        238.33	    16.912
   4.980        249.17	    17.292
   5.000        248.33	    17.263
   5.020        225.83	    16.462
   5.040        245.00	    17.146
   5.060        241.67	    17.029
   5.080        276.67	    18.221
   5.100        254.17	    17.464
   5.120        235.83	    16.823
   5.140        262.50	    17.748
   5.160        225.00	    16.432
   5.180        221.67	    16.310
   5.200        235.83	    16.823
   5.220        242.50	    17.059
   5.240        243.33	    17.088
   5.260        215.83	    16.093
   5.280        219.17	    16.217
   5.300        231.67	    16.673
   5.320        220.00	    16.248
   5.340        215.83	    16.093
   5.360        225.00	    16.432
   5.380        233.33	    16.733
   5.400        246.67	    17.205
   5.420        219.17	    16.217
   5.440        245.83	    17.176
   5.460        200.83	    15.524
   5.480        226.67	    16.492
   5.500        245.83	    17.176
   5.520        215.83	    16.093
   5.540        229.17	    16.583
   5.560        250.00	    17.321
   5.580        245.83	    17.176
   5.600        218.33	    16.186
   5.620        213.33	    16.000
   5.640        225.83	    16.462
   5.660        225.00	    16.432
   5.680        220.00	    16.248
   5.700        232.50	    16.703
   5.720        243.33	    17.088
   5.740        193.33	    15.232
   5.760        240.00	    16.971
   5.780        214.17	    16.031
   5.800        250.00	    17.321
   5.820        234.17	    16.763
   5.840        238.33	    16.912
   5.860        237.50	    16.882
   5.880        230.00	    16.613
   5.900        248.33	    17.263
   5.920        239.17	    16.941
   5.940        270.00	    18.000
   5.960        262.50	    17.748
   5.980        257.50	    17.578
   6.000        222.50	    16.340
   6.020        256.67	    17.550
   6.040        255.83	    17.521
   6.060        250.00	    17.321
   6.080        241.67	    17.029
   6.100        273.33	    18.111
   6.120        287.50	    18.574
   6.140        280.83	    18.358
   6.160        281.67	    18.385
   6.180        263.33	    17.776
   6.200        232.50	    16.703
   6.220        220.83	    16.279
   6.240        216.67	    16.125
   6.260        211.67	    15.937
   6.280        206.67	    15.748
   6.300        209.17	    15.843
   6.320        217.50	    16.155
   6.340        201.67	    15.556
   6.360        184.17	    14.866
   6.380        180.00	    14.697
   6.400        203.33	    15.620
   6.420        190.83	    15.133
   6.440        185.00	    14.900
   6.460        200.00	    15.492
   6.480        196.67	    15.362
   6.500        192.50	    15.199
   6.520        196.67	    15.362
   6.540        182.50	    14.799
   6.560        208.33	    15.811
   6.580        187.50	    15.000
   6.600        186.67	    14.967
   6.620        199.17	    15.460
   6.640        177.50	    14.595
   6.660        195.00	    15.297
   6.680        193.33	    15.232
   6.700        190.83	    15.133
   6.720        185.83	    14.933
   6.740        195.83	    15.330
   6.760        191.67	    15.166
   6.780        194.17	    15.264
   6.800        154.17	    13.601
   6.820        159.17	    13.820
   6.840        163.33	    14.000
   6.860        169.17	    14.248
   6.880        152.50	    13.528
   6.900        175.00	    14.491
   6.920        167.50	    14.177
   6.940        170.83	    14.318
   6.960        183.33	    14.832
   6.980        182.50	    14.799
   7.000        169.17	    14.248
   7.020        183.33	    14.832
   7.040        182.50	    14.799
   7.060        158.33	    13.784
   7.080        164.17	    14.036
   7.100        175.83	    14.526
   7.120        165.00	    14.071
   7.140        154.17	    13.601
   7.160        161.67	    13.928
   7.180        176.67	    14.560
   7.200        166.67	    14.142
   7.220        155.00	    13.638
   7.240        155.83	    13.675
   7.260        180.83	    14.731
   7.280        161.67	    13.928
   7.300        170.83	    14.318
   7.320        155.83	    13.675
   7.340        157.50	    13.748
   7.360        173.33	    14.422
   7.380        135.83	    12.767
   7.400        160.83	    13.892
   7.420        167.50	    14.177
   7.440        178.33	    14.629
   7.460        141.67	    13.038
   7.480        156.67	    13.711
   7.500        150.83	    13.454
   7.520        152.50	    13.528
   7.540        145.00	    13.191
   7.560        144.17	    13.153
   7.580        158.33	    13.784
   7.600        129.17	    12.450
   7.620        130.83	    12.530
   7.640        160.00	    13.856
   7.660        131.67	    12.570
   7.680        168.33	    14.213
   7.700        174.17	    14.457
   7.720        177.50	    14.595
   7.740        136.67	    12.806
   7.760        171.67	    14.353
   7.780        164.17	    14.036
   7.800        167.50	    14.177
   7.820        155.00	    13.638
   7.840        160.83	    13.892
   7.860        159.17	    13.820
   7.880        137.50	    12.845
   7.900        156.67	    13.711
   7.920        170.00	    14.283
   7.940        167.50	    14.177
   7.960        160.00	    13.856
   7.980        164.17	    14.036
   8.000        172.50	    14.387
   8.020        145.00	    13.191
   8.040        168.33	    14.213
   8.060        166.67	    14.142
   8.080        154.17	    13.601
   8.100        145.00	    13.191
   8.120        159.17	    13.820
   8.140        153.33	    13.565
   8.160        149.17	    13.379
   8.180        143.33	    13.115
   8.200        170.00	    14.283
   8.220        166.67	    14.142
   8.240        167.50	    14.177
   8.260        157.50	    13.748
   8.280        162.50	    13.964
   8.300        178.33	    14.629
   8.320        158.33	    13.784
   8.340        161.67	    13.928
   8.360        158.33	    13.784
   8.380        171.67	    14.353
   8.400        173.33	    14.422
   8.420        174.17	    14.457
   8.440        146.67	    13.266
   8.460        173.33	    14.422
   8.480        178.33	    14.629
   8.500        190.83	    15.133
   8.520        205.83	    15.716
   8.540        195.00	    15.297
   8.560        229.17	    16.583
   8.580        230.83	    16.643
   8.600        265.00	    17.833
   8.620        304.17	    19.105
   8.640        320.83	    19.621
   8.660        345.83	    20.372
   8.680        379.17	    21.331
   8.700        375.83	    21.237
   8.720        422.50	    22.517
   8.740        533.33	    25.298
   8.760        739.17	    29.783
   8.780        928.33	    33.377
   8.800        947.50	    33.719
   8.820        702.50	    29.034
   8.840        460.00	    23.495
   8.860        259.17	    17.635
   8.880        196.67	    15.362
   8.900        180.00	    14.697
   8.920        167.50	    14.177
   8.940        194.17	    15.264
   8.960        169.17	    14.248
   8.980        162.50	    13.964
   9.000        145.83	    13.229
   9.020        155.00	    13.638
   9.040        147.50	    13.304
   9.060        143.33	    13.115
   9.080        128.33	    12.410
   9.100        152.50	    13.528
   9.120        143.33	    13.115
   9.140        131.67	    12.570
   9.160        128.33	    12.410
   9.180        137.50	    12.845
   9.200        140.00	    12.961
   9.220        137.50	    12.845
   9.240        115.00	    11.747
   9.260        149.17	    13.379
   9.280        143.33	    13.115
   9.300        138.33	    12.884
   9.320        120.00	    12.000
   9.340        141.67	    13.038
   9.360        151.67	    13.491
   9.380        150.00	    13.416
   9.400        119.17	    11.958
   9.420        119.17	    11.958
   9.440        130.83	    12.530
   9.460        115.00	    11.747
   9.480        134.17	    12.689
   9.500        109.17	    11.446
   9.520        119.17	    11.958
   9.540        112.50	    11.619
   9.560        130.00	    12.490
   9.580        124.17	    12.207
   9.600        110.00	    11.489
   9.620        125.00	    12.247
   9.640        134.17	    12.689
   9.660        133.33	    12.649
   9.680        118.33	    11.916
   9.700        112.50	    11.619
   9.720        115.00	    11.747
   9.740        114.17	    11.705
   9.760        116.67	    11.832
   9.780        105.83	    11.269
   9.800        104.17	    11.180
   9.820        114.17	    11.705
   9.840        123.33	    12.166
   9.860        116.67	    11.832
   9.880        120.00	    12.000
   9.900        116.67	    11.832
   9.920        118.33	    11.916
   9.940        107.50	    11.358
   9.960        102.50	    11.091
   9.980         97.50	    10.817
  10.000        100.00	    10.954
  10.020        110.83	    11.533
  10.040         99.17	    10.909
  10.060        100.00	    10.954
  10.080        114.17	    11.705
  10.100        105.83	    11.269
  10.120        105.83	    11.269
  10.140        120.00	    12.000
  10.160         99.17	    10.909
  10.180        111.67	    11.576
  10.200        117.50	    11.874
  10.220        115.00	    11.747
  10.240        110.00	    11.489
  10.260        114.17	    11.705
  10.280        115.00	    11.747
  10.300         95.00	    10.677
  10.320        117.50	    11.874
  10.340        125.00	    12.247
  10.360        103.33	    11.136
  10.380        129.17	    12.450
  10.400        125.83	    12.288
  10.420        138.33	    12.884
  10.440        135.00	    12.728
  10.460        140.83	    13.000
  10.480        133.33	    12.649
  10.500        118.33	    11.916
  10.520        105.83	    11.269
  10.540        115.00	    11.747
  10.560        109.17	    11.446
  10.580        108.33	    11.402
  10.600         98.33	    10.863
  10.620        108.33	    11.402
  10.640        116.67	    11.832
  10.660        103.33	    11.136
  10.680        109.17	    11.446
  10.700        110.00	    11.489
  10.720        103.33	    11.136
  10.740         92.50	    10.536
  10.760        106.67	    11.314
  10.780         97.50	    10.817
  10.800        120.00	    12.000
  10.820        103.33	    11.136
  10.840        110.83	    11.533
  10.860        105.00	    11.225
  10.880         95.83	    10.724
  10.900        108.33	    11.402
  10.920        106.67	    11.314
  10.940        100.83	    11.000
  10.960         95.00	    10.677
  10.980        103.33	    11.136
  11.000         76.67	     9.592
  11.020         93.33	    10.583
  11.040         93.33	    10.583
  11.060         89.17	    10.344
  11.080         83.33	    10.000
  11.100         90.83	    10.440
  11.120        110.00	    11.489
  11.140         95.83	    10.724
  11.160         95.00	    10.677
  11.180        102.50	    11.091
  11.200         98.33	    10.863
  11.220        103.33	    11.136
  11.240         97.50	    10.817
  11.260         90.00	    10.392
  11.280        104.17	    11.180
  11.300         95.83	    10.724
  11.320        105.83	    11.269
  11.340        100.00	    10.954
  11.360        100.00	    10.954
  11.380         81.67	     9.899
  11.400         84.17	    10.050
  11.420         93.33	    10.583
  11.440         89.17	    10.344
  11.460        105.00	    11.225
  11.480         98.33	    10.863
  11.500        103.33	    11.136
  11.520         99.17	    10.909
  11.540         90.83	    10.440
  11.560        105.00	    11.225
  11.580         89.17	    10.344
  11.600         89.17	    10.344
  11.620         96.67	    10.770
  11.640        102.50	    11.091
  11.660        100.00	    10.954
  11.680         93.33	    10.583
  11.700        103.33	    11.136
  11.720        100.83	    11.000
  11.740         84.17	    10.050
  11.760         90.00	    10.392
  11.780        103.33	    11.136
  11.800        101.67	    11.045
  11.820        104.17	    11.180
  11.840         97.50	    10.817
  11.860        102.50	    11.091
  11.880        118.33	    11.916
  11.900        118.33	    11.916
  11.920        101.67	    11.045
  11.940        109.17	    11.446
  11.960        101.67	    11.045
  11.980         90.00	    10.392
  12.000         87.50	    10.247
  12.020        115.83	    11.790
  12.040        128.33	    12.410
  12.060        129.17	    12.450
  12.080        146.67	    13.266
  12.100        131.67	    12.570
  12.120        120.00	    12.000
  12.140        143.33	    13.115
  12.160        135.83	    12.767
  12.180        120.00	    12.000
  12.200        123.33	    12.166
  12.220        135.83	    12.767
  12.240        117.50	    11.874
  12.260        128.33	    12.410
  12.280        144.17	    13.153
  12.300        165.83	    14.107
  12.320        146.67	    13.266
  12.340        177.50	    14.595
  12.360        196.67	    15.362
  12.380        267.50	    17.916
  12.400        385.00	    21.494
  12.420        395.83	    21.794
  12.440        348.33	    20.445
  12.460        276.67	    18.221
  12.480        176.67	    14.560
  12.500        117.50	    11.874
  12.520        120.00	    12.000
  12.540        101.67	    11.045
  12.560        110.83	    11.533
  12.580         80.83	     9.849
  12.600         90.00	    10.392
  12.620         96.67	    10.770
  12.640         85.83	    10.149
  12.660         80.83	     9.849
  12.680         97.50	    10.817
  12.700         80.00	     9.798
  12.720         80.83	     9.849
  12.740         87.50	    10.247
  12.760         74.17	     9.434
  12.780         81.67	     9.899
  12.800         85.83	    10.149
  12.820         83.33	    10.000
  12.840         84.17	    10.050
  12.860         80.83	     9.849
  12.880         66.67	     8.944
  12.900         75.83	     9.539
  12.920         91.67	    10.488
  12.940         79.17	     9.747
  12.960         89.17	    10.344
  12.980         87.50	    10.247
  13.000         88.33	    10.296
  13.020         70.83	     9.220
  13.040         95.83	    10.724
  13.060         99.17	    10.909
  13.080         88.33	    10.296
  13.100         90.00	    10.392
  13.120         88.33	    10.296
  13.140         81.67	     9.899
  13.160         80.00	     9.798
  13.180         98.33	    10.863
  13.200         84.17	    10.050
  13.220         85.00	    10.100
  13.240         75.83	     9.539
  13.260         78.33	     9.695
  13.280         79.17	     9.747
  13.300         85.83	    10.149
  13.320         85.83	    10.149
  13.340         85.83	    10.149
  13.360         94.17	    10.630
  13.380         80.83	     9.849
  13.400         69.17	     9.110
  13.420         80.00	     9.798
  13.440        100.00	    10.954
  13.460         75.00	     9.487
  13.480         97.50	    10.817
  13.500         78.33	     9.695
  13.520         90.83	    10.440
  13.540         97.50	    10.817
  13.560         81.67	     9.899
  13.580         76.67	     9.592
  13.600         81.67	     9.899
  13.620         81.67	     9.899
  13.640         71.67	     9.274
  13.660         84.17	    10.050
  13.680         83.33	    10.000
  13.700         72.50	     9.327
  13.720        104.17	    11.180
  13.740        115.00	    11.747
  13.760        120.00	    12.000
  13.780        106.67	    11.314
  13.800         98.33	    10.863
  13.820        101.67	    11.045
  13.840         95.00	    10.677
  13.860         94.17	    10.630
  13.880        107.50	    11.358
  13.900         78.33	     9.695
  13.920         86.67	    10.198
  13.940         76.67	     9.592
  13.960         82.50	     9.950
  13.980         85.83	    10.149
  14.000         75.83	     9.539
  14.020         80.83	     9.849
  14.040         80.00	     9.798
  14.060         74.17	     9.434
  14.080         83.33	    10.000
  14.100         75.00	     9.487
  14.120         85.83	    10.149
  14.140         63.33	     8.718
  14.160         85.00	    10.100
  14.180         93.33	    10.583
  14.200         69.17	     9.110
  14.220         86.67	    10.198
  14.240         65.83	     8.888
  14.260         80.83	     9.849
  14.280         84.17	    10.050
  14.300         74.17	     9.434
  14.320         80.00	     9.798
  14.340         80.83	     9.849
  14.360         85.00	    10.100
  14.380         82.50	     9.950
  14.400         82.50	     9.950
  14.420         71.67	     9.274
  14.440         66.67	     8.944
  14.460         70.83	     9.220
  14.480         73.33	     9.381
  14.500         89.17	    10.344
  14.520         80.83	     9.849
  14.540         57.50	     8.307
  14.560         74.17	     9.434
  14.580         72.50	     9.327
  14.600         74.17	     9.434
  14.620         75.83	     9.539
  14.640         63.33	     8.718
  14.660         65.83	     8.888
  14.680         73.33	     9.381
  14.700         66.67	     8.944
  14.720         75.83	     9.539
  14.740         72.50	     9.327
  14.760         64.17	     8.775
  14.780         66.67	     8.944
  14.800         68.33	     9.055
  14.820         75.00	     9.487
  14.840         71.67	     9.274
  14.860         67.50	     9.000
  14.880         81.67	     9.899
  14.900         78.33	     9.695
  14.920         81.67	     9.899
  14.940         79.17	     9.747
  14.960         73.33	     9.381
  14.980         79.17	     9.747
  15.000         73.33	     9.381
  15.020         64.17	     8.775
  15.040         74.17	     9.434
  15.060         69.17	     9.110
  15.080         73.33	     9.381
  15.100         71.67	     9.274
  15.120         68.33	     9.055
  15.140         65.83	     8.888
  15.160         55.83	     8.185
  15.180         72.50	     9.327
  15.200         57.50	     8.307
  15.220         69.17	     9.110
  15.240         65.00	     8.832
  15.260         99.17	    10.909
  15.280         61.67	     8.602
  15.300         69.17	     9.110
  15.320         64.17	     8.775
  15.340         84.17	    10.050
  15.360         65.00	     8.832
  15.380         67.50	     9.000
  15.400         65.00	     8.832
  15.420         55.83	     8.185
  15.440         52.50	     7.937
  15.460         65.00	     8.832
  15.480         61.67	     8.602
  15.500         71.67	     9.274
  15.520         66.67	     8.944
  15.540         70.83	     9.220
  15.560         67.50	     9.000
  15.580         70.83	     9.220
  15.600         56.67	     8.246
  15.620         56.67	     8.246
  15.640         59.17	     8.426
  15.660         76.67	     9.592
  15.680         70.83	     9.220
  15.700         68.33	     9.055
  15.720         61.67	     8.602
  15.740         80.83	     9.849
  15.760         65.83	     8.888
  15.780         56.67	     8.246
  15.800         74.17	     9.434
  15.820         53.33	     8.000
  15.840         63.33	     8.718
  15.860         70.00	     9.165
  15.880         55.00	     8.124
  15.900         66.67	     8.944
  15.920         72.50	     9.327
  15.940         77.50	     9.644
  15.960         59.17	     8.426
  15.980         55.00	     8.124
  16.000         85.83	    10.149
  16.020         66.67	     8.944
  16.040         63.33	     8.718
  16.060         66.67	     8.944
  16.080         68.33	     9.055
  16.100         75.00	     9.487
  16.120         66.67	     8.944
  16.140         56.67	     8.246
  16.160         67.50	     9.000
  16.180         67.50	     9.000
  16.200         62.50	     8.660
  16.220         66.67	     8.944
  16.240         57.50	     8.307
  16.260         47.50	     7.550
  16.280         65.00	     8.832
  16.300         72.50	     9.327
  16.320         65.83	     8.888
  16.340         55.00	     8.124
  16.360         64.17	     8.775
  16.380         67.50	     9.000
  16.400         83.33	    10.000
  16.420         58.33	     8.367
  16.440         63.33	     8.718
  16.460         69.17	     9.110
  16.480         55.00	     8.124
  16.500         58.33	     8.367
  16.520         55.00	     8.124
  16.540         58.33	     8.367
  16.560         76.67	     9.592
  16.580         54.17	     8.062
  16.600         83.33	    10.000
  16.620         54.17	     8.062
  16.640         56.67	     8.246
  16.660         58.33	     8.367
  16.680         64.17	     8.775
  16.700         78.33	     9.695
  16.720         61.67	     8.602
  16.740         63.33	     8.718
  16.760         58.33	     8.367
  16.780         83.33	    10.000
  16.800         75.83	     9.539
  16.820         66.67	     8.944
  16.840         78.33	     9.695
  16.860         67.50	     9.000
  16.880         55.00	     8.124
  16.900         62.50	     8.660
  16.920         53.33	     8.000
  16.940         64.17	     8.775
  16.960         65.00	     8.832
  16.980         59.17	     8.426
  17.000         60.00	     8.485
  17.020         60.00	     8.485
  17.040         52.50	     7.937
  17.060         79.17	     9.747
  17.080         74.17	     9.434
  17.100         63.33	     8.718
  17.120         57.50	     8.307
  17.140         56.67	     8.246
  17.160         69.17	     9.110
  17.180         70.00	     9.165
  17.200         73.33	     9.381
  17.220         59.17	     8.426
  17.240         58.33	     8.367
  17.260         65.83	     8.888
  17.280         67.50	     9.000
  17.300         70.00	     9.165
  17.320         66.67	     8.944
  17.340         73.33	     9.381
  17.360         70.00	     9.165
  17.380         82.50	     9.950
  17.400         87.50	    10.247
  17.420         80.83	     9.849
  17.440         70.83	     9.220
  17.460         74.17	     9.434
  17.480         76.67	     9.592
  17.500         74.17	     9.434
  17.520         75.83	     9.539
  17.540         90.83	    10.440
  17.560        100.83	    11.000
  17.580         83.33	    10.000
  17.600         96.67	    10.770
  17.620         94.17	    10.630
  17.640        142.50	    13.077
  17.660        178.33	    14.629
  17.680        271.67	    18.055
  17.700        322.50	    19.672
  17.720        379.17	    21.331
  17.740        398.33	    21.863
  17.760        350.00	    20.494
  17.780        257.50	    17.578
  17.800        178.33	    14.629
  17.820        125.83	    12.288
  17.840         90.83	    10.440
  17.860         84.17	    10.050
  17.880         90.83	    10.440
  17.900         85.00	    10.100
  17.920         75.00	     9.487
  17.940         66.67	     8.944
  17.960         69.17	     9.110
  17.980         61.67	     8.602
  18.000         65.83	     8.888
  18.020         77.50	     9.644
  18.040         69.17	     9.110
  18.060         69.17	     9.110
  18.080         62.50	     8.660
  18.100         55.83	     8.185
  18.120         70.00	     9.165
  18.140         60.83	     8.544
  18.160         70.83	     9.220
  18.180         70.00	     9.165
  18.200         61.67	     8.602
  18.220         76.67	     9.592
  18.240         64.17	     8.775
  18.260         60.00	     8.485
  18.280         75.00	     9.487
  18.300         66.67	     8.944
  18.320         73.33	     9.381
  18.340         62.50	     8.660
  18.360         64.17	     8.775
  18.380         74.17	     9.434
  18.400         60.83	     8.544
  18.420         86.67	    10.198
  18.440         69.17	     9.110
  18.460         75.00	     9.487
  18.480         99.17	    10.909
  18.500         72.50	     9.327
  18.520         74.17	     9.434
  18.540         82.50	     9.950
  18.560         77.50	     9.644
  18.580         72.50	     9.327
  18.600         92.50	    10.536
  18.620         77.50	     9.644
  18.640         85.00	    10.100
  18.660        103.33	    11.136
  18.680        133.33	    12.649
  18.700        160.83	    13.892
  18.720        164.17	    14.036
  18.740        150.83	    13.454
  18.760        125.83	    12.288
  18.780        100.00	    10.954
  18.800         76.67	     9.592
  18.820         65.83	     8.888
  18.840         71.67	     9.274
  18.860         71.67	     9.274
  18.880         71.67	     9.274
  18.900         63.33	     8.718
  18.920         67.50	     9.000
  18.940         57.50	     8.307
  18.960         51.67	     7.874
  18.980         51.67	     7.874
  19.000         57.50	     8.307
  19.020         71.67	     9.274
  19.040         68.33	     9.055
  19.060         67.50	     9.000
  19.080         58.33	     8.367
  19.100         63.33	     8.718
  19.120         75.00	     9.487
  19.140         75.00	     9.487
  19.160         60.83	     8.544
  19.180         61.67	     8.602
  19.200         64.17	     8.775
  19.220         60.00	     8.485
  19.240         55.83	     8.185
  19.260         62.50	     8.660
  19.280         69.17	     9.110
  19.300         67.50	     9.000
  19.320         69.17	     9.110
  19.340         66.67	     8.944
  19.360         65.00	     8.832
  19.380         58.33	     8.367
  19.400         63.33	     8.718
  19.420         62.50	     8.660
  19.440         54.17	     8.062
  19.460         75.00	     9.487
  19.480         76.67	     9.592
  19.500         74.17	     9.434
  19.520         83.33	    10.000
  19.540         76.67	     9.592
  19.560         75.83	     9.539
  19.580         85.00	    10.100
  19.600         70.83	     9.220
  19.620         74.17	     9.434
  19.640         90.00	    10.392
  19.660         75.83	     9.539
  19.680         87.50	    10.247
  19.700         84.17	    10.050
  19.720         92.50	    10.536
  19.740         74.17	     9.434
  19.760         90.83	    10.440
  19.780         99.17	    10.909
  19.800         89.17	    10.344
  19.820         88.33	    10.296
  19.840         82.50	     9.950
  19.860         76.67	     9.592
  19.880         75.83	     9.539
  19.900         80.00	     9.798
  19.920         57.50	     8.307
  19.940         75.00	     9.487
  19.960         84.17	    10.050
  19.980         70.00	     9.165
  20.000         63.33	     8.718
  20.020         65.00	     8.832
  20.040         70.00	     9.165
  20.060         70.83	     9.220
  20.080         66.67	     8.944
  20.100         70.83	     9.220
  20.120         58.33	     8.367
  20.140         52.50	     7.937
  20.160         77.50	     9.644
  20.180         65.83	     8.888
  20.200         65.83	     8.888
  20.220         62.50	     8.660
  20.240         62.50	     8.660
  20.260         52.50	     7.937
  20.280         73.33	     9.381
  20.300         60.00	     8.485
  20.320         53.33	     8.000
  20.340         60.00	     8.485
  20.360         55.00	     8.124
  20.380         60.00	     8.485
  20.400         54.17	     8.062
  20.420         63.33	     8.718
  20.440         66.67	     8.944
  20.460         70.83	     9.220
  20.480         58.33	     8.367
  20.500         70.83	     9.220
  20.520         58.33	     8.367
  20.540         69.17	     9.110
  20.560         64.17	     8.775
  20.580         70.00	     9.165
  20.600         70.00	     9.165
  20.620         77.50	     9.644
  20.640         76.67	     9.592
  20.660         80.00	     9.798
  20.680        113.33	    11.662
  20.700        138.33	    12.884
  20.720        260.00	    17.664
  20.740        480.00	    24.000
  20.760        565.83	    26.058
  20.780        497.50	    24.434
  20.800        434.17	    22.825
  20.820        314.17	    19.416
  20.840        247.50	    17.234
  20.860        148.33	    13.342
  20.880        146.67	    13.266
  20.900        122.50	    12.124
  20.920        103.33	    11.136
  20.940        101.67	    11.045
  20.960         94.17	    10.630
  20.980         76.67	     9.592
  21.000         93.33	    10.583
  21.020         76.67	     9.592
  21.040         59.17	     8.426
  21.060         58.33	     8.367
  21.080         57.50	     8.307
  21.100         65.83	     8.888
  21.120         75.00	     9.487
  21.140         61.67	     8.602
  21.160         60.83	     8.544
  21.180         57.50	     8.307
  21.200         63.33	     8.718
  21.220         58.33	     8.367
  21.240         56.67	     8.246
  21.260         51.67	     7.874
  21.280         62.50	     8.660
  21.300         68.33	     9.055
  21.320         55.83	     8.185
  21.340         49.17	     7.681
  21.360         55.00	     8.124
  21.380         57.50	     8.307
  21.400         66.67	     8.944
  21.420         55.83	     8.185
  21.440         49.17	     7.681
  21.460         68.33	     9.055
  21.480         71.67	     9.274
  21.500         51.67	     7.874
  21.520         65.00	     8.832
  21.540         71.67	     9.274
  21.560         53.33	     8.000
  21.580         65.83	     8.888
  21.600         57.50	     8.307
  21.620         57.50	     8.307
  21.640         56.67	     8.246
  21.660         66.67	     8.944
  21.680         65.83	     8.888
  21.700         57.50	     8.307
  21.720         55.00	     8.124
  21.740         68.33	     9.055
  21.760         61.67	     8.602
  21.780         60.00	     8.485
  21.800         68.33	     9.055
  21.820         75.83	     9.539
  21.840         86.67	    10.198
  21.860         86.67	    10.198
  21.880        100.00	    10.954
  21.900        134.17	    12.689
  21.920        153.33	    13.565
  21.940        239.17	    16.941
  21.960        246.67	    17.205
  21.980        210.83	    15.906
  22.000        184.17	    14.866
  22.020        139.17	    12.923
  22.040        109.17	    11.446
  22.060         76.67	     9.592
  22.080         54.17	     8.062
  22.100         56.67	     8.246
  22.120         60.83	     8.544
  22.140         63.33	     8.718
  22.160         58.33	     8.367
  22.180         64.17	     8.775
  22.200         72.50	     9.327
  22.220         71.67	     9.274
  22.240         71.67	     9.274
  22.260         66.67	     8.944
  22.280         68.33	     9.055
  22.300         60.83	     8.544
  22.320         57.50	     8.307
  22.340         61.67	     8.602
  22.360         62.50	     8.660
  22.380         70.00	     9.165
  22.400         90.00	    10.392
  22.420         75.83	     9.539
  22.440         68.33	     9.055
  22.460         85.83	    10.149
  22.480         57.50	     8.307
  22.500         69.17	     9.110
  22.520         46.67	     7.483
  22.540         49.17	     7.681
  22.560         60.83	     8.544
  22.580         58.33	     8.367
  22.600         55.83	     8.185
  22.620         76.67	     9.592
  22.640         67.50	     9.000
  22.660         74.17	     9.434
  22.680         58.33	     8.367
  22.700         54.17	     8.062
  22.720         73.33	     9.381
  22.740         56.67	     8.246
  22.760         81.67	     9.899
  22.780         81.67	     9.899
  22.800         77.50	     9.644
  22.820         94.17	    10.630
  22.840         95.00	    10.677
  22.860         77.50	     9.644
  22.880         88.33	    10.296
  22.900         84.17	    10.050
  22.920         93.33	    10.583
  22.940        103.33	    11.136
  22.960        146.67	    13.266
  22.980        150.83	    13.454
  23.000        127.50	    12.369
  23.020         95.00	    10.677
  23.040         97.50	    10.817
  23.060         89.17	    10.344
  23.080         75.83	     9.539
  23.100         68.33	     9.055
  23.120         66.67	     8.944
  23.140         75.83	     9.539
  23.160         59.17	     8.426
  23.180         69.17	     9.110
  23.200         68.33	     9.055
  23.220         69.17	     9.110
  23.240         61.67	     8.602
  23.260         63.33	     8.718
  23.280         65.83	     8.888
  23.300         60.83	     8.544
  23.320         78.33	     9.695
  23.340         83.33	    10.000
  23.360         92.50	    10.536
  23.380        103.33	    11.136
  23.400        185.83	    14.933
  23.420        270.83	    18.028
  23.440        262.50	    17.748
  23.460        262.50	    17.748
  23.480        232.50	    16.703
  23.500        186.67	    14.967
  23.520        143.33	    13.115
  23.540        106.67	    11.314
  23.560         94.17	    10.630
  23.580         81.67	     9.899
  23.600        103.33	    11.136
  23.620         77.50	     9.644
  23.640         77.50	     9.644
  23.660        103.33	    11.136
  23.680         76.67	     9.592
  23.700         97.50	    10.817
  23.720         96.67	    10.770
  23.740         84.17	    10.050
  23.760         83.33	    10.000
  23.780         77.50	     9.644
  23.800         91.67	    10.488
  23.820         84.17	    10.050
  23.840         78.33	     9.695
  23.860         70.00	     9.165
  23.880         80.00	     9.798
  23.900         64.17	     8.775
  23.920         85.00	    10.100
  23.940         91.67	    10.488
  23.960         94.17	    10.630
  23.980         77.50	     9.644
  24.000         72.50	     9.327
  24.020         85.00	    10.100
  24.040         85.83	    10.149
  24.060        120.83	    12.042
  24.080         86.67	    10.198
  24.100        102.50	    11.091
  24.120        108.33	    11.402
  24.140        101.67	    11.045
  24.160        121.67	    12.083
  24.180        136.67	    12.806
  24.200        182.50	    14.799
  24.220        165.83	    14.107
  24.240        129.17	    12.450
  24.260        131.67	    12.570
  24.280        108.33	    11.402
  24.300        107.50	    11.358
  24.320         72.50	     9.327
  24.340         69.17	     9.110
  24.360         83.33	    10.000
  24.380         86.67	    10.198
  24.400         81.67	     9.899
  24.420         67.50	     9.000
  24.440         81.67	     9.899
  24.460         80.83	     9.849
  24.480         89.17	    10.344
  24.500         90.00	    10.392
  24.520         90.00	    10.392
  24.540         85.00	    10.100
  24.560         96.67	    10.770
  24.580         83.33	    10.000
  24.600         98.33	    10.863
  24.620         95.00	    10.677
  24.640         91.67	    10.488
  24.660         74.17	     9.434
  24.680         78.33	     9.695
  24.700         92.50	    10.536
  24.720         95.83	    10.724
  24.740         90.83	    10.440
  24.760         85.83	    10.149
  24.780         99.17	    10.909
  24.800        108.33	    11.402
  24.820         79.17	     9.747
  24.840         75.83	     9.539
  24.860         80.00	     9.798
  24.880         82.50	     9.950
  24.900         88.33	    10.296
  24.920         95.00	    10.677
  24.940         99.17	    10.909
  24.960        116.67	    11.832
  24.980        125.00	    12.247
  25.000        148.33	    13.342
  25.020        160.00	    13.856
  25.040        265.83	    17.861
  25.060        325.00	    19.748
  25.080        320.00	    19.596
  25.100        258.33	    17.607
  25.120        235.83	    16.823
  25.140        210.83	    15.906
  25.160        167.50	    14.177
  25.180        133.33	    12.649
  25.200         97.50	    10.817
  25.220         82.50	     9.950
  25.240         95.00	    10.677
  25.260        101.67	    11.045
  25.280         95.83	    10.724
  25.300         92.50	    10.536
  25.320        112.50	    11.619
  25.340        144.17	    13.153
  25.360        138.33	    12.884
  25.380        153.33	    13.565
  25.400        164.17	    14.036
  25.420        163.33	    14.000
  25.440        194.17	    15.264
  25.460        159.17	    13.820
  25.480        145.83	    13.229
  25.500        132.50	    12.610
  25.520        145.83	    13.229
  25.540        162.50	    13.964
  25.560        129.17	    12.450
  25.580        125.00	    12.247
  25.600        123.33	    12.166
  25.620        116.67	    11.832
  25.640        103.33	    11.136
  25.660        100.83	    11.000
  25.680         94.17	    10.630
  25.700         79.17	     9.747
  25.720         69.17	     9.110
  25.740         88.33	    10.296
  25.760         81.67	     9.899
  25.780         68.33	     9.055
  25.800         78.33	     9.695
  25.820         74.17	     9.434
  25.840         79.17	     9.747
  25.860         88.33	    10.296
  25.880         58.33	     8.367
  25.900         75.00	     9.487
  25.920         67.50	     9.000
  25.940         84.17	    10.050
  25.960         76.67	     9.592
  25.980         84.17	    10.050
  26.000         71.67	     9.274
  26.020         63.33	     8.718
  26.040         87.50	    10.247
  26.060         82.50	     9.950
  26.080         82.50	     9.950
  26.100         95.83	    10.724
  26.120         90.00	    10.392
  26.140         89.17	    10.344
  26.160         85.00	    10.100
  26.180         84.17	    10.050
  26.200        108.33	    11.402
  26.220        100.00	    10.954
  26.240        110.00	    11.489
  26.260        124.17	    12.207
  26.280        170.83	    14.318
  26.300        180.00	    14.697
  26.320        206.67	    15.748
  26.340        228.33	    16.553
  26.360        270.00	    18.000
  26.380        270.00	    18.000
  26.400        267.50	    17.916
  26.420        293.33	    18.762
  26.440        360.00	    20.785
  26.460        404.17	    22.023
  26.480        615.83	    27.185
  26.500        916.67	    33.166
  26.520       1737.50	    45.662
  26.540       2515.00	    54.936
  26.560       2388.33	    53.535
  26.580       1698.33	    45.144
  26.600       1464.17	    41.917
  26.620       1417.50	    41.243
  26.640        971.67	    34.147
  26.660        650.00	    27.928
  26.680        556.67	    25.846
  26.700        615.00	    27.166
  26.720        835.00	    31.654
  26.740        875.83	    32.419
  26.760       1057.50	    35.623
  26.780       1097.50	    36.290
  26.800        958.33	    33.912
  26.820        808.33	    31.145
  26.840        665.83	    28.267
  26.860        551.67	    25.729
  26.880        385.00	    21.494
  26.900        301.67	    19.026
  26.920        206.67	    15.748
  26.940        145.83	    13.229
  26.960        155.00	    13.638
  26.980        136.67	    12.806
  27.000        128.33	    12.410
  27.020        120.00	    12.000
  27.040        139.17	    12.923
  27.060        103.33	    11.136
  27.080         92.50	    10.536
  27.100         88.33	    10.296
  27.120         86.67	    10.198
  27.140         95.00	    10.677
  27.160         93.33	    10.583
  27.180         81.67	     9.899
  27.200         89.17	    10.344
  27.220         87.50	    10.247
  27.240         85.83	    10.149
  27.260         80.00	     9.798
  27.280         85.83	    10.149
  27.300         97.50	    10.817
  27.320        104.17	    11.180
  27.340        119.17	    11.958
  27.360        128.33	    12.410
  27.380        128.33	    12.410
  27.400        145.83	    13.229
  27.420        142.50	    13.077
  27.440        154.17	    13.601
  27.460        145.83	    13.229
  27.480        111.67	    11.576
  27.500        107.50	    11.358
  27.520         76.67	     9.592
  27.540        100.00	    10.954
  27.560         97.50	    10.817
  27.580        151.67	    13.491
  27.600        179.17	    14.663
  27.620        232.50	    16.703
  27.640        306.67	    19.183
  27.660        323.33	    19.698
  27.680        291.67	    18.708
  27.700        299.17	    18.947
  27.720        328.33	    19.849
  27.740        320.00	    19.596
  27.760        306.67	    19.183
  27.780        345.83	    20.372
  27.800        499.17	    24.474
  27.820        799.17	    30.968
  27.840        825.00	    31.464
  27.860        688.33	    28.740
  27.880        706.67	    29.120
  27.900        681.67	    28.601
  27.920        527.50	    25.159
  27.940        347.50	    20.421
  27.960        279.17	    18.303
  27.980        197.50	    15.395
  28.000        182.50	    14.799
  28.020        284.17	    18.466
  28.040        245.00	    17.146
  28.060        173.33	    14.422
  28.080        169.17	    14.248
  28.100        200.00	    15.492
  28.120        158.33	    13.784
  28.140        117.50	    11.874
  28.160         98.33	    10.863
  28.180        145.00	    13.191
  28.200        120.00	    12.000
  28.220        140.83	    13.000
  28.240        113.33	    11.662
  28.260        121.67	    12.083
  28.280        108.33	    11.402
  28.300        106.67	    11.314
  28.320         86.67	    10.198
  28.340         80.83	     9.849
  28.360         63.33	     8.718
  28.380         78.33	     9.695
  28.400         86.67	    10.198
  28.420         70.00	     9.165
  28.440         71.67	     9.274
  28.460         76.67	     9.592
  28.480         75.00	     9.487
  28.500         77.50	     9.644
  28.520         88.33	    10.296
  28.540         80.83	     9.849
  28.560        102.50	    11.091
  28.580        100.00	    10.954
  28.600         97.50	    10.817
  28.620         95.83	    10.724
  28.640         94.17	    10.630
  28.660         86.67	    10.198
  28.680         80.83	     9.849
  28.700         77.50	     9.644
  28.720         78.33	     9.695
  28.740         76.67	     9.592
  28.760         76.67	     9.592
  28.780         64.17	     8.775
  28.800         60.83	     8.544
  28.820         69.17	     9.110
  28.840         70.83	     9.220
  28.860         41.67	     7.071
  28.880         58.33	     8.367
  28.900         50.83	     7.810
  28.920         52.50	     7.937
  28.940         55.00	     8.124
  28.960         52.50	     7.937
  28.980         59.17	     8.426
  29.000         56.67	     8.246
  29.020         49.17	     7.681
  29.040         55.83	     8.185
  29.060         46.67	     7.483
  29.080         61.67	     8.602
  29.100         56.67	     8.246
  29.120         42.50	     7.141
  29.140         59.17	     8.426
  29.160         48.33	     7.616
  29.180         51.67	     7.874
  29.200         41.67	     7.071
  29.220         60.00	     8.485
  29.240         45.00	     7.348
  29.260         63.33	     8.718
  29.280         51.67	     7.874
  29.300         50.00	     7.746
  29.320         59.17	     8.426
  29.340         60.00	     8.485
  29.360         45.83	     7.416
  29.380         51.67	     7.874
  29.400         53.33	     8.000
  29.420         60.83	     8.544
  29.440         50.83	     7.810
  29.460         52.50	     7.937
  29.480         60.83	     8.544
  29.500         64.17	     8.775
  29.520         64.17	     8.775
  29.540         70.83	     9.220
  29.560         58.33	     8.367
  29.580         62.50	     8.660
  29.600         69.17	     9.110
  29.620         54.17	     8.062
  29.640         70.00	     9.165
  29.660         78.33	     9.695
  29.680         81.67	     9.899
  29.700         97.50	    10.817
  29.720        122.50	    12.124
  29.740        125.83	    12.288
  29.760        120.00	    12.000
  29.780        145.83	    13.229
  29.800        150.83	    13.454
  29.820        117.50	    11.874
  29.840        110.83	    11.533
  29.860        117.50	    11.874
  29.880        115.83	    11.790
  29.900        102.50	    11.091
  29.920         85.00	    10.100
  29.940         90.00	    10.392
  29.960         91.67	    10.488
  29.980         88.33	    10.296
  30.000        111.67	    11.576
  30.020        100.83	    11.000
  30.040         93.33	    10.583
  30.060         79.17	     9.747
  30.080         85.00	    10.100
  30.100         97.50	    10.817
  30.120         67.50	     9.000
  30.140         87.50	    10.247
  30.160         70.83	     9.220
  30.180         80.00	     9.798
  30.200         82.50	     9.950
  30.220         78.33	     9.695
  30.240         88.33	    10.296
  30.260        100.83	    11.000
  30.280        102.50	    11.091
  30.300         91.67	    10.488
  30.320         93.33	    10.583
  30.340        106.67	    11.314
  30.360        120.00	    12.000
  30.380        122.50	    12.124
  30.400        136.67	    12.806
  30.420        117.50	    11.874
  30.440         95.00	    10.677
  30.460        105.00	    11.225
  30.480         94.17	    10.630
  30.500         71.67	     9.274
  30.520         68.33	     9.055
  30.540         53.33	     8.000
  30.560         62.50	     8.660
  30.580         47.50	     7.550
  30.600         58.33	     8.367
  30.620         51.67	     7.874
  30.640         65.83	     8.888
  30.660         65.83	     8.888
  30.680         70.00	     9.165
  30.700         81.67	     9.899
  30.720         80.83	     9.849
  30.740         95.00	    10.677
  30.760        165.00	    14.071
  30.780        204.17	    15.652
  30.800        152.50	    13.528
  30.820         95.83	    10.724
  30.840        105.83	    11.269
  30.860        129.17	    12.450
  30.880        120.00	    12.000
  30.900         83.33	    10.000
  30.920         70.83	     9.220
  30.940         78.33	     9.695
  30.960         71.67	     9.274
  30.980         99.17	    10.909
  31.000         79.17	     9.747
  31.020        100.83	    11.000
  31.040         90.83	    10.440
  31.060        113.33	    11.662
  31.080        154.17	    13.601
  31.100        219.17	    16.217
  31.120        231.67	    16.673
  31.140        179.17	    14.663
  31.160        166.67	    14.142
  31.180        188.33	    15.033
  31.200        163.33	    14.000
  31.220        145.00	    13.191
  31.240        105.83	    11.269
  31.260        115.83	    11.790
  31.280         99.17	    10.909
  31.300         70.00	     9.165
  31.320         85.00	    10.100
  31.340         89.17	    10.344
  31.360         60.83	     8.544
  31.380         70.00	     9.165
  31.400         74.17	     9.434
  31.420         67.50	     9.000
  31.440         70.83	     9.220
  31.460         71.67	     9.274
  31.480         93.33	    10.583
  31.500        106.67	    11.314
  31.520         85.00	    10.100
  31.540         90.00	    10.392
  31.560         90.83	    10.440
  31.580         75.00	     9.487
  31.600         65.83	     8.888
  31.620         61.67	     8.602
  31.640         55.83	     8.185
  31.660         63.33	     8.718
  31.680         52.50	     7.937
  31.700         56.67	     8.246
  31.720         43.33	     7.211
  31.740         63.33	     8.718
  31.760         57.50	     8.307
  31.780         69.17	     9.110
  31.800         50.00	     7.746
  31.820         64.17	     8.775
  31.840         72.50	     9.327
  31.860         67.50	     9.000
  31.880         64.17	     8.775
  31.900         66.67	     8.944
  31.920        102.50	    11.091
  31.940         73.33	     9.381
  31.960         92.50	    10.536
  31.980         81.67	     9.899
  32.000        116.67	    11.832
  32.020        107.50	    11.358
  32.040         91.67	    10.488
  32.060         90.83	    10.440
  32.080         90.00	    10.392
  32.100         70.83	     9.220
  32.120         79.17	     9.747
  32.140         54.17	     8.062
  32.160         45.83	     7.416
  32.180         59.17	     8.426
  32.200         61.67	     8.602
  32.220         50.00	     7.746
  32.240         54.17	     8.062
  32.260         55.00	     8.124
  32.280         57.50	     8.307
  32.300         50.83	     7.810
  32.320         46.67	     7.483
  32.340         39.17	     6.856
  32.360         54.17	     8.062
  32.380         51.67	     7.874
  32.400         53.33	     8.000
  32.420         46.67	     7.483
  32.440         55.00	     8.124
  32.460         43.33	     7.211
  32.480         55.00	     8.124
  32.500         40.00	     6.928
  32.520         45.83	     7.416
  32.540         44.17	     7.280
  32.560         46.67	     7.483
  32.580         35.00	     6.481
  32.600         46.67	     7.483
  32.620         46.67	     7.483
  32.640         55.00	     8.124
  32.660         59.17	     8.426
  32.680         49.17	     7.681
  32.700         58.33	     8.367
  32.720         41.67	     7.071
  32.740         50.83	     7.810
  32.760         54.17	     8.062
  32.780         48.33	     7.616
  32.800         51.67	     7.874
  32.820         52.50	     7.937
  32.840         50.00	     7.746
  32.860         58.33	     8.367
  32.880         44.17	     7.280
  32.900         62.50	     8.660
  32.920         53.33	     8.000
  32.940         70.00	     9.165
  32.960         50.00	     7.746
  32.980         41.67	     7.071
  33.000         55.00	     8.124
  33.020         68.33	     9.055
  33.040         64.17	     8.775
  33.060         41.67	     7.071
  33.080         43.33	     7.211
  33.100         38.33	     6.782
  33.120         61.67	     8.602
  33.140         32.50	     6.245
  33.160         46.67	     7.483
  33.180         35.83	     6.557
  33.200         51.67	     7.874
  33.220         36.67	     6.633
  33.240         48.33	     7.616
  33.260         50.00	     7.746
  33.280         36.67	     6.633
  33.300         35.83	     6.557
  33.320         52.50	     7.937
  33.340         47.50	     7.550
  33.360         45.83	     7.416
  33.380         58.33	     8.367
  33.400         44.17	     7.280
  33.420         45.83	     7.416
  33.440         49.17	     7.681
  33.460         33.33	     6.325
  33.480         45.83	     7.416
  33.500         41.67	     7.071
  33.520         46.67	     7.483
  33.540         50.00	     7.746
  33.560         43.33	     7.211
  33.580         47.50	     7.550
  33.600         42.50	     7.141
  33.620         48.33	     7.616
  33.640         50.83	     7.810
  33.660         49.17	     7.681
  33.680         51.67	     7.874
  33.700         54.17	     8.062
  33.720         56.67	     8.246
  33.740         55.83	     8.185
  33.760         51.67	     7.874
  33.780         71.67	     9.274
  33.800         70.00	     9.165
  33.820         61.67	     8.602
  33.840         68.33	     9.055
  33.860         62.50	     8.660
  33.880         65.00	     8.832
  33.900         65.00	     8.832
  33.920         54.17	     8.062
  33.940         56.67	     8.246
  33.960         78.33	     9.695
  33.980         73.33	     9.381
  34.000         52.50	     7.937
  34.020         65.83	     8.888
  34.040         56.67	     8.246
  34.060         58.33	     8.367
  34.080         48.33	     7.616
  34.100         58.33	     8.367
  34.120         58.33	     8.367
  34.140         47.50	     7.550
  34.160         61.67	     8.602
  34.180         56.67	     8.246
  34.200         65.83	     8.888
  34.220         49.17	     7.681
  34.240         54.17	     8.062
  34.260         53.33	     8.000
  34.280         58.33	     8.367
  34.300         68.33	     9.055
  34.320         55.83	     8.185
  34.340         69.17	     9.110
  34.360         82.50	     9.950
  34.380         82.50	     9.950
  34.400         81.67	     9.899
  34.420         89.17	    10.344
  34.440        100.00	    10.954
  34.460         96.67	    10.770
  34.480        100.00	    10.954
  34.500         85.83	    10.149
  34.520         83.33	    10.000
  34.540         96.67	    10.770
  34.560         98.33	    10.863
  34.580         96.67	    10.770
  34.600         75.83	     9.539
  34.620         76.67	     9.592
  34.640         61.67	     8.602
  34.660         78.33	     9.695
  34.680         70.00	     9.165
  34.700         76.67	     9.592
  34.720         75.83	     9.539
  34.740         92.50	    10.536
  34.760        110.83	    11.533
  34.780         98.33	    10.863
  34.800        122.50	    12.124
  34.820        120.00	    12.000
  34.840        124.17	    12.207
  34.860        140.83	    13.000
  34.880        135.00	    12.728
  34.900        135.83	    12.767
  34.920        136.67	    12.806
  34.940         96.67	    10.770
  34.960        100.00	    10.954
  34.980         92.50	    10.536
  35.000         98.33	    10.863
  35.020         88.33	    10.296
  35.040         71.67	     9.274
  35.060         65.00	     8.832
  35.080         73.33	     9.381
  35.100         71.67	     9.274
  35.120         67.50	     9.000
  35.140         87.50	    10.247
  35.160         77.50	     9.644
  35.180         70.00	     9.165
  35.200         68.33	     9.055
  35.220         66.67	     8.944
  35.240         62.50	     8.660
  35.260         74.17	     9.434
  35.280         66.67	     8.944
  35.300         58.33	     8.367
  35.320         60.83	     8.544
  35.340         70.83	     9.220
  35.360         72.50	     9.327
  35.380         65.00	     8.832
  35.400         70.00	     9.165
  35.420         75.83	     9.539
  35.440         68.33	     9.055
  35.460         57.50	     8.307
  35.480         70.00	     9.165
  35.500         74.17	     9.434
  35.520         74.17	     9.434
  35.540         75.00	     9.487
  35.560         71.67	     9.274
  35.580         69.17	     9.110
  35.600         61.67	     8.602
  35.620         61.67	     8.602
  35.640         63.33	     8.718
  35.660         51.67	     7.874
  35.680         56.67	     8.246
  35.700         60.00	     8.485
  35.720         54.17	     8.062
  35.740         50.83	     7.810
  35.760         57.50	     8.307
  35.780         62.50	     8.660
  35.800         56.67	     8.246
  35.820         58.33	     8.367
  35.840         73.33	     9.381
  35.860         72.50	     9.327
  35.880         77.50	     9.644
  35.900         85.83	    10.149
  35.920         99.17	    10.909
  35.940        129.17	    12.450
  35.960        117.50	    11.874
  35.980        110.83	    11.533
  36.000        122.50	    12.124
  36.020        115.00	    11.747
  36.040        115.83	    11.790
  36.060         82.50	     9.950
  36.080         85.00	    10.100
  36.100         76.67	     9.592
  36.120         66.67	     8.944
  36.140         63.33	     8.718
  36.160         55.83	     8.185
  36.180         54.17	     8.062
  36.200         58.33	     8.367
  36.220         56.67	     8.246
  36.240         55.00	     8.124
  36.260         67.50	     9.000
  36.280         70.00	     9.165
  36.300         69.17	     9.110
  36.320         64.17	     8.775
  36.340         86.67	    10.198
  36.360         86.67	    10.198
  36.380         87.50	    10.247
  36.400        147.50	    13.304
  36.420        265.00	    17.833
  36.440        564.17	    26.019
  36.460        732.50	    29.648
  36.480        388.33	    21.587
  36.500        203.33	    15.620
  36.520        206.67	    15.748
  36.540        355.83	    20.664
  36.560        374.17	    21.190
  36.580        198.33	    15.427
  36.600        130.00	    12.490
  36.620         94.17	    10.630
  36.640        100.00	    10.954
  36.660         95.00	    10.677
  36.680         80.83	     9.849
  36.700         72.50	     9.327
  36.720         66.67	     8.944
  36.740         57.50	     8.307
  36.760         60.00	     8.485
  36.780         63.33	     8.718
  36.800         70.83	     9.220
  36.820         54.17	     8.062
  36.840         65.00	     8.832
  36.860         59.17	     8.426
  36.880         65.00	     8.832
  36.900         54.17	     8.062
  36.920         56.67	     8.246
  36.940         62.50	     8.660
  36.960         49.17	     7.681
  36.980         52.50	     7.937
  37.000         45.00	     7.348
  37.020         35.83	     6.557
  37.040         60.83	     8.544
  37.060         43.33	     7.211
  37.080         45.00	     7.348
  37.100         45.00	     7.348
  37.120         45.83	     7.416
  37.140         39.17	     6.856
  37.160         54.17	     8.062
  37.180         49.17	     7.681
  37.200         55.00	     8.124
  37.220         60.00	     8.485
  37.240         50.00	     7.746
  37.260         56.67	     8.246
  37.280         50.00	     7.746
  37.300         72.50	     9.327
  37.320         70.00	     9.165
  37.340         62.50	     8.660
  37.360         62.50	     8.660
  37.380         64.17	     8.775
  37.400         69.17	     9.110
  37.420         69.17	     9.110
  37.440         83.33	    10.000
  37.460         60.00	     8.485
  37.480         75.83	     9.539
  37.500         75.00	     9.487
  37.520         62.50	     8.660
  37.540         97.50	    10.817
  37.560        102.50	    11.091
  37.580         75.00	     9.487
  37.600         85.83	    10.149
  37.620         70.00	     9.165
  37.640         80.83	     9.849
  37.660         73.33	     9.381
  37.680         82.50	     9.950
  37.700         80.00	     9.798
  37.720         61.67	     8.602
  37.740         60.83	     8.544
  37.760         66.67	     8.944
  37.780         71.67	     9.274
  37.800         55.00	     8.124
  37.820         53.33	     8.000
  37.840         54.17	     8.062
  37.860         38.33	     6.782
  37.880         47.50	     7.550
  37.900         45.83	     7.416
  37.920         48.33	     7.616
  37.940         32.50	     6.245
  37.960         35.83	     6.557
  37.980         52.50	     7.937
  38.000         40.00	     6.928
  38.020         46.67	     7.483
  38.040         32.50	     6.245
  38.060         39.17	     6.856
  38.080         33.33	     6.325
  38.100         32.50	     6.245
  38.120         30.83	     6.083
  38.140         43.33	     7.211
  38.160         37.50	     6.708
  38.180         44.17	     7.280
  38.200         47.50	     7.550
  38.220         37.50	     6.708
  38.240         37.50	     6.708
  38.260         45.00	     7.348
  38.280         34.17	     6.403
  38.300         45.83	     7.416
  38.320         32.50	     6.245
  38.340         51.67	     7.874
  38.360         50.83	     7.810
  38.380         33.33	     6.325
  38.400         40.83	     7.000
  38.420         50.83	     7.810
  38.440         45.00	     7.348
  38.460         45.83	     7.416
  38.480         52.50	     7.937
  38.500         35.83	     6.557
  38.520         44.17	     7.280
  38.540         43.33	     7.211
  38.560         43.33	     7.211
  38.580         44.17	     7.280
  38.600         42.50	     7.141
  38.620         50.00	     7.746
  38.640         40.00	     6.928
  38.660         39.17	     6.856
  38.680         43.33	     7.211
  38.700         39.17	     6.856
  38.720         55.83	     8.185
  38.740         68.33	     9.055
  38.760         42.50	     7.141
  38.780         30.83	     6.083
  38.800         47.50	     7.550
  38.820         61.67	     8.602
  38.840         46.67	     7.483
  38.860         51.67	     7.874
  38.880         44.17	     7.280
  38.900         49.17	     7.681
  38.920         45.83	     7.416
  38.940         40.00	     6.928
  38.960         40.83	     7.000
  38.980         37.50	     6.708
  39.000         40.83	     7.000
  39.020         37.50	     6.708
  39.040         33.33	     6.325
  39.060         41.67	     7.071
  39.080         45.00	     7.348
  39.100         45.83	     7.416
  39.120         46.67	     7.483
  39.140         35.00	     6.481
  39.160         45.00	     7.348
  39.180         49.17	     7.681
  39.200         43.33	     7.211
  39.220         46.67	     7.483
  39.240         50.83	     7.810
  39.260         52.50	     7.937
  39.280         59.17	     8.426
  39.300         51.67	     7.874
  39.320         95.83	    10.724
  39.340        176.67	    14.560
  39.360        228.33	    16.553
  39.380        240.83	    17.000
  39.400        176.67	    14.560
  39.420        140.00	    12.961
  39.440        132.50	    12.610
  39.460        155.00	    13.638
  39.480        163.33	    14.000
  39.500        114.17	    11.705
  39.520         91.67	    10.488
  39.540         83.33	    10.000
  39.560         66.67	     8.944
  39.580         57.50	     8.307
  39.600         67.50	     9.000
  39.620         66.67	     8.944
  39.640         57.50	     8.307
  39.660         62.50	     8.660
  39.680         60.00	     8.485
  39.700         68.33	     9.055
  39.720         51.67	     7.874
  39.740         62.50	     8.660
  39.760         75.00	     9.487
  39.780         52.50	     7.937
  39.800         59.17	     8.426
  39.820         55.00	     8.124
  39.840         56.67	     8.246
  39.860         55.83	     8.185
  39.880         51.67	     7.874
  39.900         48.33	     7.616
  39.920         60.00	     8.485
  39.940         48.33	     7.616
  39.960         55.00	     8.124
  39.980         46.67	     7.483
  40.000         64.17	     8.775
  40.020         57.50	     8.307
  40.040         34.17	     6.403
  40.060         47.50	     7.550
  40.080         50.83	     7.810
  40.100         56.67	     8.246
  40.120         59.17	     8.426
  40.140         60.83	     8.544
  40.160        101.67	    11.045
  40.180        155.83	    13.675
  40.200        174.17	    14.457
  40.220        155.00	    13.638
  40.240        124.17	    12.207
  40.260         85.83	    10.149
  40.280         97.50	    10.817
  40.300         85.00	    10.100
  40.320        102.50	    11.091
  40.340         90.83	    10.440
  40.360         80.00	     9.798
  40.380         61.67	     8.602
  40.400         56.67	     8.246
  40.420         36.67	     6.633
  40.440         49.17	     7.681
  40.460         59.17	     8.426
  40.480         40.83	     7.000
  40.500         41.67	     7.071
  40.520         33.33	     6.325
  40.540         59.17	     8.426
  40.560         46.67	     7.483
  40.580         50.00	     7.746
  40.600         46.67	     7.483
  40.620         37.50	     6.708
  40.640         40.00	     6.928
  40.660         53.33	     8.000
  40.680         42.50	     7.141
  40.700         36.67	     6.633
  40.720         51.67	     7.874
  40.740         44.17	     7.280
  40.760         43.33	     7.211
  40.780         43.33	     7.211
  40.800         40.83	     7.000
  40.820         46.67	     7.483
  40.840         45.83	     7.416
  40.860         48.33	     7.616
  40.880         44.17	     7.280
  40.900         55.00	     8.124
  40.920         51.67	     7.874
  40.940         50.83	     7.810
  40.960         56.67	     8.246
  40.980         41.67	     7.071
  41.000         45.00	     7.348
  41.020         49.17	     7.681
  41.040         48.33	     7.616
  41.060         53.33	     8.000
  41.080         52.50	     7.937
  41.100         67.50	     9.000
  41.120         65.00	     8.832
  41.140         62.50	     8.660
  41.160         60.83	     8.544
  41.180         70.83	     9.220
  41.200         53.33	     8.000
  41.220         66.67	     8.944
  41.240         65.83	     8.888
  41.260         65.00	     8.832
  41.280         53.33	     8.000
  41.300         56.67	     8.246
  41.320         40.00	     6.928
  41.340         57.50	     8.307
  41.360         64.17	     8.775
  41.380         55.83	     8.185
  41.400         50.83	     7.810
  41.420         44.17	     7.280
  41.440         50.83	     7.810
  41.460         52.50	     7.937
  41.480         59.17	     8.426
  41.500         40.83	     7.000
  41.520         62.50	     8.660
  41.540         60.83	     8.544
  41.560         66.67	     8.944
  41.580         75.83	     9.539
  41.600         79.17	     9.747
  41.620         75.00	     9.487
  41.640         70.00	     9.165
  41.660         79.17	     9.747
  41.680         69.17	     9.110
  41.700         70.00	     9.165
  41.720         71.67	     9.274
  41.740         76.67	     9.592
  41.760         75.00	     9.487
  41.780         84.17	    10.050
  41.800         66.67	     8.944
  41.820         70.83	     9.220
  41.840         70.00	     9.165
  41.860         61.67	     8.602
  41.880         79.17	     9.747
  41.900         60.83	     8.544
  41.920         63.33	     8.718
  41.940         61.67	     8.602
  41.960         62.50	     8.660
  41.980         67.50	     9.000
  42.000         61.67	     8.602
  42.020         67.50	     9.000
  42.040         46.67	     7.483
  42.060         43.33	     7.211
  42.080         58.33	     8.367
  42.100         56.67	     8.246
  42.120         62.50	     8.660
  42.140         79.17	     9.747
  42.160         82.50	     9.950
  42.180         63.33	     8.718
  42.200         69.17	     9.110
  42.220         62.50	     8.660
  42.240         80.00	     9.798
  42.260         90.00	    10.392
  42.280        113.33	    11.662
  42.300        123.33	    12.166
  42.320        165.83	    14.107
  42.340        193.33	    15.232
  42.360        254.17	    17.464
  42.380        189.17	    15.067
  42.400        167.50	    14.177
  42.420        170.00	    14.283
  42.440        146.67	    13.266
  42.460        179.17	    14.663
  42.480        138.33	    12.884
  42.500        113.33	    11.662
  42.520        101.67	    11.045
  42.540         95.00	    10.677
  42.560         87.50	    10.247
  42.580         65.83	     8.888
  42.600         64.17	     8.775
  42.620         71.67	     9.274
  42.640         59.17	     8.426
  42.660         72.50	     9.327
  42.680         61.67	     8.602
  42.700         57.50	     8.307
  42.720         66.67	     8.944
  42.740         75.00	     9.487
  42.760         64.17	     8.775
  42.780         57.50	     8.307
  42.800         62.50	     8.660
  42.820         52.50	     7.937
  42.840         59.17	     8.426
  42.860         50.00	     7.746
  42.880         55.00	     8.124
  42.900         60.83	     8.544
  42.920         53.33	     8.000
  42.940         45.00	     7.348
  42.960         50.83	     7.810
  42.980         63.33	     8.718
  43.000         49.17	     7.681
  43.020         65.83	     8.888
  43.040         44.17	     7.280
  43.060         45.83	     7.416
  43.080         54.17	     8.062
  43.100         48.33	     7.616
  43.120         57.50	     8.307
  43.140         65.00	     8.832
  43.160         55.00	     8.124
  43.180         45.00	     7.348
  43.200         59.17	     8.426
  43.220         57.50	     8.307
  43.240         67.50	     9.000
  43.260         63.33	     8.718
  43.280         70.83	     9.220
  43.300         60.00	     8.485
  43.320         55.00	     8.124
  43.340         70.00	     9.165
  43.360         59.17	     8.426
  43.380         70.00	     9.165
  43.400         72.50	     9.327
  43.420         84.17	    10.050
  43.440        110.83	    11.533
  43.460        105.00	    11.225
  43.480         96.67	    10.770
  43.500        101.67	    11.045
  43.520         93.33	    10.583
  43.540        100.00	    10.954
  43.560         85.83	    10.149
  43.580         95.00	    10.677
  43.600         95.83	    10.724
  43.620         90.83	    10.440
  43.640        106.67	    11.314
  43.660         93.33	    10.583
  43.680         67.50	     9.000
  43.700         86.67	    10.198
  43.720         91.67	    10.488
  43.740         85.00	    10.100
  43.760         75.00	     9.487
  43.780         96.67	    10.770
  43.800         91.67	    10.488
  43.820         76.67	     9.592
  43.840         80.00	     9.798
  43.860         99.17	    10.909
  43.880         75.00	     9.487
  43.900         84.17	    10.050
  43.920         72.50	     9.327
  43.940         97.50	    10.817
  43.960        102.50	    11.091
  43.980         91.67	    10.488
  44.000        121.67	    12.083
  44.020        108.33	    11.402
  44.040         98.33	    10.863
  44.060        109.17	    11.446
  44.080        134.17	    12.689
  44.100        117.50	    11.874
  44.120        139.17	    12.923
  44.140        154.17	    13.601
  44.160        166.67	    14.142
  44.180        158.33	    13.784
  44.200        176.67	    14.560
  44.220        210.00	    15.875
  44.240        220.00	    16.248
  44.260        237.50	    16.882
  44.280        251.67	    17.378
  44.300        255.00	    17.493
  44.320        254.17	    17.464
  44.340        288.33	    18.601
  44.360        300.00	    18.974
  44.380        296.67	    18.868
  44.400        340.83	    20.224
  44.420        358.33	    20.736
  44.440        325.00	    19.748
  44.460        300.00	    18.974
  44.480        294.17	    18.788
  44.500        264.17	    17.804
  44.520        273.33	    18.111
  44.540        270.00	    18.000
  44.560        275.83	    18.193
  44.580        246.67	    17.205
  44.600        230.00	    16.613
  44.620        207.50	    15.780
  44.640        200.83	    15.524
  44.660        203.33	    15.620
  44.680        185.83	    14.933
  44.700        176.67	    14.560
  44.720        170.83	    14.318
  44.740        160.00	    13.856
  44.760        132.50	    12.610
  44.780        145.00	    13.191
  44.800        104.17	    11.180
  44.820        134.17	    12.689
  44.840        119.17	    11.958
  44.860        117.50	    11.874
  44.880        120.00	    12.000
  44.900        116.67	    11.832
  44.920        100.83	    11.000
  44.940        128.33	    12.410
  44.960        116.67	    11.832
  44.980        100.00	    10.954
  45.000        114.17	    11.705
  45.020         97.50	    10.817
  45.040         95.83	    10.724
  45.060        101.67	    11.045
  45.080        102.50	    11.091
  45.100        112.50	    11.619
  45.120        105.83	    11.269
  45.140         82.50	     9.950
  45.160        109.17	    11.446
  45.180        114.17	    11.705
  45.200        131.67	    12.570
  45.220        115.00	    11.747
  45.240        130.83	    12.530
  45.260        156.67	    13.711
  45.280        149.17	    13.379
  45.300        192.50	    15.199
  45.320        222.50	    16.340
  45.340        285.00	    18.493
  45.360        355.83	    20.664
  45.380        325.00	    19.748
  45.400        350.83	    20.518
  45.420        356.67	    20.688
  45.440        370.83	    21.095
  45.460        408.33	    22.136
  45.480        432.50	    22.782
  45.500        419.17	    22.428
  45.520        383.33	    21.448
  45.540        350.83	    20.518
  45.560        289.17	    18.628
  45.580        250.83	    17.349
  45.600        224.17	    16.401
  45.620        212.50	    15.969
  45.640        175.83	    14.526
  45.660        180.00	    14.697
  45.680        188.33	    15.033
  45.700        170.00	    14.283
  45.720        144.17	    13.153
  45.740        110.00	    11.489
  45.760        108.33	    11.402
  45.780        110.00	    11.489
  45.800        110.83	    11.533
  45.820        103.33	    11.136
  45.840        109.17	    11.446
  45.860         99.17	    10.909
  45.880         80.00	     9.798
  45.900         65.00	     8.832
  45.920         88.33	    10.296
  45.940         60.83	     8.544
  45.960         69.17	     9.110
  45.980         60.00	     8.485
  46.000         67.50	     9.000
  46.020         60.83	     8.544
  46.040         61.67	     8.602
  46.060         65.83	     8.888
  46.080         65.83	     8.888
  46.100         55.00	     8.124
  46.120         56.67	     8.246
  46.140         53.33	     8.000
  46.160         50.00	     7.746
  46.180         49.17	     7.681
  46.200         52.50	     7.937
  46.220         41.67	     7.071
  46.240         50.00	     7.746
  46.260         49.17	     7.681
  46.280         44.17	     7.280
  46.300         49.17	     7.681
  46.320         46.67	     7.483
  46.340         40.00	     6.928
  46.360         55.00	     8.124
  46.380         37.50	     6.708
  46.400         48.33	     7.616
  46.420         48.33	     7.616
  46.440         42.50	     7.141
  46.460         52.50	     7.937
  46.480         52.50	     7.937
  46.500         53.33	     8.000
  46.520         47.50	     7.550
  46.540         59.17	     8.426
  46.560         33.33	     6.325
  46.580         52.50	     7.937
  46.600         40.00	     6.928
  46.620         43.33	     7.211
  46.640         44.17	     7.280
  46.660         34.17	     6.403
  46.680         41.67	     7.071
  46.700         35.83	     6.557
  46.720         50.83	     7.810
  46.740         50.83	     7.810
  46.760         47.50	     7.550
  46.780         36.67	     6.633
  46.800         48.33	     7.616
  46.820         40.00	     6.928
  46.840         38.33	     6.782
  46.860         43.33	     7.211
  46.880         41.67	     7.071
  46.900         35.83	     6.557
  46.920         44.17	     7.280
  46.940         46.67	     7.483
  46.960         52.50	     7.937
  46.980         55.00	     8.124
  47.000         54.17	     8.062
  47.020         67.50	     9.000
  47.040         69.17	     9.110
  47.060         85.83	    10.149
  47.080         83.33	    10.000
  47.100         67.50	     9.000
  47.120         50.83	     7.810
  47.140         75.00	     9.487
  47.160         67.50	     9.000
  47.180         69.17	     9.110
  47.200         53.33	     8.000
  47.220         48.33	     7.616
  47.240         35.00	     6.481
  47.260         42.50	     7.141
  47.280         48.33	     7.616
  47.300         54.17	     8.062
  47.320         48.33	     7.616
  47.340         43.33	     7.211
  47.360         48.33	     7.616
  47.380         44.17	     7.280
  47.400         40.00	     6.928
  47.420         40.00	     6.928
  47.440         35.00	     6.481
  47.460         33.33	     6.325
  47.480         29.17	     5.916
  47.500         40.83	     7.000
  47.520         44.17	     7.280
  47.540         28.33	     5.831
  47.560         37.50	     6.708
  47.580         44.17	     7.280
  47.600         35.00	     6.481
  47.620         42.50	     7.141
  47.640         30.00	     6.000
  47.660         35.83	     6.557
  47.680         30.83	     6.083
  47.700         36.67	     6.633
  47.720         39.17	     6.856
  47.740         36.67	     6.633
  47.760         45.00	     7.348
  47.780         41.67	     7.071
  47.800         46.67	     7.483
  47.820         50.83	     7.810
  47.840         42.50	     7.141
  47.860         49.17	     7.681
  47.880         44.17	     7.280
  47.900         56.67	     8.246
  47.920         49.17	     7.681
  47.940         60.83	     8.544
  47.960         50.00	     7.746
  47.980         53.33	     8.000
  48.000         57.50	     8.307
  48.020         76.67	     9.592
  48.040         73.33	     9.381
  48.060         73.33	     9.381
  48.080         59.17	     8.426
  48.100         77.50	     9.644
  48.120         57.50	     8.307
  48.140         66.67	     8.944
  48.160         69.17	     9.110
  48.180         71.67	     9.274
  48.200         64.17	     8.775
  48.220         65.00	     8.832
  48.240         56.67	     8.246
  48.260         47.50	     7.550
  48.280         55.00	     8.124
  48.300         50.00	     7.746
  48.320         51.67	     7.874
  48.340         58.33	     8.367
  48.360         52.50	     7.937
  48.380         45.00	     7.348
  48.400         51.67	     7.874
  48.420         42.50	     7.141
  48.440         38.33	     6.782
  48.460         37.50	     6.708
  48.480         35.83	     6.557
  48.500         47.50	     7.550
  48.520         45.83	     7.416
  48.540         37.50	     6.708
  48.560         33.33	     6.325
  48.580         47.50	     7.550
  48.600         38.33	     6.782
  48.620         40.83	     7.000
  48.640         28.33	     5.831
  48.660         28.33	     5.831
  48.680         44.17	     7.280
  48.700         48.33	     7.616
  48.720         46.67	     7.483
  48.740         40.00	     6.928
  48.760         40.00	     6.928
  48.780         44.17	     7.280
  48.800         39.17	     6.856
  48.820         52.50	     7.937
  48.840         37.50	     6.708
  48.860         46.67	     7.483
  48.880         46.67	     7.483
  48.900         59.17	     8.426
  48.920         54.17	     8.062
  48.940         47.50	     7.550
  48.960         45.83	     7.416
  48.980         48.33	     7.616
  49.000         44.17	     7.280
  49.020         42.50	     7.141
  49.040         56.67	     8.246
  49.060         51.67	     7.874
  49.080         49.17	     7.681
  49.100         58.33	     8.367
  49.120         65.00	     8.832
  49.140         57.50	     8.307
  49.160         42.50	     7.141
  49.180         49.17	     7.681
  49.200         41.67	     7.071
  49.220         31.67	     6.164
  49.240         44.17	     7.280
  49.260         55.00	     8.124
  49.280         41.67	     7.071
  49.300         59.17	     8.426
  49.320         36.67	     6.633
  49.340         45.00	     7.348
  49.360         50.00	     7.746
  49.380         46.67	     7.483
  49.400         45.83	     7.416
  49.420         40.00	     6.928
  49.440         44.17	     7.280
  49.460         34.17	     6.403
  49.480         52.50	     7.937
  49.500         49.17	     7.681
  49.520         48.33	     7.616
  49.540         47.50	     7.550
  49.560         45.83	     7.416
  49.580         59.17	     8.426
  49.600         55.00	     8.124
  49.620         58.33	     8.367
  49.640         55.00	     8.124
  49.660         57.50	     8.307
  49.680         60.00	     8.485
  49.700         52.50	     7.937
  49.720         49.17	     7.681
  49.740         67.50	     9.000
  49.760         77.50	     9.644
  49.780         61.67	     8.602
  49.800         77.50	     9.644
  49.820         77.50	     9.644
  49.840        100.83	    11.000
  49.860        107.50	    11.358
  49.880        119.17	    11.958
  49.900         82.50	     9.950
  49.920         91.67	    10.488
  49.940         97.50	    10.817
  49.960        130.00	    12.490
  49.980        164.17	    14.036
  50.000        234.17	    16.763
  50.020        323.33	    19.698
  50.040        371.67	    21.119
  50.060        369.17	    21.048
  50.080        246.67	    17.205
  50.100        182.50	    14.799
  50.120        135.00	    12.728
  50.140        168.33	    14.213
  50.160        195.83	    15.330
  50.180        222.50	    16.340
  50.200        176.67	    14.560
  50.220        130.83	    12.530
  50.240         92.50	    10.536
  50.260         52.50	     7.937
  50.280         56.67	     8.246
  50.300         54.17	     8.062
  50.320         48.33	     7.616
  50.340         53.33	     8.000
  50.360         59.17	     8.426
  50.380         59.17	     8.426
  50.400         53.33	     8.000
  50.420         58.33	     8.367
  50.440         67.50	     9.000
  50.460         57.50	     8.307
  50.480         82.50	     9.950
  50.500         94.17	    10.630
  50.520         83.33	    10.000
  50.540         83.33	    10.000
  50.560         81.67	     9.899
  50.580         64.17	     8.775
  50.600         76.67	     9.592
  50.620         77.50	     9.644
  50.640         85.83	    10.149
  50.660         81.67	     9.899
  50.680         68.33	     9.055
  50.700         65.00	     8.832
  50.720         63.33	     8.718
  50.740         53.33	     8.000
  50.760         54.17	     8.062
  50.780         48.33	     7.616
  50.800         48.33	     7.616
  50.820         40.83	     7.000
  50.840         45.83	     7.416
  50.860         36.67	     6.633
  50.880         31.67	     6.164
  50.900         34.17	     6.403
  50.920         41.67	     7.071
  50.940         26.67	     5.657
  50.960         45.83	     7.416
  50.980         40.00	     6.928
  51.000         49.17	     7.681
  51.020         68.33	     9.055
  51.040         55.00	     8.124
  51.060         66.67	     8.944
  51.080         45.83	     7.416
  51.100         39.17	     6.856
  51.120         40.00	     6.928
  51.140         56.67	     8.246
  51.160         47.50	     7.550
  51.180         53.33	     8.000
  51.200         54.17	     8.062
  51.220         52.50	     7.937
  51.240         52.50	     7.937
  51.260         47.50	     7.550
  51.280         31.67	     6.164
  51.300         45.00	     7.348
  51.320         36.67	     6.633
  51.340         28.33	     5.831
  51.360         46.67	     7.483
  51.380         39.17	     6.856
  51.400         35.00	     6.481
  51.420         44.17	     7.280
  51.440         38.33	     6.782
  51.460         39.17	     6.856
  51.480         47.50	     7.550
  51.500         24.17	     5.385
  51.520         38.33	     6.782
  51.540         34.17	     6.403
  51.560         31.67	     6.164
  51.580         34.17	     6.403
  51.600         33.33	     6.325
  51.620         39.17	     6.856
  51.640         35.00	     6.481
  51.660         30.83	     6.083
  51.680         38.33	     6.782
  51.700         30.83	     6.083
  51.720         28.33	     5.831
  51.740         34.17	     6.403
  51.760         40.83	     7.000
  51.780         28.33	     5.831
  51.800         35.00	     6.481
  51.820         22.50	     5.196
  51.840         26.67	     5.657
  51.860         37.50	     6.708
  51.880         32.50	     6.245
  51.900         34.17	     6.403
  51.920         28.33	     5.831
  51.940         33.33	     6.325
  51.960         33.33	     6.325
  51.980         35.00	     6.481
  52.000         35.83	     6.557
  52.020         36.67	     6.633
  52.040         43.33	     7.211
  52.060         33.33	     6.325
  52.080         40.83	     7.000
  52.100         34.17	     6.403
  52.120         45.00	     7.348
  52.140         30.00	     6.000
  52.160         42.50	     7.141
  52.180         49.17	     7.681
  52.200         56.67	     8.246
  52.220         45.00	     7.348
  52.240         42.50	     7.141
  52.260         49.17	     7.681
  52.280         38.33	     6.782
  52.300         38.33	     6.782
  52.320         33.33	     6.325
  52.340         31.67	     6.164
  52.360         34.17	     6.403
  52.380         34.17	     6.403
  52.400         31.67	     6.164
  52.420         56.67	     8.246
  52.440         40.00	     6.928
  52.460         53.33	     8.000
  52.480         45.00	     7.348
  52.500         44.17	     7.280
  52.520         41.67	     7.071
  52.540         40.83	     7.000
  52.560         31.67	     6.164
  52.580         40.00	     6.928
  52.600         48.33	     7.616
  52.620         30.83	     6.083
  52.640         43.33	     7.211
  52.660         45.83	     7.416
  52.680         38.33	     6.782
  52.700         48.33	     7.616
  52.720         39.17	     6.856
  52.740         48.33	     7.616
  52.760         48.33	     7.616
  52.780         61.67	     8.602
  52.800         47.50	     7.550
  52.820         65.83	     8.888
  52.840         45.00	     7.348
  52.860         50.00	     7.746
  52.880         45.83	     7.416
  52.900         48.33	     7.616
  52.920         45.83	     7.416
  52.940         41.67	     7.071
  52.960         40.83	     7.000
  52.980         50.83	     7.810
  53.000         55.00	     8.124
  53.020         50.83	     7.810
  53.040         68.33	     9.055
  53.060         60.83	     8.544
  53.080         70.00	     9.165
  53.100         58.33	     8.367
  53.120         48.33	     7.616
  53.140         38.33	     6.782
  53.160         50.83	     7.810
  53.180         43.33	     7.211
  53.200         50.83	     7.810
  53.220         45.00	     7.348
  53.240         54.17	     8.062
  53.260         53.33	     8.000
  53.280         44.17	     7.280
  53.300         54.17	     8.062
  53.320         30.00	     6.000
  53.340         45.83	     7.416
  53.360         45.00	     7.348
  53.380         51.67	     7.874
  53.400         35.00	     6.481
  53.420         33.33	     6.325
  53.440         42.50	     7.141
  53.460         40.00	     6.928
  53.480         31.67	     6.164
  53.500         37.50	     6.708
  53.520         40.83	     7.000
  53.540         42.50	     7.141
  53.560         51.67	     7.874
  53.580         45.00	     7.348
  53.600         35.83	     6.557
  53.620         40.83	     7.000
  53.640         42.50	     7.141
  53.660         40.83	     7.000
  53.680         34.17	     6.403
  53.700         43.33	     7.211
  53.720         36.67	     6.633
  53.740         46.67	     7.483
  53.760         42.50	     7.141
  53.780         34.17	     6.403
  53.800         35.83	     6.557
  53.820         36.67	     6.633
  53.840         40.83	     7.000
  53.860         29.17	     5.916
  53.880         45.00	     7.348
  53.900         41.67	     7.071
  53.920         37.50	     6.708
  53.940         45.83	     7.416
  53.960         33.33	     6.325
  53.980         35.00	     6.481
  54.000         40.00	     6.928
  54.020         30.00	     6.000
  54.040         48.33	     7.616
  54.060         31.67	     6.164
  54.080         50.00	     7.746
  54.100         44.17	     7.280
  54.120         38.33	     6.782
  54.140         42.50	     7.141
  54.160         42.50	     7.141
  54.180         43.33	     7.211
  54.200         45.83	     7.416
  54.220         62.50	     8.660
  54.240         53.33	     8.000
  54.260         60.83	     8.544
  54.280         51.67	     7.874
  54.300         47.50	     7.550
  54.320         55.00	     8.124
  54.340         50.00	     7.746
  54.360         50.83	     7.810
  54.380         60.83	     8.544
  54.400         59.17	     8.426
  54.420         63.33	     8.718
  54.440         55.83	     8.185
  54.460         57.50	     8.307
  54.480         59.17	     8.426
  54.500         52.50	     7.937
  54.520         50.00	     7.746
  54.540         50.00	     7.746
  54.560         46.67	     7.483
  54.580         64.17	     8.775
  54.600         53.33	     8.000
  54.620         55.00	     8.124
  54.640         49.17	     7.681
  54.660         48.33	     7.616
  54.680         55.83	     8.185
  54.700         81.67	     9.899
  54.720         74.17	     9.434
  54.740        102.50	    11.091
  54.760        101.67	    11.045
  54.780        121.67	    12.083
  54.800        110.00	    11.489
  54.820         90.00	    10.392
  54.840         71.67	     9.274
  54.860         71.67	     9.274
  54.880         64.17	     8.775
  54.900         83.33	    10.000
  54.920         87.50	    10.247
  54.940         83.33	    10.000
  54.960         85.83	    10.149
  54.980         60.83	     8.544
  55.000         77.50	     9.644
  55.020         67.50	     9.000
  55.040         76.67	     9.592
  55.060         77.50	     9.644
  55.080         64.17	     8.775
  55.100         63.33	     8.718
  55.120         71.67	     9.274
  55.140         69.17	     9.110
  55.160         79.17	     9.747
  55.180         89.17	    10.344
  55.200         95.00	    10.677
  55.220        100.83	    11.000
  55.240         78.33	     9.695
  55.260         83.33	    10.000
  55.280         77.50	     9.644
  55.300         60.83	     8.544
  55.320         60.83	     8.544
  55.340         65.83	     8.888
  55.360         75.00	     9.487
  55.380         71.67	     9.274
  55.400         44.17	     7.280
  55.420         65.83	     8.888
  55.440         54.17	     8.062
  55.460         45.83	     7.416
  55.480         51.67	     7.874
  55.500         50.83	     7.810
  55.520         70.00	     9.165
  55.540         60.00	     8.485
  55.560         66.67	     8.944
  55.580         65.00	     8.832
  55.600         75.83	     9.539
  55.620         65.00	     8.832
  55.640         66.67	     8.944
  55.660         72.50	     9.327
  55.680         87.50	    10.247
  55.700        105.83	    11.269
  55.720         87.50	    10.247
  55.740         74.17	     9.434
  55.760         77.50	     9.644
  55.780         88.33	    10.296
  55.800         68.33	     9.055
  55.820         75.00	     9.487
  55.840         65.83	     8.888
  55.860         65.83	     8.888
  55.880         65.00	     8.832
  55.900         56.67	     8.246
  55.920         64.17	     8.775
  55.940         80.00	     9.798
  55.960         44.17	     7.280
  55.980         45.00	     7.348
  56.000         28.33	     5.831
  56.020         46.67	     7.483
  56.040         45.83	     7.416
  56.060         49.17	     7.681
  56.080         35.83	     6.557
  56.100         38.33	     6.782
  56.120         39.17	     6.856
  56.140         46.67	     7.483
  56.160         45.00	     7.348
  56.180         42.50	     7.141
  56.200         45.00	     7.348
  56.220         42.50	     7.141
  56.240         40.83	     7.000
  56.260         35.83	     6.557
  56.280         33.33	     6.325
  56.300         44.17	     7.280
  56.320         46.67	     7.483
  56.340         38.33	     6.782
  56.360         36.67	     6.633
  56.380         42.50	     7.141
  56.400         43.33	     7.211
  56.420         36.67	     6.633
  56.440         24.17	     5.385
  56.460         43.33	     7.211
  56.480         35.83	     6.557
  56.500         40.00	     6.928
  56.520         39.17	     6.856
  56.540         42.50	     7.141
  56.560         38.33	     6.782
  56.580         38.33	     6.782
  56.600         43.33	     7.211
  56.620         42.50	     7.141
  56.640         40.00	     6.928
  56.660         41.67	     7.071
  56.680         37.50	     6.708
  56.700         35.00	     6.481
  56.720         38.33	     6.782
  56.740         33.33	     6.325
  56.760         41.67	     7.071
  56.780         30.83	     6.083
  56.800         38.33	     6.782
  56.820         39.17	     6.856
  56.840         29.17	     5.916
  56.860         38.33	     6.782
  56.880         29.17	     5.916
  56.900         31.67	     6.164
  56.920         31.67	     6.164
  56.940         37.50	     6.708
  56.960         44.17	     7.280
  56.980         38.33	     6.782
  57.000         32.50	     6.245
  57.020         34.17	     6.403
  57.040         35.83	     6.557
  57.060         47.50	     7.550
  57.080         42.50	     7.141
  57.100         50.83	     7.810
  57.120         35.00	     6.481
  57.140         44.17	     7.280
  57.160         32.50	     6.245
  57.180         37.50	     6.708
  57.200         43.33	     7.211
  57.220         41.67	     7.071
  57.240         38.33	     6.782
  57.260         43.33	     7.211
  57.280         44.17	     7.280
  57.300         38.33	     6.782
  57.320         37.50	     6.708
  57.340         35.83	     6.557
  57.360         41.67	     7.071
  57.380         27.50	     5.745
  57.400         28.33	     5.831
  57.420         40.83	     7.000
  57.440         40.83	     7.000
  57.460         46.67	     7.483
  57.480         34.17	     6.403
  57.500         41.67	     7.071
  57.520         46.67	     7.483
  57.540         38.33	     6.782
  57.560         29.17	     5.916
  57.580         52.50	     7.937
  57.600         43.33	     7.211
  57.620         48.33	     7.616
  57.640         36.67	     6.633
  57.660         42.50	     7.141
  57.680         34.17	     6.403
  57.700         35.83	     6.557
  57.720         47.50	     7.550
  57.740         42.50	     7.141
  57.760         49.17	     7.681
  57.780         58.33	     8.367
  57.800         60.00	     8.485
  57.820         40.83	     7.000
  57.840         36.67	     6.633
  57.860         28.33	     5.831
  57.880         42.50	     7.141
  57.900         35.00	     6.481
  57.920         44.17	     7.280
  57.940         35.83	     6.557
  57.960         48.33	     7.616
  57.980         47.50	     7.550
  58.000         55.00	     8.124
  58.020         43.33	     7.211
  58.040         47.50	     7.550
  58.060         42.50	     7.141
  58.080         45.00	     7.348
  58.100         36.67	     6.633
  58.120         51.67	     7.874
  58.140         47.50	     7.550
  58.160         49.17	     7.681
  58.180         40.00	     6.928
  58.200         41.67	     7.071
  58.220         39.17	     6.856
  58.240         40.00	     6.928
  58.260         36.67	     6.633
  58.280         38.33	     6.782
  58.300         54.17	     8.062
  58.320         40.00	     6.928
  58.340         47.50	     7.550
  58.360         35.83	     6.557
  58.380         40.83	     7.000
  58.400         38.33	     6.782
  58.420         58.33	     8.367
  58.440         54.17	     8.062
  58.460         45.83	     7.416
  58.480         61.67	     8.602
  58.500         67.50	     9.000
  58.520         46.67	     7.483
  58.540         56.67	     8.246
  58.560         55.00	     8.124
  58.580         70.00	     9.165
  58.600         70.83	     9.220
  58.620         69.17	     9.110
  58.640         58.33	     8.367
  58.660         55.00	     8.124
  58.680         55.00	     8.124
  58.700         62.50	     8.660
  58.720         50.83	     7.810
  58.740         69.17	     9.110
  58.760         56.67	     8.246
  58.780         59.17	     8.426
  58.800         61.67	     8.602
  58.820         46.67	     7.483
  58.840         41.67	     7.071
  58.860         50.00	     7.746
  58.880         41.67	     7.071
  58.900         51.67	     7.874
  58.920         62.50	     8.660
  58.940         54.17	     8.062
  58.960         44.17	     7.280
  58.980         50.83	     7.810
  59.000         48.33	     7.616
  59.020         59.17	     8.426
  59.040         50.83	     7.810
  59.060         59.17	     8.426
  59.080         50.00	     7.746
  59.100         42.50	     7.141
  59.120         55.00	     8.124
  59.140         58.33	     8.367
  59.160         54.17	     8.062
  59.180         55.00	     8.124
  59.200         46.67	     7.483
  59.220         55.00	     8.124
  59.240         43.33	     7.211
  59.260         48.33	     7.616
  59.280         45.83	     7.416
  59.300         40.00	     6.928
  59.320         41.67	     7.071
  59.340         45.00	     7.348
  59.360         41.67	     7.071
  59.380         50.83	     7.810
  59.400         45.00	     7.348
  59.420         42.50	     7.141
  59.440         50.00	     7.746
  59.460         56.67	     8.246
  59.480         35.00	     6.481
  59.500         38.33	     6.782
  59.520         44.17	     7.280
  59.540         50.00	     7.746
  59.560         50.00	     7.746
  59.580         50.83	     7.810
  59.600         48.33	     7.616
  59.620         49.17	     7.681
  59.640         50.00	     7.746
  59.660         65.00	     8.832
  59.680         58.33	     8.367
  59.700         56.67	     8.246
  59.720         71.67	     9.274
  59.740         71.67	     9.274
  59.760         90.83	    10.440
  59.780        132.50	    12.610
  59.800        146.67	    13.266
  59.820        207.50	    15.780
  59.840        292.50	    18.735
  59.860        315.00	    19.442
  59.880        301.67	    19.026
  59.900        244.17	    17.117
  59.920        185.00	    14.900
  59.940        150.00	    13.416
  59.960        130.00	    12.490
  59.980        147.50	    13.304
  60.000        187.50	    15.000
  60.020        196.67	    15.362
  60.040        174.17	    14.457
  60.060        164.17	    14.036
  60.080        130.83	    12.530
  60.100         86.67	    10.198
  60.120         82.50	     9.950
  60.140         74.17	     9.434
  60.160         55.83	     8.185
  60.180         53.33	     8.000
  60.200         51.67	     7.874
  60.220         60.00	     8.485
  60.240         50.00	     7.746
  60.260         53.33	     8.000
  60.280         43.33	     7.211
  60.300         42.50	     7.141
  60.320         41.67	     7.071
  60.340         55.00	     8.124
  60.360         45.00	     7.348
  60.380         44.17	     7.280
  60.400         49.17	     7.681
  60.420         51.67	     7.874
  60.440         49.17	     7.681
  60.460         48.33	     7.616
  60.480         45.00	     7.348
  60.500         50.83	     7.810
  60.520         65.00	     8.832
  60.540         62.50	     8.660
  60.560         53.33	     8.000
  60.580         49.17	     7.681
  60.600         48.33	     7.616
  60.620         52.50	     7.937
  60.640         61.67	     8.602
  60.660         53.33	     8.000
  60.680         54.17	     8.062
  60.700         58.33	     8.367
  60.720         65.00	     8.832
  60.740         56.67	     8.246
  60.760         61.67	     8.602
  60.780         56.67	     8.246
  60.800         60.83	     8.544
  60.820         54.17	     8.062
  60.840         57.50	     8.307
  60.860         63.33	     8.718
  60.880         60.83	     8.544
  60.900         48.33	     7.616
  60.920         47.50	     7.550
  60.940         54.17	     8.062
  60.960         54.17	     8.062
  60.980         58.33	     8.367
  61.000         54.17	     8.062
  61.020         57.50	     8.307
  61.040         45.00	     7.348
  61.060         54.17	     8.062
  61.080         58.33	     8.367
  61.100         50.83	     7.810
  61.120         44.17	     7.280
  61.140         49.17	     7.681
  61.160         50.83	     7.810
  61.180         54.17	     8.062
  61.200         59.17	     8.426
  61.220         47.50	     7.550
  61.240         63.33	     8.718
  61.260         53.33	     8.000
  61.280         54.17	     8.062
  61.300         60.83	     8.544
  61.320         50.83	     7.810
  61.340         67.50	     9.000
  61.360         72.50	     9.327
  61.380         63.33	     8.718
  61.400         60.83	     8.544
  61.420         61.67	     8.602
  61.440         74.17	     9.434
  61.460         67.50	     9.000
  61.480         65.83	     8.888
  61.500         71.67	     9.274
  61.520         62.50	     8.660
  61.540         77.50	     9.644
  61.560         78.33	     9.695
  61.580         58.33	     8.367
  61.600         71.67	     9.274
  61.620         59.17	     8.426
  61.640         83.33	    10.000
  61.660         75.83	     9.539
  61.680         59.17	     8.426
  61.700         75.00	     9.487
  61.720         54.17	     8.062
  61.740         66.67	     8.944
  61.760         59.17	     8.426
  61.780         63.33	     8.718
  61.800         58.33	     8.367
  61.820         55.83	     8.185
  61.840         51.67	     7.874
  61.860         51.67	     7.874
  61.880         55.83	     8.185
  61.900         38.33	     6.782
  61.920         49.17	     7.681
  61.940         49.17	     7.681
  61.960         43.33	     7.211
  61.980         34.17	     6.403
  62.000         35.83	     6.557
  62.020         37.50	     6.708
  62.040         34.17	     6.403
  62.060         41.67	     7.071
  62.080         60.00	     8.485
  62.100         37.50	     6.708
  62.120         34.17	     6.403
  62.140         37.50	     6.708
  62.160         42.50	     7.141
  62.180         26.67	     5.657
  62.200         34.17	     6.403
  62.220         37.50	     6.708
  62.240         32.50	     6.245
  62.260         36.67	     6.633
  62.280         35.00	     6.481
  62.300         33.33	     6.325
  62.320         39.17	     6.856
  62.340         38.33	     6.782
  62.360         26.67	     5.657
  62.380         29.17	     5.916
  62.400         35.00	     6.481
  62.420         29.17	     5.916
  62.440         40.00	     6.928
  62.460         40.00	     6.928
  62.480         39.17	     6.856
  62.500         32.50	     6.245
  62.520         38.33	     6.782
  62.540         36.67	     6.633
  62.560         28.33	     5.831
  62.580         28.33	     5.831
  62.600         36.67	     6.633
  62.620         30.83	     6.083
  62.640         44.17	     7.280
  62.660         37.50	     6.708
  62.680         42.50	     7.141
  62.700         39.17	     6.856
  62.720         48.33	     7.616
  62.740         25.83	     5.568
  62.760         46.67	     7.483
  62.780         43.33	     7.211
  62.800         43.33	     7.211
  62.820         35.00	     6.481
  62.840         46.67	     7.483
  62.860         45.83	     7.416
  62.880         41.67	     7.071
  62.900         43.33	     7.211
  62.920         46.67	     7.483
  62.940         28.33	     5.831
  62.960         42.50	     7.141
  62.980         33.33	     6.325
  63.000         46.67	     7.483
  63.020         50.83	     7.810
  63.040         39.17	     6.856
  63.060         40.00	     6.928
  63.080         45.00	     7.348
  63.100         41.67	     7.071
  63.120         31.67	     6.164
  63.140         37.50	     6.708
  63.160         45.83	     7.416
  63.180         31.67	     6.164
  63.200         38.33	     6.782
  63.220         29.17	     5.916
  63.240         35.00	     6.481
  63.260         37.50	     6.708
  63.280         44.17	     7.280
  63.300         35.83	     6.557
  63.320         35.83	     6.557
  63.340         35.00	     6.481
  63.360         44.17	     7.280
  63.380         45.83	     7.416
  63.400         39.17	     6.856
  63.420         45.83	     7.416
  63.440         42.50	     7.141
  63.460         44.17	     7.280
  63.480         37.50	     6.708
  63.500         35.83	     6.557
  63.520         36.67	     6.633
  63.540         37.50	     6.708
  63.560         40.83	     7.000
  63.580         45.83	     7.416
  63.600         58.33	     8.367
  63.620         45.00	     7.348
  63.640         46.67	     7.483
  63.660         46.67	     7.483
  63.680         58.33	     8.367
  63.700         45.83	     7.416
  63.720         45.83	     7.416
  63.740         58.33	     8.367
  63.760         45.83	     7.416
  63.780         63.33	     8.718
  63.800         58.33	     8.367
  63.820         55.83	     8.185
  63.840         60.83	     8.544
  63.860         59.17	     8.426
  63.880         58.33	     8.367
  63.900         76.67	     9.592
  63.920         85.83	    10.149
  63.940         95.83	    10.724
  63.960         87.50	    10.247
  63.980         75.83	     9.539
  64.000         75.00	     9.487
  64.020         57.50	     8.307
  64.040         66.67	     8.944
  64.060         53.33	     8.000
  64.080         60.83	     8.544
  64.100         70.00	     9.165
  64.120         67.50	     9.000
  64.140         68.33	     9.055
  64.160         56.67	     8.246
  64.180         51.67	     7.874
  64.200         48.33	     7.616
  64.220         45.83	     7.416
  64.240         49.17	     7.681
  64.260         46.67	     7.483
  64.280         48.33	     7.616
  64.300         47.50	     7.550
  64.320         50.83	     7.810
  64.340         40.83	     7.000
  64.360         40.00	     6.928
  64.380         52.50	     7.937
  64.400         40.00	     6.928
  64.420         39.17	     6.856
  64.440         37.50	     6.708
  64.460         40.00	     6.928
  64.480         41.67	     7.071
  64.500         44.17	     7.280
  64.520         52.50	     7.937
  64.540         43.33	     7.211
  64.560         52.50	     7.937
  64.580         55.83	     8.185
  64.600         65.00	     8.832
  64.620         56.67	     8.246
  64.640         58.33	     8.367
  64.660         59.17	     8.426
  64.680         53.33	     8.000
  64.700         43.33	     7.211
  64.720         50.83	     7.810
  64.740         45.83	     7.416
  64.760         57.50	     8.307
  64.780         65.83	     8.888
  64.800         45.83	     7.416
  64.820         47.50	     7.550
  64.840         45.83	     7.416
  64.860         53.33	     8.000
  64.880         45.83	     7.416
  64.900         48.33	     7.616
  64.920         45.00	     7.348
  64.940         43.33	     7.211
  64.960         60.00	     8.485
  64.980         52.50	     7.937
  65.000         54.17	     8.062
