
Filename:
	C:\Program Files\Thermo Electron\WinXRD\Datafiles\F_HERMAN\GEO\GG_10_SFT.raw

File Created:
	October 12, 2020 - 07:31 PM

Specimen Id:
	GG_10_SFT

Specimen Name:
	

Specimen Description:
	

Comment:
Scan Type: 2Theta Scan
Start Angle: 3 deg.
Stop Angle: 65 deg.
Num Points: 3101
Step Size: 0.02 deg.
Scan Rate: 1.000000
Scan Mode: Continuous
Wavelength: 1.540562
\Kalpha1: 1.540562	\Kalpha2: 1.544390	\Kbeta: 1.392218

Optics:
		Detector:
			 Type: Fixed Slits
		Tube: 
			 Type: Fixed Slits


Datas:
 Pos [deg]       Rate [CPS]      ESD [-]

Range 1 ---> Iteration 1
   3.000        266.67	    17.889
   3.020        236.67	    16.852
   3.040        223.33	    16.371
   3.060        244.17	    17.117
   3.080        235.00	    16.793
   3.100        236.67	    16.852
   3.120        239.17	    16.941
   3.140        221.67	    16.310
   3.160        236.67	    16.852
   3.180        237.50	    16.882
   3.200        230.00	    16.613
   3.220        240.83	    17.000
   3.240        218.33	    16.186
   3.260        241.67	    17.029
   3.280        224.17	    16.401
   3.300        210.83	    15.906
   3.320        209.17	    15.843
   3.340        217.50	    16.155
   3.360        219.17	    16.217
   3.380        217.50	    16.155
   3.400        230.83	    16.643
   3.420        191.67	    15.166
   3.440        215.83	    16.093
   3.460        189.17	    15.067
   3.480        190.00	    15.100
   3.500        207.50	    15.780
   3.520        215.83	    16.093
   3.540        165.83	    14.107
   3.560        186.67	    14.967
   3.580        177.50	    14.595
   3.600        185.00	    14.900
   3.620        181.67	    14.765
   3.640        198.33	    15.427
   3.660        184.17	    14.866
   3.680        196.67	    15.362
   3.700        189.17	    15.067
   3.720        179.17	    14.663
   3.740        196.67	    15.362
   3.760        194.17	    15.264
   3.780        194.17	    15.264
   3.800        192.50	    15.199
   3.820        200.00	    15.492
   3.840        172.50	    14.387
   3.860        165.83	    14.107
   3.880        185.00	    14.900
   3.900        187.50	    15.000
   3.920        174.17	    14.457
   3.940        168.33	    14.213
   3.960        181.67	    14.765
   3.980        180.83	    14.731
   4.000        174.17	    14.457
   4.020        158.33	    13.784
   4.040        166.67	    14.142
   4.060        180.00	    14.697
   4.080        174.17	    14.457
   4.100        160.00	    13.856
   4.120        182.50	    14.799
   4.140        167.50	    14.177
   4.160        178.33	    14.629
   4.180        142.50	    13.077
   4.200        150.83	    13.454
   4.220        169.17	    14.248
   4.240        142.50	    13.077
   4.260        145.00	    13.191
   4.280        165.00	    14.071
   4.300        161.67	    13.928
   4.320        154.17	    13.601
   4.340        160.00	    13.856
   4.360        157.50	    13.748
   4.380        152.50	    13.528
   4.400        183.33	    14.832
   4.420        158.33	    13.784
   4.440        157.50	    13.748
   4.460        144.17	    13.153
   4.480        140.83	    13.000
   4.500        146.67	    13.266
   4.520        161.67	    13.928
   4.540        143.33	    13.115
   4.560        136.67	    12.806
   4.580        147.50	    13.304
   4.600        143.33	    13.115
   4.620        139.17	    12.923
   4.640        133.33	    12.649
   4.660        150.00	    13.416
   4.680        150.83	    13.454
   4.700        126.67	    12.329
   4.720        145.83	    13.229
   4.740        158.33	    13.784
   4.760        152.50	    13.528
   4.780        131.67	    12.570
   4.800        140.00	    12.961
   4.820        153.33	    13.565
   4.840        156.67	    13.711
   4.860        134.17	    12.689
   4.880        127.50	    12.369
   4.900        153.33	    13.565
   4.920        155.83	    13.675
   4.940        134.17	    12.689
   4.960        145.00	    13.191
   4.980        141.67	    13.038
   5.000        112.50	    11.619
   5.020        126.67	    12.329
   5.040        135.00	    12.728
   5.060        136.67	    12.806
   5.080        126.67	    12.329
   5.100        126.67	    12.329
   5.120        135.83	    12.767
   5.140        140.83	    13.000
   5.160        141.67	    13.038
   5.180        130.83	    12.530
   5.200        126.67	    12.329
   5.220        123.33	    12.166
   5.240        140.00	    12.961
   5.260        125.83	    12.288
   5.280        132.50	    12.610
   5.300        121.67	    12.083
   5.320        125.83	    12.288
   5.340        112.50	    11.619
   5.360        125.83	    12.288
   5.380        123.33	    12.166
   5.400        133.33	    12.649
   5.420        115.00	    11.747
   5.440        133.33	    12.649
   5.460        156.67	    13.711
   5.480        119.17	    11.958
   5.500        120.00	    12.000
   5.520        122.50	    12.124
   5.540        124.17	    12.207
   5.560        108.33	    11.402
   5.580        115.00	    11.747
   5.600        120.83	    12.042
   5.620        103.33	    11.136
   5.640        111.67	    11.576
   5.660        134.17	    12.689
   5.680        126.67	    12.329
   5.700        130.83	    12.530
   5.720        120.00	    12.000
   5.740        117.50	    11.874
   5.760         96.67	    10.770
   5.780        112.50	    11.619
   5.800        129.17	    12.450
   5.820        106.67	    11.314
   5.840        125.83	    12.288
   5.860        117.50	    11.874
   5.880        127.50	    12.369
   5.900        120.00	    12.000
   5.920        121.67	    12.083
   5.940        138.33	    12.884
   5.960        147.50	    13.304
   5.980        139.17	    12.923
   6.000        141.67	    13.038
   6.020        138.33	    12.884
   6.040        149.17	    13.379
   6.060        144.17	    13.153
   6.080        155.83	    13.675
   6.100        145.83	    13.229
   6.120        152.50	    13.528
   6.140        149.17	    13.379
   6.160        188.33	    15.033
   6.180        152.50	    13.528
   6.200        168.33	    14.213
   6.220        176.67	    14.560
   6.240        172.50	    14.387
   6.260        199.17	    15.460
   6.280        181.67	    14.765
   6.300        183.33	    14.832
   6.320        180.83	    14.731
   6.340        186.67	    14.967
   6.360        200.00	    15.492
   6.380        205.83	    15.716
   6.400        205.00	    15.684
   6.420        200.83	    15.524
   6.440        186.67	    14.967
   6.460        190.00	    15.100
   6.480        181.67	    14.765
   6.500        179.17	    14.663
   6.520        170.00	    14.283
   6.540        185.00	    14.900
   6.560        189.17	    15.067
   6.580        155.83	    13.675
   6.600        155.83	    13.675
   6.620        160.00	    13.856
   6.640        135.83	    12.767
   6.660        138.33	    12.884
   6.680        119.17	    11.958
   6.700        125.83	    12.288
   6.720        120.00	    12.000
   6.740        129.17	    12.450
   6.760        149.17	    13.379
   6.780        124.17	    12.207
   6.800        135.83	    12.767
   6.820        102.50	    11.091
   6.840        121.67	    12.083
   6.860        107.50	    11.358
   6.880        110.83	    11.533
   6.900        122.50	    12.124
   6.920        118.33	    11.916
   6.940        110.00	    11.489
   6.960         96.67	    10.770
   6.980        108.33	    11.402
   7.000         97.50	    10.817
   7.020        102.50	    11.091
   7.040         91.67	    10.488
   7.060        105.00	    11.225
   7.080         91.67	    10.488
   7.100         77.50	     9.644
   7.120        109.17	    11.446
   7.140         90.83	    10.440
   7.160         92.50	    10.536
   7.180         89.17	    10.344
   7.200         95.00	    10.677
   7.220         89.17	    10.344
   7.240        102.50	    11.091
   7.260         91.67	    10.488
   7.280         95.83	    10.724
   7.300         92.50	    10.536
   7.320         91.67	    10.488
   7.340         98.33	    10.863
   7.360        111.67	    11.576
   7.380        100.00	    10.954
   7.400        100.00	    10.954
   7.420         87.50	    10.247
   7.440         96.67	    10.770
   7.460         90.83	    10.440
   7.480         96.67	    10.770
   7.500         90.00	    10.392
   7.520        105.83	    11.269
   7.540         98.33	    10.863
   7.560         88.33	    10.296
   7.580         97.50	    10.817
   7.600         93.33	    10.583
   7.620         84.17	    10.050
   7.640        103.33	    11.136
   7.660         84.17	    10.050
   7.680         83.33	    10.000
   7.700         90.00	    10.392
   7.720         89.17	    10.344
   7.740         79.17	     9.747
   7.760         84.17	    10.050
   7.780         95.00	    10.677
   7.800         88.33	    10.296
   7.820         94.17	    10.630
   7.840        100.00	    10.954
   7.860         88.33	    10.296
   7.880         87.50	    10.247
   7.900        101.67	    11.045
   7.920         85.83	    10.149
   7.940        101.67	    11.045
   7.960         96.67	    10.770
   7.980         75.00	     9.487
   8.000         78.33	     9.695
   8.020         84.17	    10.050
   8.040         94.17	    10.630
   8.060         92.50	    10.536
   8.080         75.83	     9.539
   8.100         90.00	    10.392
   8.120         76.67	     9.592
   8.140        103.33	    11.136
   8.160         70.83	     9.220
   8.180         91.67	    10.488
   8.200         88.33	    10.296
   8.220         84.17	    10.050
   8.240         69.17	     9.110
   8.260         84.17	    10.050
   8.280         88.33	    10.296
   8.300         85.00	    10.100
   8.320         76.67	     9.592
   8.340         62.50	     8.660
   8.360         70.00	     9.165
   8.380         60.83	     8.544
   8.400         55.83	     8.185
   8.420         70.83	     9.220
   8.440         57.50	     8.307
   8.460         71.67	     9.274
   8.480         67.50	     9.000
   8.500         78.33	     9.695
   8.520         84.17	    10.050
   8.540         60.83	     8.544
   8.560         75.00	     9.487
   8.580         70.00	     9.165
   8.600         60.83	     8.544
   8.620         66.67	     8.944
   8.640         79.17	     9.747
   8.660         78.33	     9.695
   8.680         80.00	     9.798
   8.700         66.67	     8.944
   8.720         75.00	     9.487
   8.740         79.17	     9.747
   8.760         70.00	     9.165
   8.780         67.50	     9.000
   8.800         84.17	    10.050
   8.820         75.00	     9.487
   8.840         83.33	    10.000
   8.860         73.33	     9.381
   8.880         79.17	     9.747
   8.900         79.17	     9.747
   8.920         80.83	     9.849
   8.940         80.00	     9.798
   8.960         90.00	    10.392
   8.980         92.50	    10.536
   9.000         90.83	    10.440
   9.020         95.00	    10.677
   9.040         87.50	    10.247
   9.060        120.00	    12.000
   9.080        103.33	    11.136
   9.100        121.67	    12.083
   9.120        135.83	    12.767
   9.140        136.67	    12.806
   9.160        122.50	    12.124
   9.180        141.67	    13.038
   9.200        162.50	    13.964
   9.220        200.00	    15.492
   9.240        205.83	    15.716
   9.260        205.83	    15.716
   9.280        217.50	    16.155
   9.300        184.17	    14.866
   9.320        183.33	    14.832
   9.340        153.33	    13.565
   9.360        125.00	    12.247
   9.380        121.67	    12.083
   9.400        122.50	    12.124
   9.420        111.67	    11.576
   9.440         94.17	    10.630
   9.460         89.17	    10.344
   9.480         84.17	    10.050
   9.500         61.67	     8.602
   9.520         85.00	    10.100
   9.540         69.17	     9.110
   9.560         66.67	     8.944
   9.580         67.50	     9.000
   9.600         72.50	     9.327
   9.620         80.83	     9.849
   9.640         75.00	     9.487
   9.660         66.67	     8.944
   9.680         77.50	     9.644
   9.700         74.17	     9.434
   9.720         78.33	     9.695
   9.740         69.17	     9.110
   9.760         70.83	     9.220
   9.780         80.00	     9.798
   9.800         75.00	     9.487
   9.820         72.50	     9.327
   9.840         75.83	     9.539
   9.860         69.17	     9.110
   9.880         74.17	     9.434
   9.900         67.50	     9.000
   9.920         68.33	     9.055
   9.940         69.17	     9.110
   9.960         64.17	     8.775
   9.980         57.50	     8.307
  10.000         44.17	     7.280
  10.020         63.33	     8.718
  10.040         53.33	     8.000
  10.060         60.83	     8.544
  10.080         61.67	     8.602
  10.100         45.00	     7.348
  10.120         62.50	     8.660
  10.140         47.50	     7.550
  10.160         64.17	     8.775
  10.180         57.50	     8.307
  10.200         65.83	     8.888
  10.220         54.17	     8.062
  10.240         64.17	     8.775
  10.260         65.83	     8.888
  10.280         65.83	     8.888
  10.300         50.00	     7.746
  10.320         45.00	     7.348
  10.340         44.17	     7.280
  10.360         73.33	     9.381
  10.380         50.83	     7.810
  10.400         49.17	     7.681
  10.420         45.00	     7.348
  10.440         46.67	     7.483
  10.460         41.67	     7.071
  10.480         50.83	     7.810
  10.500         48.33	     7.616
  10.520         50.83	     7.810
  10.540         55.00	     8.124
  10.560         46.67	     7.483
  10.580         50.00	     7.746
  10.600         43.33	     7.211
  10.620         50.83	     7.810
  10.640         54.17	     8.062
  10.660         44.17	     7.280
  10.680         38.33	     6.782
  10.700         50.00	     7.746
  10.720         40.00	     6.928
  10.740         69.17	     9.110
  10.760         59.17	     8.426
  10.780         65.00	     8.832
  10.800         67.50	     9.000
  10.820         60.83	     8.544
  10.840         78.33	     9.695
  10.860         82.50	     9.950
  10.880         84.17	    10.050
  10.900         76.67	     9.592
  10.920         66.67	     8.944
  10.940         65.00	     8.832
  10.960         65.00	     8.832
  10.980         52.50	     7.937
  11.000         49.17	     7.681
  11.020         46.67	     7.483
  11.040         74.17	     9.434
  11.060         50.83	     7.810
  11.080         45.00	     7.348
  11.100         55.00	     8.124
  11.120         50.83	     7.810
  11.140         64.17	     8.775
  11.160         43.33	     7.211
  11.180         55.83	     8.185
  11.200         45.83	     7.416
  11.220         41.67	     7.071
  11.240         44.17	     7.280
  11.260         50.83	     7.810
  11.280         52.50	     7.937
  11.300         50.00	     7.746
  11.320         41.67	     7.071
  11.340         53.33	     8.000
  11.360         45.00	     7.348
  11.380         54.17	     8.062
  11.400         49.17	     7.681
  11.420         44.17	     7.280
  11.440         46.67	     7.483
  11.460         35.83	     6.557
  11.480         51.67	     7.874
  11.500         45.00	     7.348
  11.520         44.17	     7.280
  11.540         37.50	     6.708
  11.560         45.83	     7.416
  11.580         49.17	     7.681
  11.600         50.83	     7.810
  11.620         49.17	     7.681
  11.640         45.00	     7.348
  11.660         37.50	     6.708
  11.680         41.67	     7.071
  11.700         48.33	     7.616
  11.720         47.50	     7.550
  11.740         46.67	     7.483
  11.760         45.83	     7.416
  11.780         41.67	     7.071
  11.800         47.50	     7.550
  11.820         38.33	     6.782
  11.840         51.67	     7.874
  11.860         45.83	     7.416
  11.880         38.33	     6.782
  11.900         41.67	     7.071
  11.920         52.50	     7.937
  11.940         47.50	     7.550
  11.960         26.67	     5.657
  11.980         52.50	     7.937
  12.000         37.50	     6.708
  12.020         46.67	     7.483
  12.040         46.67	     7.483
  12.060         63.33	     8.718
  12.080         46.67	     7.483
  12.100         43.33	     7.211
  12.120         55.83	     8.185
  12.140         53.33	     8.000
  12.160         37.50	     6.708
  12.180         48.33	     7.616
  12.200         48.33	     7.616
  12.220         55.00	     8.124
  12.240         50.83	     7.810
  12.260         51.67	     7.874
  12.280         40.83	     7.000
  12.300         40.83	     7.000
  12.320         53.33	     8.000
  12.340         70.83	     9.220
  12.360         68.33	     9.055
  12.380         65.83	     8.888
  12.400         82.50	     9.950
  12.420         72.50	     9.327
  12.440        105.83	    11.269
  12.460        116.67	    11.832
  12.480        164.17	    14.036
  12.500        196.67	    15.362
  12.520        237.50	    16.882
  12.540        305.00	    19.131
  12.560        347.50	    20.421
  12.580        320.83	    19.621
  12.600        282.50	    18.412
  12.620        288.33	    18.601
  12.640        297.50	    18.894
  12.660        260.00	    17.664
  12.680        223.33	    16.371
  12.700        220.83	    16.279
  12.720        171.67	    14.353
  12.740        180.00	    14.697
  12.760        166.67	    14.142
  12.780        170.83	    14.318
  12.800        176.67	    14.560
  12.820        205.00	    15.684
  12.840        186.67	    14.967
  12.860        193.33	    15.232
  12.880        200.83	    15.524
  12.900        185.83	    14.933
  12.920        178.33	    14.629
  12.940        174.17	    14.457
  12.960        144.17	    13.153
  12.980        110.83	    11.533
  13.000         76.67	     9.592
  13.020         63.33	     8.718
  13.040         77.50	     9.644
  13.060         65.00	     8.832
  13.080         66.67	     8.944
  13.100         52.50	     7.937
  13.120         47.50	     7.550
  13.140         50.00	     7.746
  13.160         45.83	     7.416
  13.180         44.17	     7.280
  13.200         46.67	     7.483
  13.220         41.67	     7.071
  13.240         31.67	     6.164
  13.260         41.67	     7.071
  13.280         59.17	     8.426
  13.300         28.33	     5.831
  13.320         40.00	     6.928
  13.340         33.33	     6.325
  13.360         46.67	     7.483
  13.380         36.67	     6.633
  13.400         38.33	     6.782
  13.420         45.00	     7.348
  13.440         35.00	     6.481
  13.460         43.33	     7.211
  13.480         36.67	     6.633
  13.500         45.83	     7.416
  13.520         45.00	     7.348
  13.540         42.50	     7.141
  13.560         32.50	     6.245
  13.580         27.50	     5.745
  13.600         43.33	     7.211
  13.620         34.17	     6.403
  13.640         40.00	     6.928
  13.660         30.83	     6.083
  13.680         37.50	     6.708
  13.700         40.00	     6.928
  13.720         50.00	     7.746
  13.740         43.33	     7.211
  13.760         45.83	     7.416
  13.780         44.17	     7.280
  13.800         36.67	     6.633
  13.820         45.83	     7.416
  13.840         33.33	     6.325
  13.860         32.50	     6.245
  13.880         44.17	     7.280
  13.900         48.33	     7.616
  13.920         49.17	     7.681
  13.940         44.17	     7.280
  13.960         43.33	     7.211
  13.980         41.67	     7.071
  14.000         43.33	     7.211
  14.020         47.50	     7.550
  14.040         37.50	     6.708
  14.060         35.00	     6.481
  14.080         40.00	     6.928
  14.100         32.50	     6.245
  14.120         32.50	     6.245
  14.140         38.33	     6.782
  14.160         33.33	     6.325
  14.180         31.67	     6.164
  14.200         49.17	     7.681
  14.220         63.33	     8.718
  14.240         45.00	     7.348
  14.260         58.33	     8.367
  14.280         41.67	     7.071
  14.300         38.33	     6.782
  14.320         39.17	     6.856
  14.340         46.67	     7.483
  14.360         35.00	     6.481
  14.380         46.67	     7.483
  14.400         37.50	     6.708
  14.420         42.50	     7.141
  14.440         34.17	     6.403
  14.460         35.00	     6.481
  14.480         29.17	     5.916
  14.500         30.00	     6.000
  14.520         37.50	     6.708
  14.540         33.33	     6.325
  14.560         28.33	     5.831
  14.580         32.50	     6.245
  14.600         24.17	     5.385
  14.620         31.67	     6.164
  14.640         26.67	     5.657
  14.660         35.83	     6.557
  14.680         30.83	     6.083
  14.700         34.17	     6.403
  14.720         37.50	     6.708
  14.740         32.50	     6.245
  14.760         36.67	     6.633
  14.780         35.00	     6.481
  14.800         25.83	     5.568
  14.820         35.83	     6.557
  14.840         30.00	     6.000
  14.860         30.00	     6.000
  14.880         35.00	     6.481
  14.900         33.33	     6.325
  14.920         32.50	     6.245
  14.940         35.83	     6.557
  14.960         22.50	     5.196
  14.980         30.83	     6.083
  15.000         33.33	     6.325
  15.020         25.00	     5.477
  15.040         34.17	     6.403
  15.060         27.50	     5.745
  15.080         35.00	     6.481
  15.100         33.33	     6.325
  15.120         40.00	     6.928
  15.140         32.50	     6.245
  15.160         25.00	     5.477
  15.180         28.33	     5.831
  15.200         31.67	     6.164
  15.220         36.67	     6.633
  15.240         22.50	     5.196
  15.260         29.17	     5.916
  15.280         31.67	     6.164
  15.300         35.83	     6.557
  15.320         30.00	     6.000
  15.340         30.83	     6.083
  15.360         30.83	     6.083
  15.380         39.17	     6.856
  15.400         37.50	     6.708
  15.420         40.00	     6.928
  15.440         36.67	     6.633
  15.460         28.33	     5.831
  15.480         25.83	     5.568
  15.500         40.83	     7.000
  15.520         32.50	     6.245
  15.540         30.83	     6.083
  15.560         29.17	     5.916
  15.580         31.67	     6.164
  15.600         30.00	     6.000
  15.620         26.67	     5.657
  15.640         23.33	     5.292
  15.660         25.83	     5.568
  15.680         27.50	     5.745
  15.700         35.83	     6.557
  15.720         32.50	     6.245
  15.740         26.67	     5.657
  15.760         31.67	     6.164
  15.780         24.17	     5.385
  15.800         31.67	     6.164
  15.820         23.33	     5.292
  15.840         25.00	     5.477
  15.860         28.33	     5.831
  15.880         30.00	     6.000
  15.900         20.83	     5.000
  15.920         26.67	     5.657
  15.940         36.67	     6.633
  15.960         34.17	     6.403
  15.980         26.67	     5.657
  16.000         25.83	     5.568
  16.020         32.50	     6.245
  16.040         29.17	     5.916
  16.060         28.33	     5.831
  16.080         25.00	     5.477
  16.100         30.00	     6.000
  16.120         24.17	     5.385
  16.140         35.00	     6.481
  16.160         28.33	     5.831
  16.180         25.00	     5.477
  16.200         20.83	     5.000
  16.220         45.00	     7.348
  16.240         21.67	     5.099
  16.260         30.00	     6.000
  16.280         32.50	     6.245
  16.300         35.83	     6.557
  16.320         32.50	     6.245
  16.340         27.50	     5.745
  16.360         25.83	     5.568
  16.380         30.83	     6.083
  16.400         25.00	     5.477
  16.420         18.33	     4.690
  16.440         27.50	     5.745
  16.460         24.17	     5.385
  16.480         30.83	     6.083
  16.500         23.33	     5.292
  16.520         32.50	     6.245
  16.540         27.50	     5.745
  16.560         30.83	     6.083
  16.580         21.67	     5.099
  16.600         29.17	     5.916
  16.620         30.00	     6.000
  16.640         25.83	     5.568
  16.660         30.00	     6.000
  16.680         30.83	     6.083
  16.700         26.67	     5.657
  16.720         33.33	     6.325
  16.740         13.33	     4.000
  16.760         27.50	     5.745
  16.780         30.00	     6.000
  16.800         26.67	     5.657
  16.820         34.17	     6.403
  16.840         20.00	     4.899
  16.860         36.67	     6.633
  16.880         20.83	     5.000
  16.900         20.83	     5.000
  16.920         29.17	     5.916
  16.940         33.33	     6.325
  16.960         32.50	     6.245
  16.980         27.50	     5.745
  17.000         27.50	     5.745
  17.020         29.17	     5.916
  17.040         33.33	     6.325
  17.060         22.50	     5.196
  17.080         32.50	     6.245
  17.100         21.67	     5.099
  17.120         24.17	     5.385
  17.140         26.67	     5.657
  17.160         20.00	     4.899
  17.180         25.00	     5.477
  17.200         30.00	     6.000
  17.220         31.67	     6.164
  17.240         27.50	     5.745
  17.260         23.33	     5.292
  17.280         25.83	     5.568
  17.300         25.83	     5.568
  17.320         23.33	     5.292
  17.340         23.33	     5.292
  17.360         24.17	     5.385
  17.380         25.83	     5.568
  17.400         28.33	     5.831
  17.420         39.17	     6.856
  17.440         24.17	     5.385
  17.460         30.83	     6.083
  17.480         32.50	     6.245
  17.500         24.17	     5.385
  17.520         23.33	     5.292
  17.540         25.83	     5.568
  17.560         28.33	     5.831
  17.580         33.33	     6.325
  17.600         23.33	     5.292
  17.620         30.00	     6.000
  17.640         32.50	     6.245
  17.660         38.33	     6.782
  17.680         27.50	     5.745
  17.700         30.83	     6.083
  17.720         30.83	     6.083
  17.740         30.00	     6.000
  17.760         32.50	     6.245
  17.780         30.00	     6.000
  17.800         31.67	     6.164
  17.820         31.67	     6.164
  17.840         26.67	     5.657
  17.860         44.17	     7.280
  17.880         29.17	     5.916
  17.900         27.50	     5.745
  17.920         25.00	     5.477
  17.940         30.83	     6.083
  17.960         32.50	     6.245
  17.980         31.67	     6.164
  18.000         41.67	     7.071
  18.020         45.00	     7.348
  18.040         49.17	     7.681
  18.060         53.33	     8.000
  18.080         57.50	     8.307
  18.100         61.67	     8.602
  18.120         87.50	    10.247
  18.140         95.00	    10.677
  18.160         97.50	    10.817
  18.180         98.33	    10.863
  18.200        114.17	    11.705
  18.220         89.17	    10.344
  18.240        102.50	    11.091
  18.260         90.00	    10.392
  18.280         90.00	    10.392
  18.300         63.33	     8.718
  18.320         65.83	     8.888
  18.340         62.50	     8.660
  18.360         48.33	     7.616
  18.380         41.67	     7.071
  18.400         42.50	     7.141
  18.420         45.83	     7.416
  18.440         35.83	     6.557
  18.460         35.00	     6.481
  18.480         35.83	     6.557
  18.500         44.17	     7.280
  18.520         34.17	     6.403
  18.540         30.83	     6.083
  18.560         32.50	     6.245
  18.580         41.67	     7.071
  18.600         32.50	     6.245
  18.620         24.17	     5.385
  18.640         31.67	     6.164
  18.660         36.67	     6.633
  18.680         31.67	     6.164
  18.700         41.67	     7.071
  18.720         26.67	     5.657
  18.740         36.67	     6.633
  18.760         34.17	     6.403
  18.780         39.17	     6.856
  18.800         42.50	     7.141
  18.820         38.33	     6.782
  18.840         47.50	     7.550
  18.860         50.00	     7.746
  18.880         71.67	     9.274
  18.900         53.33	     8.000
  18.920         57.50	     8.307
  18.940         53.33	     8.000
  18.960         56.67	     8.246
  18.980         60.83	     8.544
  19.000         65.00	     8.832
  19.020         67.50	     9.000
  19.040         72.50	     9.327
  19.060         71.67	     9.274
  19.080         69.17	     9.110
  19.100         92.50	    10.536
  19.120        120.83	    12.042
  19.140        116.67	    11.832
  19.160        101.67	    11.045
  19.180        101.67	    11.045
  19.200        105.83	    11.269
  19.220         95.83	    10.724
  19.240         75.00	     9.487
  19.260         67.50	     9.000
  19.280         68.33	     9.055
  19.300         55.83	     8.185
  19.320         50.00	     7.746
  19.340         45.83	     7.416
  19.360         50.83	     7.810
  19.380         36.67	     6.633
  19.400         25.00	     5.477
  19.420         43.33	     7.211
  19.440         36.67	     6.633
  19.460         35.00	     6.481
  19.480         42.50	     7.141
  19.500         28.33	     5.831
  19.520         30.83	     6.083
  19.540         32.50	     6.245
  19.560         37.50	     6.708
  19.580         45.83	     7.416
  19.600         38.33	     6.782
  19.620         32.50	     6.245
  19.640         40.00	     6.928
  19.660         43.33	     7.211
  19.680         39.17	     6.856
  19.700         45.00	     7.348
  19.720         43.33	     7.211
  19.740         30.00	     6.000
  19.760         46.67	     7.483
  19.780         39.17	     6.856
  19.800         43.33	     7.211
  19.820         33.33	     6.325
  19.840         48.33	     7.616
  19.860         38.33	     6.782
  19.880         48.33	     7.616
  19.900         37.50	     6.708
  19.920         43.33	     7.211
  19.940         45.83	     7.416
  19.960         40.83	     7.000
  19.980         47.50	     7.550
  20.000         50.00	     7.746
  20.020         50.83	     7.810
  20.040         51.67	     7.874
  20.060         70.83	     9.220
  20.080         51.67	     7.874
  20.100         60.83	     8.544
  20.120         67.50	     9.000
  20.140         65.83	     8.888
  20.160         72.50	     9.327
  20.180         68.33	     9.055
  20.200         60.83	     8.544
  20.220         78.33	     9.695
  20.240         66.67	     8.944
  20.260         77.50	     9.644
  20.280         63.33	     8.718
  20.300         64.17	     8.775
  20.320         46.67	     7.483
  20.340         55.83	     8.185
  20.360         42.50	     7.141
  20.380         50.00	     7.746
  20.400         38.33	     6.782
  20.420         31.67	     6.164
  20.440         50.83	     7.810
  20.460         35.83	     6.557
  20.480         40.83	     7.000
  20.500         42.50	     7.141
  20.520         45.83	     7.416
  20.540         38.33	     6.782
  20.560         35.00	     6.481
  20.580         33.33	     6.325
  20.600         33.33	     6.325
  20.620         30.83	     6.083
  20.640         33.33	     6.325
  20.660         30.00	     6.000
  20.680         39.17	     6.856
  20.700         32.50	     6.245
  20.720         36.67	     6.633
  20.740         34.17	     6.403
  20.760         31.67	     6.164
  20.780         40.83	     7.000
  20.800         32.50	     6.245
  20.820         40.83	     7.000
  20.840         39.17	     6.856
  20.860         35.00	     6.481
  20.880         33.33	     6.325
  20.900         35.83	     6.557
  20.920         42.50	     7.141
  20.940         50.00	     7.746
  20.960         45.83	     7.416
  20.980         48.33	     7.616
  21.000         46.67	     7.483
  21.020         41.67	     7.071
  21.040         37.50	     6.708
  21.060         46.67	     7.483
  21.080         40.83	     7.000
  21.100         48.33	     7.616
  21.120         75.00	     9.487
  21.140         79.17	     9.747
  21.160        122.50	    12.124
  21.180        132.50	    12.610
  21.200        145.83	    13.229
  21.220        200.00	    15.492
  21.240        186.67	    14.967
  21.260        233.33	    16.733
  21.280        182.50	    14.799
  21.300        188.33	    15.033
  21.320        163.33	    14.000
  21.340        157.50	    13.748
  21.360        146.67	    13.266
  21.380        126.67	    12.329
  21.400        113.33	    11.662
  21.420         87.50	    10.247
  21.440         86.67	    10.198
  21.460         73.33	     9.381
  21.480         64.17	     8.775
  21.500         45.83	     7.416
  21.520         39.17	     6.856
  21.540         40.00	     6.928
  21.560         49.17	     7.681
  21.580         39.17	     6.856
  21.600         34.17	     6.403
  21.620         32.50	     6.245
  21.640         31.67	     6.164
  21.660         39.17	     6.856
  21.680         50.83	     7.810
  21.700         30.83	     6.083
  21.720         45.83	     7.416
  21.740         23.33	     5.292
  21.760         31.67	     6.164
  21.780         40.83	     7.000
  21.800         36.67	     6.633
  21.820         30.83	     6.083
  21.840         32.50	     6.245
  21.860         37.50	     6.708
  21.880         45.00	     7.348
  21.900         45.00	     7.348
  21.920         47.50	     7.550
  21.940         50.00	     7.746
  21.960         49.17	     7.681
  21.980         42.50	     7.141
  22.000         36.67	     6.633
  22.020         35.83	     6.557
  22.040         29.17	     5.916
  22.060         33.33	     6.325
  22.080         30.83	     6.083
  22.100         35.83	     6.557
  22.120         39.17	     6.856
  22.140         26.67	     5.657
  22.160         22.50	     5.196
  22.180         35.83	     6.557
  22.200         40.83	     7.000
  22.220         35.83	     6.557
  22.240         40.83	     7.000
  22.260         36.67	     6.633
  22.280         50.00	     7.746
  22.300         60.00	     8.485
  22.320         82.50	     9.950
  22.340         74.17	     9.434
  22.360         93.33	    10.583
  22.380        120.00	    12.000
  22.400        146.67	    13.266
  22.420        139.17	    12.923
  22.440        167.50	    14.177
  22.460        164.17	    14.036
  22.480        156.67	    13.711
  22.500        133.33	    12.649
  22.520        104.17	    11.180
  22.540        104.17	    11.180
  22.560         71.67	     9.274
  22.580         65.00	     8.832
  22.600         56.67	     8.246
  22.620         51.67	     7.874
  22.640         47.50	     7.550
  22.660         56.67	     8.246
  22.680         42.50	     7.141
  22.700         31.67	     6.164
  22.720         41.67	     7.071
  22.740         50.00	     7.746
  22.760         32.50	     6.245
  22.780         44.17	     7.280
  22.800         39.17	     6.856
  22.820         51.67	     7.874
  22.840         55.83	     8.185
  22.860         58.33	     8.367
  22.880         47.50	     7.550
  22.900         49.17	     7.681
  22.920         46.67	     7.483
  22.940         53.33	     8.000
  22.960         49.17	     7.681
  22.980         40.00	     6.928
  23.000         45.00	     7.348
  23.020         33.33	     6.325
  23.040         45.83	     7.416
  23.060         39.17	     6.856
  23.080         40.00	     6.928
  23.100         42.50	     7.141
  23.120         43.33	     7.211
  23.140         43.33	     7.211
  23.160         48.33	     7.616
  23.180         53.33	     8.000
  23.200         49.17	     7.681
  23.220         63.33	     8.718
  23.240         77.50	     9.644
  23.260         55.83	     8.185
  23.280         77.50	     9.644
  23.300         79.17	     9.747
  23.320         76.67	     9.592
  23.340         70.83	     9.220
  23.360         74.17	     9.434
  23.380         77.50	     9.644
  23.400         78.33	     9.695
  23.420         78.33	     9.695
  23.440         78.33	     9.695
  23.460         67.50	     9.000
  23.480         71.67	     9.274
  23.500         67.50	     9.000
  23.520         60.83	     8.544
  23.540         59.17	     8.426
  23.560         36.67	     6.633
  23.580         53.33	     8.000
  23.600         38.33	     6.782
  23.620         51.67	     7.874
  23.640         46.67	     7.483
  23.660         55.00	     8.124
  23.680         44.17	     7.280
  23.700         59.17	     8.426
  23.720         53.33	     8.000
  23.740         50.00	     7.746
  23.760         44.17	     7.280
  23.780         65.83	     8.888
  23.800         48.33	     7.616
  23.820         58.33	     8.367
  23.840         82.50	     9.950
  23.860        105.00	    11.225
  23.880        123.33	    12.166
  23.900        119.17	    11.958
  23.920        136.67	    12.806
  23.940        120.00	    12.000
  23.960        160.83	    13.892
  23.980        125.00	    12.247
  24.000        115.00	    11.747
  24.020        122.50	    12.124
  24.040        125.00	    12.247
  24.060         82.50	     9.950
  24.080         85.83	    10.149
  24.100         66.67	     8.944
  24.120         90.83	    10.440
  24.140         74.17	     9.434
  24.160         75.00	     9.487
  24.180         93.33	    10.583
  24.200         80.00	     9.798
  24.220         68.33	     9.055
  24.240         75.00	     9.487
  24.260         74.17	     9.434
  24.280         65.00	     8.832
  24.300         72.50	     9.327
  24.320         72.50	     9.327
  24.340         66.67	     8.944
  24.360         64.17	     8.775
  24.380         65.00	     8.832
  24.400         51.67	     7.874
  24.420         78.33	     9.695
  24.440         65.00	     8.832
  24.460         89.17	    10.344
  24.480        107.50	    11.358
  24.500         91.67	    10.488
  24.520        108.33	    11.402
  24.540        115.83	    11.790
  24.560        125.83	    12.288
  24.580        121.67	    12.083
  24.600        136.67	    12.806
  24.620        145.00	    13.191
  24.640        155.83	    13.675
  24.660        160.83	    13.892
  24.680        145.83	    13.229
  24.700        139.17	    12.923
  24.720        129.17	    12.450
  24.740        115.83	    11.790
  24.760        119.17	    11.958
  24.780         98.33	    10.863
  24.800         95.83	    10.724
  24.820         93.33	    10.583
  24.840        124.17	    12.207
  24.860        135.00	    12.728
  24.880        175.83	    14.526
  24.900        192.50	    15.199
  24.920        273.33	    18.111
  24.940        255.83	    17.521
  24.960        294.17	    18.788
  24.980        324.17	    19.723
  25.000        320.00	    19.596
  25.020        277.50	    18.248
  25.040        297.50	    18.894
  25.060        269.17	    17.972
  25.080        268.33	    17.944
  25.100        221.67	    16.310
  25.120        187.50	    15.000
  25.140        162.50	    13.964
  25.160        156.67	    13.711
  25.180        153.33	    13.565
  25.200        143.33	    13.115
  25.220        133.33	    12.649
  25.240        138.33	    12.884
  25.260        111.67	    11.576
  25.280        140.00	    12.961
  25.300        104.17	    11.180
  25.320        110.83	    11.533
  25.340        111.67	    11.576
  25.360        105.83	    11.269
  25.380        115.83	    11.790
  25.400        114.17	    11.705
  25.420        145.83	    13.229
  25.440        171.67	    14.353
  25.460        176.67	    14.560
  25.480        194.17	    15.264
  25.500        221.67	    16.310
  25.520        240.83	    17.000
  25.540        234.17	    16.763
  25.560        208.33	    15.811
  25.580        173.33	    14.422
  25.600        178.33	    14.629
  25.620        147.50	    13.304
  25.640        149.17	    13.379
  25.660        129.17	    12.450
  25.680         96.67	    10.770
  25.700        100.00	    10.954
  25.720        102.50	    11.091
  25.740        125.00	    12.247
  25.760        120.00	    12.000
  25.780        107.50	    11.358
  25.800        145.00	    13.191
  25.820        127.50	    12.369
  25.840        132.50	    12.610
  25.860        130.00	    12.490
  25.880        136.67	    12.806
  25.900        129.17	    12.450
  25.920        125.00	    12.247
  25.940        128.33	    12.410
  25.960        129.17	    12.450
  25.980        108.33	    11.402
  26.000        105.00	    11.225
  26.020        123.33	    12.166
  26.040        105.00	    11.225
  26.060        107.50	    11.358
  26.080        105.83	    11.269
  26.100         87.50	    10.247
  26.120         85.83	    10.149
  26.140         50.00	     7.746
  26.160         70.83	     9.220
  26.180         64.17	     8.775
  26.200         56.67	     8.246
  26.220         61.67	     8.602
  26.240         57.50	     8.307
  26.260         58.33	     8.367
  26.280         65.83	     8.888
  26.300         55.83	     8.185
  26.320         57.50	     8.307
  26.340         54.17	     8.062
  26.360         52.50	     7.937
  26.380         50.00	     7.746
  26.400         61.67	     8.602
  26.420         58.33	     8.367
  26.440         45.83	     7.416
  26.460         65.00	     8.832
  26.480         81.67	     9.899
  26.500         59.17	     8.426
  26.520         69.17	     9.110
  26.540         46.67	     7.483
  26.560         73.33	     9.381
  26.580         72.50	     9.327
  26.600         76.67	     9.592
  26.620         60.83	     8.544
  26.640         82.50	     9.950
  26.660         90.00	    10.392
  26.680        108.33	    11.402
  26.700        115.83	    11.790
  26.720        113.33	    11.662
  26.740        120.00	    12.000
  26.760        143.33	    13.115
  26.780        161.67	    13.928
  26.800        136.67	    12.806
  26.820        157.50	    13.748
  26.840        203.33	    15.620
  26.860        208.33	    15.811
  26.880        222.50	    16.340
  26.900        297.50	    18.894
  26.920        350.00	    20.494
  26.940        482.50	    24.062
  26.960        647.50	    27.875
  26.980        710.83	    29.206
  27.000        721.67	    29.428
  27.020        782.50	    30.643
  27.040        905.00	    32.955
  27.060        880.83	    32.512
  27.080        845.00	    31.843
  27.100        730.00	    29.597
  27.120        642.50	    27.767
  27.140        558.33	    25.884
  27.160        495.00	    24.372
  27.180        480.83	    24.021
  27.200        405.83	    22.068
  27.220        392.50	    21.703
  27.240        360.83	    20.809
  27.260        372.50	    21.142
  27.280        325.83	    19.774
  27.300        312.50	    19.365
  27.320        275.00	    18.166
  27.340        222.50	    16.340
  27.360        230.00	    16.613
  27.380        185.00	    14.900
  27.400        177.50	    14.595
  27.420        153.33	    13.565
  27.440        127.50	    12.369
  27.460        130.83	    12.530
  27.480        116.67	    11.832
  27.500        110.83	    11.533
  27.520         94.17	    10.630
  27.540         90.83	    10.440
  27.560         75.83	     9.539
  27.580         61.67	     8.602
  27.600         80.00	     9.798
  27.620         84.17	    10.050
  27.640         93.33	    10.583
  27.660         70.00	     9.165
  27.680         85.00	    10.100
  27.700         66.67	     8.944
  27.720         98.33	    10.863
  27.740         79.17	     9.747
  27.760         91.67	    10.488
  27.780         92.50	    10.536
  27.800        108.33	    11.402
  27.820        115.83	    11.790
  27.840        134.17	    12.689
  27.860        115.00	    11.747
  27.880        165.83	    14.107
  27.900        175.83	    14.526
  27.920        143.33	    13.115
  27.940        134.17	    12.689
  27.960        135.00	    12.728
  27.980        153.33	    13.565
  28.000        156.67	    13.711
  28.020        138.33	    12.884
  28.040        154.17	    13.601
  28.060        175.00	    14.491
  28.080        184.17	    14.866
  28.100        182.50	    14.799
  28.120        190.83	    15.133
  28.140        194.17	    15.264
  28.160        228.33	    16.553
  28.180        249.17	    17.292
  28.200        266.67	    17.889
  28.220        286.67	    18.547
  28.240        365.83	    20.952
  28.260        390.83	    21.656
  28.280        377.50	    21.284
  28.300        380.00	    21.354
  28.320        403.33	    22.000
  28.340        360.83	    20.809
  28.360        335.00	    20.050
  28.380        276.67	    18.221
  28.400        300.83	    19.000
  28.420        246.67	    17.205
  28.440        191.67	    15.166
  28.460        152.50	    13.528
  28.480        155.83	    13.675
  28.500        181.67	    14.765
  28.520        141.67	    13.038
  28.540        151.67	    13.491
  28.560        166.67	    14.142
  28.580        159.17	    13.820
  28.600        212.50	    15.969
  28.620        342.50	    20.273
  28.640        353.33	    20.591
  28.660        226.67	    16.492
  28.680        190.83	    15.133
  28.700        212.50	    15.969
  28.720        221.67	    16.310
  28.740        136.67	    12.806
  28.760        102.50	    11.091
  28.780         85.83	    10.149
  28.800         65.00	     8.832
  28.820         64.17	     8.775
  28.840         90.83	    10.440
  28.860         81.67	     9.899
  28.880         75.83	     9.539
  28.900        100.83	    11.000
  28.920        102.50	    11.091
  28.940        115.83	    11.790
  28.960        127.50	    12.369
  28.980        116.67	    11.832
  29.000        124.17	    12.207
  29.020        104.17	    11.180
  29.040        118.33	    11.916
  29.060        107.50	    11.358
  29.080        113.33	    11.662
  29.100        107.50	    11.358
  29.120        100.83	    11.000
  29.140         90.00	    10.392
  29.160         85.83	    10.149
  29.180         65.83	     8.888
  29.200         82.50	     9.950
  29.220         62.50	     8.660
  29.240         54.17	     8.062
  29.260         60.83	     8.544
  29.280         43.33	     7.211
  29.300         45.00	     7.348
  29.320         45.00	     7.348
  29.340         58.33	     8.367
  29.360         41.67	     7.071
  29.380         40.00	     6.928
  29.400         35.00	     6.481
  29.420         46.67	     7.483
  29.440         38.33	     6.782
  29.460         31.67	     6.164
  29.480         50.83	     7.810
  29.500         41.67	     7.071
  29.520         40.00	     6.928
  29.540         36.67	     6.633
  29.560         47.50	     7.550
  29.580         45.00	     7.348
  29.600         25.83	     5.568
  29.620         35.83	     6.557
  29.640         29.17	     5.916
  29.660         31.67	     6.164
  29.680         30.00	     6.000
  29.700         30.83	     6.083
  29.720         35.00	     6.481
  29.740         34.17	     6.403
  29.760         42.50	     7.141
  29.780         24.17	     5.385
  29.800         32.50	     6.245
  29.820         31.67	     6.164
  29.840         37.50	     6.708
  29.860         40.83	     7.000
  29.880         37.50	     6.708
  29.900         40.83	     7.000
  29.920         41.67	     7.071
  29.940         36.67	     6.633
  29.960         41.67	     7.071
  29.980         47.50	     7.550
  30.000         37.50	     6.708
  30.020         45.00	     7.348
  30.040         55.00	     8.124
  30.060         52.50	     7.937
  30.080         59.17	     8.426
  30.100         68.33	     9.055
  30.120         71.67	     9.274
  30.140         73.33	     9.381
  30.160         89.17	    10.344
  30.180         78.33	     9.695
  30.200        124.17	    12.207
  30.220        112.50	    11.619
  30.240        122.50	    12.124
  30.260        133.33	    12.649
  30.280        132.50	    12.610
  30.300        135.83	    12.767
  30.320        136.67	    12.806
  30.340        125.83	    12.288
  30.360        118.33	    11.916
  30.380        103.33	    11.136
  30.400        100.83	    11.000
  30.420        100.83	    11.000
  30.440         86.67	    10.198
  30.460         86.67	    10.198
  30.480        106.67	    11.314
  30.500        105.00	    11.225
  30.520         95.00	    10.677
  30.540        103.33	    11.136
  30.560         90.00	    10.392
  30.580        106.67	    11.314
  30.600        120.83	    12.042
  30.620        102.50	    11.091
  30.640        108.33	    11.402
  30.660        103.33	    11.136
  30.680         95.83	    10.724
  30.700         93.33	    10.583
  30.720         88.33	    10.296
  30.740         91.67	    10.488
  30.760         80.83	     9.849
  30.780        104.17	    11.180
  30.800        113.33	    11.662
  30.820        114.17	    11.705
  30.840        120.83	    12.042
  30.860        129.17	    12.450
  30.880        106.67	    11.314
  30.900         84.17	    10.050
  30.920         97.50	    10.817
  30.940         70.83	     9.220
  30.960         70.00	     9.165
  30.980         62.50	     8.660
  31.000         55.00	     8.124
  31.020         66.67	     8.944
  31.040         50.00	     7.746
  31.060         55.83	     8.185
  31.080         45.83	     7.416
  31.100         62.50	     8.660
  31.120         52.50	     7.937
  31.140         57.50	     8.307
  31.160         71.67	     9.274
  31.180         57.50	     8.307
  31.200         65.83	     8.888
  31.220         60.83	     8.544
  31.240         75.83	     9.539
  31.260         75.83	     9.539
  31.280         87.50	    10.247
  31.300         74.17	     9.434
  31.320         71.67	     9.274
  31.340         50.00	     7.746
  31.360         61.67	     8.602
  31.380         61.67	     8.602
  31.400         50.83	     7.810
  31.420         55.00	     8.124
  31.440         75.00	     9.487
  31.460         70.83	     9.220
  31.480         67.50	     9.000
  31.500         70.83	     9.220
  31.520         81.67	     9.899
  31.540         94.17	    10.630
  31.560         90.00	    10.392
  31.580        105.83	    11.269
  31.600        118.33	    11.916
  31.620        111.67	    11.576
  31.640         91.67	    10.488
  31.660         92.50	    10.536
  31.680         76.67	     9.592
  31.700         80.83	     9.849
  31.720         92.50	    10.536
  31.740         73.33	     9.381
  31.760         83.33	    10.000
  31.780         96.67	    10.770
  31.800         72.50	     9.327
  31.820         75.83	     9.539
  31.840         71.67	     9.274
  31.860         62.50	     8.660
  31.880         72.50	     9.327
  31.900         69.17	     9.110
  31.920         71.67	     9.274
  31.940         69.17	     9.110
  31.960         69.17	     9.110
  31.980         78.33	     9.695
  32.000         54.17	     8.062
  32.020         61.67	     8.602
  32.040         46.67	     7.483
  32.060         56.67	     8.246
  32.080         42.50	     7.141
  32.100         41.67	     7.071
  32.120         53.33	     8.000
  32.140         50.00	     7.746
  32.160         40.83	     7.000
  32.180         42.50	     7.141
  32.200         45.00	     7.348
  32.220         45.83	     7.416
  32.240         39.17	     6.856
  32.260         32.50	     6.245
  32.280         55.00	     8.124
  32.300         65.00	     8.832
  32.320         95.00	    10.677
  32.340         95.83	    10.724
  32.360         73.33	     9.381
  32.380         81.67	     9.899
  32.400         86.67	    10.198
  32.420         77.50	     9.644
  32.440         64.17	     8.775
  32.460         72.50	     9.327
  32.480         79.17	     9.747
  32.500         96.67	    10.770
  32.520         73.33	     9.381
  32.540         74.17	     9.434
  32.560         70.83	     9.220
  32.580         70.00	     9.165
  32.600         71.67	     9.274
  32.620         64.17	     8.775
  32.640         61.67	     8.602
  32.660         50.00	     7.746
  32.680         55.83	     8.185
  32.700         38.33	     6.782
  32.720         39.17	     6.856
  32.740         49.17	     7.681
  32.760         40.00	     6.928
  32.780         34.17	     6.403
  32.800         26.67	     5.657
  32.820         29.17	     5.916
  32.840         30.00	     6.000
  32.860         27.50	     5.745
  32.880         26.67	     5.657
  32.900         32.50	     6.245
  32.920         28.33	     5.831
  32.940         30.00	     6.000
  32.960         28.33	     5.831
  32.980         27.50	     5.745
  33.000         28.33	     5.831
  33.020         34.17	     6.403
  33.040         35.83	     6.557
  33.060         21.67	     5.099
  33.080         27.50	     5.745
  33.100         21.67	     5.099
  33.120         37.50	     6.708
  33.140         37.50	     6.708
  33.160         32.50	     6.245
  33.180         54.17	     8.062
  33.200         35.00	     6.481
  33.220         42.50	     7.141
  33.240         24.17	     5.385
  33.260         42.50	     7.141
  33.280         43.33	     7.211
  33.300         39.17	     6.856
  33.320         39.17	     6.856
  33.340         46.67	     7.483
  33.360         45.00	     7.348
  33.380         57.50	     8.307
  33.400         66.67	     8.944
  33.420         70.00	     9.165
  33.440         70.83	     9.220
  33.460         86.67	    10.198
  33.480         75.83	     9.539
  33.500         67.50	     9.000
  33.520         55.00	     8.124
  33.540         60.00	     8.485
  33.560         46.67	     7.483
  33.580         49.17	     7.681
  33.600         41.67	     7.071
  33.620         37.50	     6.708
  33.640         30.00	     6.000
  33.660         35.00	     6.481
  33.680         35.00	     6.481
  33.700         45.00	     7.348
  33.720         35.00	     6.481
  33.740         35.00	     6.481
  33.760         40.83	     7.000
  33.780         44.17	     7.280
  33.800         38.33	     6.782
  33.820         45.83	     7.416
  33.840         42.50	     7.141
  33.860         42.50	     7.141
  33.880         41.67	     7.071
  33.900         42.50	     7.141
  33.920         42.50	     7.141
  33.940         47.50	     7.550
  33.960         33.33	     6.325
  33.980         30.00	     6.000
  34.000         36.67	     6.633
  34.020         41.67	     7.071
  34.040         35.83	     6.557
  34.060         36.67	     6.633
  34.080         35.00	     6.481
  34.100         36.67	     6.633
  34.120         25.83	     5.568
  34.140         27.50	     5.745
  34.160         41.67	     7.071
  34.180         43.33	     7.211
  34.200         43.33	     7.211
  34.220         49.17	     7.681
  34.240         60.83	     8.544
  34.260         65.83	     8.888
  34.280         65.83	     8.888
  34.300         65.83	     8.888
  34.320         59.17	     8.426
  34.340         66.67	     8.944
  34.360         61.67	     8.602
  34.380         56.67	     8.246
  34.400         63.33	     8.718
  34.420         52.50	     7.937
  34.440         61.67	     8.602
  34.460         53.33	     8.000
  34.480         60.83	     8.544
  34.500         46.67	     7.483
  34.520         54.17	     8.062
  34.540         49.17	     7.681
  34.560         45.83	     7.416
  34.580         44.17	     7.280
  34.600         51.67	     7.874
  34.620         46.67	     7.483
  34.640         53.33	     8.000
  34.660         39.17	     6.856
  34.680         57.50	     8.307
  34.700         49.17	     7.681
  34.720         49.17	     7.681
  34.740         60.00	     8.485
  34.760         65.00	     8.832
  34.780         64.17	     8.775
  34.800         80.83	     9.849
  34.820         83.33	    10.000
  34.840         79.17	     9.747
  34.860         78.33	     9.695
  34.880        100.00	    10.954
  34.900        100.83	    11.000
  34.920         95.00	    10.677
  34.940         97.50	    10.817
  34.960        114.17	    11.705
  34.980         94.17	    10.630
  35.000        107.50	    11.358
  35.020         90.83	    10.440
  35.040         84.17	    10.050
  35.060         70.83	     9.220
  35.080         84.17	    10.050
  35.100         81.67	     9.899
  35.120         64.17	     8.775
  35.140         70.00	     9.165
  35.160         97.50	    10.817
  35.180         80.83	     9.849
  35.200         89.17	    10.344
  35.220         79.17	     9.747
  35.240         90.83	    10.440
  35.260        105.00	    11.225
  35.280        123.33	    12.166
  35.300        100.83	    11.000
  35.320         86.67	    10.198
  35.340        115.00	    11.747
  35.360         99.17	    10.909
  35.380        106.67	    11.314
  35.400        110.00	    11.489
  35.420        115.83	    11.790
  35.440        131.67	    12.570
  35.460        113.33	    11.662
  35.480        101.67	    11.045
  35.500        104.17	    11.180
  35.520         91.67	    10.488
  35.540         75.00	     9.487
  35.560         84.17	    10.050
  35.580         71.67	     9.274
  35.600         74.17	     9.434
  35.620         86.67	    10.198
  35.640         67.50	     9.000
  35.660         66.67	     8.944
  35.680         60.00	     8.485
  35.700         83.33	    10.000
  35.720         66.67	     8.944
  35.740         85.00	    10.100
  35.760         79.17	     9.747
  35.780         81.67	     9.899
  35.800         90.00	    10.392
  35.820         87.50	    10.247
  35.840         95.83	    10.724
  35.860        109.17	    11.446
  35.880        119.17	    11.958
  35.900        111.67	    11.576
  35.920        125.00	    12.247
  35.940        108.33	    11.402
  35.960        124.17	    12.207
  35.980        138.33	    12.884
  36.000        118.33	    11.916
  36.020        134.17	    12.689
  36.040        115.83	    11.790
  36.060         98.33	    10.863
  36.080         87.50	    10.247
  36.100         83.33	    10.000
  36.120         75.83	     9.539
  36.140         77.50	     9.644
  36.160         73.33	     9.381
  36.180         68.33	     9.055
  36.200         70.83	     9.220
  36.220         49.17	     7.681
  36.240         65.00	     8.832
  36.260         71.67	     9.274
  36.280         60.83	     8.544
  36.300         46.67	     7.483
  36.320         50.83	     7.810
  36.340         41.67	     7.071
  36.360         51.67	     7.874
  36.380         54.17	     8.062
  36.400         70.83	     9.220
  36.420         55.83	     8.185
  36.440         55.83	     8.185
  36.460         60.83	     8.544
  36.480         54.17	     8.062
  36.500         70.00	     9.165
  36.520         57.50	     8.307
  36.540         50.83	     7.810
  36.560         57.50	     8.307
  36.580         53.33	     8.000
  36.600         37.50	     6.708
  36.620         47.50	     7.550
  36.640         49.17	     7.681
  36.660         38.33	     6.782
  36.680         35.00	     6.481
  36.700         39.17	     6.856
  36.720         49.17	     7.681
  36.740         46.67	     7.483
  36.760         57.50	     8.307
  36.780         45.00	     7.348
  36.800         55.83	     8.185
  36.820         67.50	     9.000
  36.840         73.33	     9.381
  36.860        105.00	    11.225
  36.880        118.33	    11.916
  36.900        125.83	    12.288
  36.920        116.67	    11.832
  36.940        127.50	    12.369
  36.960        127.50	    12.369
  36.980        140.83	    13.000
  37.000        137.50	    12.845
  37.020        121.67	    12.083
  37.040        112.50	    11.619
  37.060         96.67	    10.770
  37.080        108.33	    11.402
  37.100         83.33	    10.000
  37.120         73.33	     9.381
  37.140         82.50	     9.950
  37.160         90.83	    10.440
  37.180         70.00	     9.165
  37.200         68.33	     9.055
  37.220         63.33	     8.718
  37.240         54.17	     8.062
  37.260         52.50	     7.937
  37.280         56.67	     8.246
  37.300         64.17	     8.775
  37.320         51.67	     7.874
  37.340         53.33	     8.000
  37.360         45.00	     7.348
  37.380         40.83	     7.000
  37.400         45.00	     7.348
  37.420         54.17	     8.062
  37.440         49.17	     7.681
  37.460         40.83	     7.000
  37.480         51.67	     7.874
  37.500         55.83	     8.185
  37.520         45.00	     7.348
  37.540         58.33	     8.367
  37.560         54.17	     8.062
  37.580         57.50	     8.307
  37.600         64.17	     8.775
  37.620         65.00	     8.832
  37.640         70.00	     9.165
  37.660         64.17	     8.775
  37.680         67.50	     9.000
  37.700         55.83	     8.185
  37.720         62.50	     8.660
  37.740         65.00	     8.832
  37.760         67.50	     9.000
  37.780         70.00	     9.165
  37.800         71.67	     9.274
  37.820         75.83	     9.539
  37.840         61.67	     8.602
  37.860         89.17	    10.344
  37.880         80.00	     9.798
  37.900         80.00	     9.798
  37.920         78.33	     9.695
  37.940         68.33	     9.055
  37.960         75.83	     9.539
  37.980         72.50	     9.327
  38.000         95.00	    10.677
  38.020         76.67	     9.592
  38.040         55.83	     8.185
  38.060         81.67	     9.899
  38.080         84.17	    10.050
  38.100         84.17	    10.050
  38.120         84.17	    10.050
  38.140         89.17	    10.344
  38.160         49.17	     7.681
  38.180         69.17	     9.110
  38.200         65.00	     8.832
  38.220         73.33	     9.381
  38.240         55.83	     8.185
  38.260         51.67	     7.874
  38.280         43.33	     7.211
  38.300         35.83	     6.557
  38.320         40.83	     7.000
  38.340         39.17	     6.856
  38.360         40.00	     6.928
  38.380         33.33	     6.325
  38.400         36.67	     6.633
  38.420         30.00	     6.000
  38.440         20.83	     5.000
  38.460         34.17	     6.403
  38.480         25.00	     5.477
  38.500         26.67	     5.657
  38.520         23.33	     5.292
  38.540         25.83	     5.568
  38.560         30.83	     6.083
  38.580         25.00	     5.477
  38.600         28.33	     5.831
  38.620         24.17	     5.385
  38.640         29.17	     5.916
  38.660         35.00	     6.481
  38.680         24.17	     5.385
  38.700         25.00	     5.477
  38.720         33.33	     6.325
  38.740         19.17	     4.796
  38.760         26.67	     5.657
  38.780         39.17	     6.856
  38.800         29.17	     5.916
  38.820         40.00	     6.928
  38.840         37.50	     6.708
  38.860         43.33	     7.211
  38.880         37.50	     6.708
  38.900         44.17	     7.280
  38.920         36.67	     6.633
  38.940         34.17	     6.403
  38.960         50.00	     7.746
  38.980         46.67	     7.483
  39.000         52.50	     7.937
  39.020         50.83	     7.810
  39.040         50.00	     7.746
  39.060         40.00	     6.928
  39.080         37.50	     6.708
  39.100         42.50	     7.141
  39.120         40.83	     7.000
  39.140         39.17	     6.856
  39.160         45.83	     7.416
  39.180         40.83	     7.000
  39.200         39.17	     6.856
  39.220         47.50	     7.550
  39.240         47.50	     7.550
  39.260         45.83	     7.416
  39.280         53.33	     8.000
  39.300         45.00	     7.348
  39.320         50.00	     7.746
  39.340         35.00	     6.481
  39.360         49.17	     7.681
  39.380         44.17	     7.280
  39.400         41.67	     7.071
  39.420         49.17	     7.681
  39.440         45.00	     7.348
  39.460         44.17	     7.280
  39.480         35.00	     6.481
  39.500         35.00	     6.481
  39.520         30.83	     6.083
  39.540         35.83	     6.557
  39.560         30.00	     6.000
  39.580         36.67	     6.633
  39.600         46.67	     7.483
  39.620         35.00	     6.481
  39.640         30.83	     6.083
  39.660         46.67	     7.483
  39.680         25.00	     5.477
  39.700         40.00	     6.928
  39.720         36.67	     6.633
  39.740         39.17	     6.856
  39.760         65.00	     8.832
  39.780         57.50	     8.307
  39.800         88.33	    10.296
  39.820         80.83	     9.849
  39.840         99.17	    10.909
  39.860         95.83	    10.724
  39.880         85.00	    10.100
  39.900         90.00	    10.392
  39.920         90.83	    10.440
  39.940         77.50	     9.644
  39.960         71.67	     9.274
  39.980         49.17	     7.681
  40.000         73.33	     9.381
  40.020         60.83	     8.544
  40.040         55.00	     8.124
  40.060         61.67	     8.602
  40.080         60.83	     8.544
  40.100         47.50	     7.550
  40.120         41.67	     7.071
  40.140         40.00	     6.928
  40.160         59.17	     8.426
  40.180         52.50	     7.937
  40.200         43.33	     7.211
  40.220         40.00	     6.928
  40.240         39.17	     6.856
  40.260         39.17	     6.856
  40.280         50.83	     7.810
  40.300         49.17	     7.681
  40.320         54.17	     8.062
  40.340         36.67	     6.633
  40.360         34.17	     6.403
  40.380         35.00	     6.481
  40.400         33.33	     6.325
  40.420         51.67	     7.874
  40.440         37.50	     6.708
  40.460         45.83	     7.416
  40.480         42.50	     7.141
  40.500         39.17	     6.856
  40.520         32.50	     6.245
  40.540         38.33	     6.782
  40.560         48.33	     7.616
  40.580         42.50	     7.141
  40.600         47.50	     7.550
  40.620         59.17	     8.426
  40.640         69.17	     9.110
  40.660         59.17	     8.426
  40.680         72.50	     9.327
  40.700         52.50	     7.937
  40.720         66.67	     8.944
  40.740         69.17	     9.110
  40.760         55.00	     8.124
  40.780         46.67	     7.483
  40.800         54.17	     8.062
  40.820         40.83	     7.000
  40.840         36.67	     6.633
  40.860         37.50	     6.708
  40.880         45.00	     7.348
  40.900         40.83	     7.000
  40.920         34.17	     6.403
  40.940         33.33	     6.325
  40.960         44.17	     7.280
  40.980         33.33	     6.325
  41.000         41.67	     7.071
  41.020         34.17	     6.403
  41.040         36.67	     6.633
  41.060         33.33	     6.325
  41.080         38.33	     6.782
  41.100         31.67	     6.164
  41.120         42.50	     7.141
  41.140         37.50	     6.708
  41.160         29.17	     5.916
  41.180         33.33	     6.325
  41.200         44.17	     7.280
  41.220         30.83	     6.083
  41.240         42.50	     7.141
  41.260         38.33	     6.782
  41.280         45.83	     7.416
  41.300         34.17	     6.403
  41.320         46.67	     7.483
  41.340         32.50	     6.245
  41.360         25.00	     5.477
  41.380         31.67	     6.164
  41.400         36.67	     6.633
  41.420         38.33	     6.782
  41.440         27.50	     5.745
  41.460         33.33	     6.325
  41.480         25.00	     5.477
  41.500         35.00	     6.481
  41.520         32.50	     6.245
  41.540         51.67	     7.874
  41.560         40.83	     7.000
  41.580         46.67	     7.483
  41.600         48.33	     7.616
  41.620         32.50	     6.245
  41.640         44.17	     7.280
  41.660         43.33	     7.211
  41.680         50.83	     7.810
  41.700         42.50	     7.141
  41.720         42.50	     7.141
  41.740         46.67	     7.483
  41.760         44.17	     7.280
  41.780         50.00	     7.746
  41.800         40.83	     7.000
  41.820         35.83	     6.557
  41.840         37.50	     6.708
  41.860         40.00	     6.928
  41.880         46.67	     7.483
  41.900         45.00	     7.348
  41.920         35.83	     6.557
  41.940         36.67	     6.633
  41.960         53.33	     8.000
  41.980         55.00	     8.124
  42.000         50.00	     7.746
  42.020         61.67	     8.602
  42.040         60.83	     8.544
  42.060         73.33	     9.381
  42.080         71.67	     9.274
  42.100         70.83	     9.220
  42.120        100.00	    10.954
  42.140         82.50	     9.950
  42.160         95.83	    10.724
  42.180         62.50	     8.660
  42.200         77.50	     9.644
  42.220         82.50	     9.950
  42.240         74.17	     9.434
  42.260         70.00	     9.165
  42.280         65.00	     8.832
  42.300         60.83	     8.544
  42.320         66.67	     8.944
  42.340         70.00	     9.165
  42.360         74.17	     9.434
  42.380         71.67	     9.274
  42.400         53.33	     8.000
  42.420         55.00	     8.124
  42.440         61.67	     8.602
  42.460         49.17	     7.681
  42.480         64.17	     8.775
  42.500         62.50	     8.660
  42.520         57.50	     8.307
  42.540         50.00	     7.746
  42.560         54.17	     8.062
  42.580         50.83	     7.810
  42.600         39.17	     6.856
  42.620         52.50	     7.937
  42.640         45.00	     7.348
  42.660         59.17	     8.426
  42.680         69.17	     9.110
  42.700         70.83	     9.220
  42.720         90.00	    10.392
  42.740         86.67	    10.198
  42.760        110.00	    11.489
  42.780        144.17	    13.153
  42.800        180.83	    14.731
  42.820        156.67	    13.711
  42.840        172.50	    14.387
  42.860        130.00	    12.490
  42.880        160.83	    13.892
  42.900        139.17	    12.923
  42.920        130.83	    12.530
  42.940        118.33	    11.916
  42.960         90.00	    10.392
  42.980         90.00	    10.392
  43.000         94.17	    10.630
  43.020         67.50	     9.000
  43.040         45.00	     7.348
  43.060         48.33	     7.616
  43.080         46.67	     7.483
  43.100         50.00	     7.746
  43.120         58.33	     8.367
  43.140         42.50	     7.141
  43.160         40.00	     6.928
  43.180         56.67	     8.246
  43.200         48.33	     7.616
  43.220         49.17	     7.681
  43.240         51.67	     7.874
  43.260         44.17	     7.280
  43.280         34.17	     6.403
  43.300         34.17	     6.403
  43.320         41.67	     7.071
  43.340         34.17	     6.403
  43.360         46.67	     7.483
  43.380         35.83	     6.557
  43.400         40.00	     6.928
  43.420         43.33	     7.211
  43.440         28.33	     5.831
  43.460         35.83	     6.557
  43.480         27.50	     5.745
  43.500         40.83	     7.000
  43.520         34.17	     6.403
  43.540         38.33	     6.782
  43.560         44.17	     7.280
  43.580         33.33	     6.325
  43.600         29.17	     5.916
  43.620         25.00	     5.477
  43.640         31.67	     6.164
  43.660         29.17	     5.916
  43.680         25.00	     5.477
  43.700         26.67	     5.657
  43.720         30.83	     6.083
  43.740         32.50	     6.245
  43.760         33.33	     6.325
  43.780         40.83	     7.000
  43.800         38.33	     6.782
  43.820         37.50	     6.708
  43.840         45.00	     7.348
  43.860         45.83	     7.416
  43.880         45.83	     7.416
  43.900         60.00	     8.485
  43.920         65.83	     8.888
  43.940         58.33	     8.367
  43.960         52.50	     7.937
  43.980         45.00	     7.348
  44.000         50.00	     7.746
  44.020         41.67	     7.071
  44.040         42.50	     7.141
  44.060         39.17	     6.856
  44.080         50.00	     7.746
  44.100         45.83	     7.416
  44.120         48.33	     7.616
  44.140         45.00	     7.348
  44.160         37.50	     6.708
  44.180         30.00	     6.000
  44.200         45.83	     7.416
  44.220         36.67	     6.633
  44.240         26.67	     5.657
  44.260         39.17	     6.856
  44.280         31.67	     6.164
  44.300         48.33	     7.616
  44.320         35.00	     6.481
  44.340         35.00	     6.481
  44.360         30.00	     6.000
  44.380         40.83	     7.000
  44.400         36.67	     6.633
  44.420         37.50	     6.708
  44.440         29.17	     5.916
  44.460         30.83	     6.083
  44.480         40.00	     6.928
  44.500         29.17	     5.916
  44.520         39.17	     6.856
  44.540         30.00	     6.000
  44.560         41.67	     7.071
  44.580         30.83	     6.083
  44.600         38.33	     6.782
  44.620         38.33	     6.782
  44.640         35.83	     6.557
  44.660         30.83	     6.083
  44.680         43.33	     7.211
  44.700         44.17	     7.280
  44.720         30.00	     6.000
  44.740         20.00	     4.899
  44.760         31.67	     6.164
  44.780         35.00	     6.481
  44.800         35.83	     6.557
  44.820         36.67	     6.633
  44.840         27.50	     5.745
  44.860         23.33	     5.292
  44.880         36.67	     6.633
  44.900         33.33	     6.325
  44.920         41.67	     7.071
  44.940         38.33	     6.782
  44.960         31.67	     6.164
  44.980         31.67	     6.164
  45.000         26.67	     5.657
  45.020         35.83	     6.557
  45.040         33.33	     6.325
  45.060         48.33	     7.616
  45.080         35.00	     6.481
  45.100         45.00	     7.348
  45.120         35.00	     6.481
  45.140         47.50	     7.550
  45.160         43.33	     7.211
  45.180         40.83	     7.000
  45.200         42.50	     7.141
  45.220         56.67	     8.246
  45.240         49.17	     7.681
  45.260         48.33	     7.616
  45.280         46.67	     7.483
  45.300         60.00	     8.485
  45.320         55.00	     8.124
  45.340         59.17	     8.426
  45.360         58.33	     8.367
  45.380         63.33	     8.718
  45.400         74.17	     9.434
  45.420         64.17	     8.775
  45.440         63.33	     8.718
  45.460         80.00	     9.798
  45.480         62.50	     8.660
  45.500         62.50	     8.660
  45.520         62.50	     8.660
  45.540         66.67	     8.944
  45.560         60.00	     8.485
  45.580         65.83	     8.888
  45.600         61.67	     8.602
  45.620         70.00	     9.165
  45.640         55.00	     8.124
  45.660         73.33	     9.381
  45.680         77.50	     9.644
  45.700         81.67	     9.899
  45.720         87.50	    10.247
  45.740         67.50	     9.000
  45.760         95.00	    10.677
  45.780        106.67	    11.314
  45.800        100.83	    11.000
  45.820        107.50	    11.358
  45.840        115.00	    11.747
  45.860        124.17	    12.207
  45.880        126.67	    12.329
  45.900        130.00	    12.490
  45.920        150.83	    13.454
  45.940        141.67	    13.038
  45.960        138.33	    12.884
  45.980        120.00	    12.000
  46.000        128.33	    12.410
  46.020        140.00	    12.961
  46.040        114.17	    11.705
  46.060         92.50	    10.536
  46.080        101.67	    11.045
  46.100        100.83	    11.000
  46.120         86.67	    10.198
  46.140         80.83	     9.849
  46.160         76.67	     9.592
  46.180         69.17	     9.110
  46.200         71.67	     9.274
  46.220         67.50	     9.000
  46.240         73.33	     9.381
  46.260         54.17	     8.062
  46.280         55.00	     8.124
  46.300         66.67	     8.944
  46.320         68.33	     9.055
  46.340         56.67	     8.246
  46.360         65.00	     8.832
  46.380         73.33	     9.381
  46.400         67.50	     9.000
  46.420         62.50	     8.660
  46.440         40.83	     7.000
  46.460         45.83	     7.416
  46.480         60.83	     8.544
  46.500         52.50	     7.937
  46.520         55.83	     8.185
  46.540         47.50	     7.550
  46.560         53.33	     8.000
  46.580         43.33	     7.211
  46.600         42.50	     7.141
  46.620         38.33	     6.782
  46.640         35.83	     6.557
  46.660         36.67	     6.633
  46.680         31.67	     6.164
  46.700         39.17	     6.856
  46.720         25.83	     5.568
  46.740         35.83	     6.557
  46.760         26.67	     5.657
  46.780         30.00	     6.000
  46.800         23.33	     5.292
  46.820         29.17	     5.916
  46.840         36.67	     6.633
  46.860         31.67	     6.164
  46.880         33.33	     6.325
  46.900         31.67	     6.164
  46.920         40.00	     6.928
  46.940         28.33	     5.831
  46.960         33.33	     6.325
  46.980         32.50	     6.245
  47.000         32.50	     6.245
  47.020         35.83	     6.557
  47.040         33.33	     6.325
  47.060         31.67	     6.164
  47.080         25.83	     5.568
  47.100         30.83	     6.083
  47.120         29.17	     5.916
  47.140         23.33	     5.292
  47.160         29.17	     5.916
  47.180         26.67	     5.657
  47.200         20.00	     4.899
  47.220         37.50	     6.708
  47.240         21.67	     5.099
  47.260         32.50	     6.245
  47.280         35.83	     6.557
  47.300         35.83	     6.557
  47.320         39.17	     6.856
  47.340         35.00	     6.481
  47.360         26.67	     5.657
  47.380         26.67	     5.657
  47.400         39.17	     6.856
  47.420         43.33	     7.211
  47.440         38.33	     6.782
  47.460         46.67	     7.483
  47.480         42.50	     7.141
  47.500         34.17	     6.403
  47.520         40.00	     6.928
  47.540         35.83	     6.557
  47.560         43.33	     7.211
  47.580         44.17	     7.280
  47.600         34.17	     6.403
  47.620         34.17	     6.403
  47.640         31.67	     6.164
  47.660         27.50	     5.745
  47.680         28.33	     5.831
  47.700         25.00	     5.477
  47.720         25.00	     5.477
  47.740         35.83	     6.557
  47.760         22.50	     5.196
  47.780         30.00	     6.000
  47.800         27.50	     5.745
  47.820         30.00	     6.000
  47.840         32.50	     6.245
  47.860         27.50	     5.745
  47.880         32.50	     6.245
  47.900         30.00	     6.000
  47.920         27.50	     5.745
  47.940         25.00	     5.477
  47.960         24.17	     5.385
  47.980         25.00	     5.477
  48.000         22.50	     5.196
  48.020         29.17	     5.916
  48.040         33.33	     6.325
  48.060         30.83	     6.083
  48.080         29.17	     5.916
  48.100         19.17	     4.796
  48.120         25.83	     5.568
  48.140         15.83	     4.359
  48.160         32.50	     6.245
  48.180         26.67	     5.657
  48.200         25.83	     5.568
  48.220         34.17	     6.403
  48.240         39.17	     6.856
  48.260         30.83	     6.083
  48.280         35.83	     6.557
  48.300         37.50	     6.708
  48.320         36.67	     6.633
  48.340         40.83	     7.000
  48.360         48.33	     7.616
  48.380         46.67	     7.483
  48.400         45.00	     7.348
  48.420         53.33	     8.000
  48.440         46.67	     7.483
  48.460         59.17	     8.426
  48.480         57.50	     8.307
  48.500         65.83	     8.888
  48.520         62.50	     8.660
  48.540         53.33	     8.000
  48.560         57.50	     8.307
  48.580         56.67	     8.246
  48.600         70.83	     9.220
  48.620         51.67	     7.874
  48.640         52.50	     7.937
  48.660         55.83	     8.185
  48.680         47.50	     7.550
  48.700         45.83	     7.416
  48.720         43.33	     7.211
  48.740         52.50	     7.937
  48.760         32.50	     6.245
  48.780         40.83	     7.000
  48.800         38.33	     6.782
  48.820         46.67	     7.483
  48.840         37.50	     6.708
  48.860         37.50	     6.708
  48.880         46.67	     7.483
  48.900         30.00	     6.000
  48.920         34.17	     6.403
  48.940         30.00	     6.000
  48.960         30.83	     6.083
  48.980         38.33	     6.782
  49.000         34.17	     6.403
  49.020         43.33	     7.211
  49.040         36.67	     6.633
  49.060         43.33	     7.211
  49.080         41.67	     7.071
  49.100         49.17	     7.681
  49.120         47.50	     7.550
  49.140         31.67	     6.164
  49.160         46.67	     7.483
  49.180         45.83	     7.416
  49.200         32.50	     6.245
  49.220         35.00	     6.481
  49.240         34.17	     6.403
  49.260         35.00	     6.481
  49.280         35.00	     6.481
  49.300         35.83	     6.557
  49.320         22.50	     5.196
  49.340         28.33	     5.831
  49.360         40.00	     6.928
  49.380         41.67	     7.071
  49.400         24.17	     5.385
  49.420         22.50	     5.196
  49.440         37.50	     6.708
  49.460         28.33	     5.831
  49.480         26.67	     5.657
  49.500         32.50	     6.245
  49.520         30.83	     6.083
  49.540         34.17	     6.403
  49.560         45.00	     7.348
  49.580         43.33	     7.211
  49.600         42.50	     7.141
  49.620         44.17	     7.280
  49.640         35.83	     6.557
  49.660         41.67	     7.071
  49.680         45.00	     7.348
  49.700         31.67	     6.164
  49.720         35.00	     6.481
  49.740         40.00	     6.928
  49.760         50.83	     7.810
  49.780         48.33	     7.616
  49.800         52.50	     7.937
  49.820         40.00	     6.928
  49.840         39.17	     6.856
  49.860         39.17	     6.856
  49.880         43.33	     7.211
  49.900         40.00	     6.928
  49.920         34.17	     6.403
  49.940         38.33	     6.782
  49.960         53.33	     8.000
  49.980         45.00	     7.348
  50.000         41.67	     7.071
  50.020         40.83	     7.000
  50.040         27.50	     5.745
  50.060         42.50	     7.141
  50.080         49.17	     7.681
  50.100         51.67	     7.874
  50.120         55.00	     8.124
  50.140         65.83	     8.888
  50.160         62.50	     8.660
  50.180         59.17	     8.426
  50.200         73.33	     9.381
  50.220         57.50	     8.307
  50.240         68.33	     9.055
  50.260         65.00	     8.832
  50.280         61.67	     8.602
  50.300         76.67	     9.592
  50.320         73.33	     9.381
  50.340         75.00	     9.487
  50.360         95.00	    10.677
  50.380         81.67	     9.899
  50.400         88.33	    10.296
  50.420        100.00	    10.954
  50.440        132.50	    12.610
  50.460        153.33	    13.565
  50.480        150.00	    13.416
  50.500        150.83	    13.454
  50.520        148.33	    13.342
  50.540        136.67	    12.806
  50.560        142.50	    13.077
  50.580        131.67	    12.570
  50.600        121.67	    12.083
  50.620         90.83	    10.440
  50.640        106.67	    11.314
  50.660         87.50	    10.247
  50.680         84.17	    10.050
  50.700         61.67	     8.602
  50.720         55.00	     8.124
  50.740         51.67	     7.874
  50.760         45.00	     7.348
  50.780         48.33	     7.616
  50.800         47.50	     7.550
  50.820         45.00	     7.348
  50.840         41.67	     7.071
  50.860         47.50	     7.550
  50.880         39.17	     6.856
  50.900         58.33	     8.367
  50.920         50.83	     7.810
  50.940         58.33	     8.367
  50.960         69.17	     9.110
  50.980         57.50	     8.307
  51.000         54.17	     8.062
  51.020         59.17	     8.426
  51.040         51.67	     7.874
  51.060         52.50	     7.937
  51.080         50.83	     7.810
  51.100         60.00	     8.485
  51.120         52.50	     7.937
  51.140         51.67	     7.874
  51.160         52.50	     7.937
  51.180         35.83	     6.557
  51.200         35.83	     6.557
  51.220         43.33	     7.211
  51.240         28.33	     5.831
  51.260         34.17	     6.403
  51.280         35.83	     6.557
  51.300         20.83	     5.000
  51.320         25.00	     5.477
  51.340         40.83	     7.000
  51.360         33.33	     6.325
  51.380         31.67	     6.164
  51.400         38.33	     6.782
  51.420         45.83	     7.416
  51.440         37.50	     6.708
  51.460         43.33	     7.211
  51.480         51.67	     7.874
  51.500         74.17	     9.434
  51.520         73.33	     9.381
  51.540         71.67	     9.274
  51.560         80.00	     9.798
  51.580         63.33	     8.718
  51.600         62.50	     8.660
  51.620         58.33	     8.367
  51.640         70.83	     9.220
  51.660         63.33	     8.718
  51.680         71.67	     9.274
  51.700         51.67	     7.874
  51.720         53.33	     8.000
  51.740         50.00	     7.746
  51.760         50.00	     7.746
  51.780         50.00	     7.746
  51.800         40.83	     7.000
  51.820         42.50	     7.141
  51.840         39.17	     6.856
  51.860         39.17	     6.856
  51.880         45.00	     7.348
  51.900         30.83	     6.083
  51.920         31.67	     6.164
  51.940         27.50	     5.745
  51.960         25.00	     5.477
  51.980         29.17	     5.916
  52.000         29.17	     5.916
  52.020         25.00	     5.477
  52.040         24.17	     5.385
  52.060         36.67	     6.633
  52.080         20.83	     5.000
  52.100         25.00	     5.477
  52.120         28.33	     5.831
  52.140         25.83	     5.568
  52.160         23.33	     5.292
  52.180         21.67	     5.099
  52.200         35.83	     6.557
  52.220         29.17	     5.916
  52.240         31.67	     6.164
  52.260         35.83	     6.557
  52.280         35.00	     6.481
  52.300         23.33	     5.292
  52.320         28.33	     5.831
  52.340         38.33	     6.782
  52.360         30.00	     6.000
  52.380         35.83	     6.557
  52.400         36.67	     6.633
  52.420         34.17	     6.403
  52.440         45.83	     7.416
  52.460         31.67	     6.164
  52.480         42.50	     7.141
  52.500         51.67	     7.874
  52.520         60.00	     8.485
  52.540         57.50	     8.307
  52.560         46.67	     7.483
  52.580         43.33	     7.211
  52.600         41.67	     7.071
  52.620         45.83	     7.416
  52.640         58.33	     8.367
  52.660         50.83	     7.810
  52.680         55.00	     8.124
  52.700         39.17	     6.856
  52.720         39.17	     6.856
  52.740         55.00	     8.124
  52.760         33.33	     6.325
  52.780         46.67	     7.483
  52.800         37.50	     6.708
  52.820         49.17	     7.681
  52.840         50.00	     7.746
  52.860         43.33	     7.211
  52.880         44.17	     7.280
  52.900         44.17	     7.280
  52.920         53.33	     8.000
  52.940         39.17	     6.856
  52.960         49.17	     7.681
  52.980         41.67	     7.071
  53.000         50.00	     7.746
  53.020         48.33	     7.616
  53.040         41.67	     7.071
  53.060         49.17	     7.681
  53.080         40.00	     6.928
  53.100         43.33	     7.211
  53.120         44.17	     7.280
  53.140         37.50	     6.708
  53.160         40.83	     7.000
  53.180         49.17	     7.681
  53.200         27.50	     5.745
  53.220         44.17	     7.280
  53.240         48.33	     7.616
  53.260         35.83	     6.557
  53.280         46.67	     7.483
  53.300         35.83	     6.557
  53.320         44.17	     7.280
  53.340         45.83	     7.416
  53.360         46.67	     7.483
  53.380         40.83	     7.000
  53.400         48.33	     7.616
  53.420         51.67	     7.874
  53.440         55.83	     8.185
  53.460         67.50	     9.000
  53.480         57.50	     8.307
  53.500         60.83	     8.544
  53.520         63.33	     8.718
  53.540         65.00	     8.832
  53.560         60.00	     8.485
  53.580         47.50	     7.550
  53.600         66.67	     8.944
  53.620         64.17	     8.775
  53.640         60.83	     8.544
  53.660         57.50	     8.307
  53.680         62.50	     8.660
  53.700         43.33	     7.211
  53.720         44.17	     7.280
  53.740         35.00	     6.481
  53.760         40.83	     7.000
  53.780         35.83	     6.557
  53.800         45.00	     7.348
  53.820         41.67	     7.071
  53.840         45.83	     7.416
  53.860         43.33	     7.211
  53.880         35.00	     6.481
  53.900         31.67	     6.164
  53.920         35.83	     6.557
  53.940         40.00	     6.928
  53.960         30.00	     6.000
  53.980         40.00	     6.928
  54.000         35.00	     6.481
  54.020         46.67	     7.483
  54.040         36.67	     6.633
  54.060         42.50	     7.141
  54.080         35.83	     6.557
  54.100         39.17	     6.856
  54.120         34.17	     6.403
  54.140         26.67	     5.657
  54.160         33.33	     6.325
  54.180         28.33	     5.831
  54.200         35.00	     6.481
  54.220         47.50	     7.550
  54.240         35.00	     6.481
  54.260         44.17	     7.280
  54.280         38.33	     6.782
  54.300         35.83	     6.557
  54.320         34.17	     6.403
  54.340         31.67	     6.164
  54.360         29.17	     5.916
  54.380         39.17	     6.856
  54.400         25.83	     5.568
  54.420         46.67	     7.483
  54.440         41.67	     7.071
  54.460         37.50	     6.708
  54.480         23.33	     5.292
  54.500         37.50	     6.708
  54.520         35.83	     6.557
  54.540         32.50	     6.245
  54.560         29.17	     5.916
  54.580         30.83	     6.083
  54.600         35.83	     6.557
  54.620         39.17	     6.856
  54.640         38.33	     6.782
  54.660         41.67	     7.071
  54.680         37.50	     6.708
  54.700         40.83	     7.000
  54.720         33.33	     6.325
  54.740         50.83	     7.810
  54.760         38.33	     6.782
  54.780         49.17	     7.681
  54.800         40.00	     6.928
  54.820         40.83	     7.000
  54.840         50.00	     7.746
  54.860         38.33	     6.782
  54.880         50.83	     7.810
  54.900         55.00	     8.124
  54.920         39.17	     6.856
  54.940         46.67	     7.483
  54.960         49.17	     7.681
  54.980         52.50	     7.937
  55.000         35.83	     6.557
  55.020         57.50	     8.307
  55.040         51.67	     7.874
  55.060         36.67	     6.633
  55.080         33.33	     6.325
  55.100         47.50	     7.550
  55.120         46.67	     7.483
  55.140         50.83	     7.810
  55.160         70.00	     9.165
  55.180         67.50	     9.000
  55.200         67.50	     9.000
  55.220         74.17	     9.434
  55.240         87.50	    10.247
  55.260         83.33	    10.000
  55.280         64.17	     8.775
  55.300         69.17	     9.110
  55.320         67.50	     9.000
  55.340         61.67	     8.602
  55.360         76.67	     9.592
  55.380         85.00	    10.100
  55.400         61.67	     8.602
  55.420         63.33	     8.718
  55.440         44.17	     7.280
  55.460         49.17	     7.681
  55.480         60.83	     8.544
  55.500         45.00	     7.348
  55.520         70.83	     9.220
  55.540         48.33	     7.616
  55.560         62.50	     8.660
  55.580         52.50	     7.937
  55.600         60.83	     8.544
  55.620         65.00	     8.832
  55.640         55.83	     8.185
  55.660         66.67	     8.944
  55.680         70.00	     9.165
  55.700         52.50	     7.937
  55.720         53.33	     8.000
  55.740         68.33	     9.055
  55.760         60.83	     8.544
  55.780         62.50	     8.660
  55.800         50.83	     7.810
  55.820         46.67	     7.483
  55.840         50.83	     7.810
  55.860         54.17	     8.062
  55.880         50.00	     7.746
  55.900         51.67	     7.874
  55.920         48.33	     7.616
  55.940         49.17	     7.681
  55.960         52.50	     7.937
  55.980         37.50	     6.708
  56.000         57.50	     8.307
  56.020         63.33	     8.718
  56.040         52.50	     7.937
  56.060         74.17	     9.434
  56.080         60.83	     8.544
  56.100         61.67	     8.602
  56.120         56.67	     8.246
  56.140         74.17	     9.434
  56.160         89.17	    10.344
  56.180         74.17	     9.434
  56.200         87.50	    10.247
  56.220         80.00	     9.798
  56.240         79.17	     9.747
  56.260         67.50	     9.000
  56.280         75.00	     9.487
  56.300         64.17	     8.775
  56.320         80.83	     9.849
  56.340         59.17	     8.426
  56.360         53.33	     8.000
  56.380         44.17	     7.280
  56.400         43.33	     7.211
  56.420         52.50	     7.937
  56.440         44.17	     7.280
  56.460         52.50	     7.937
  56.480         40.83	     7.000
  56.500         48.33	     7.616
  56.520         51.67	     7.874
  56.540         49.17	     7.681
  56.560         42.50	     7.141
  56.580         45.00	     7.348
  56.600         39.17	     6.856
  56.620         38.33	     6.782
  56.640         50.83	     7.810
  56.660         32.50	     6.245
  56.680         40.83	     7.000
  56.700         43.33	     7.211
  56.720         41.67	     7.071
  56.740         30.83	     6.083
  56.760         44.17	     7.280
  56.780         31.67	     6.164
  56.800         34.17	     6.403
  56.820         38.33	     6.782
  56.840         40.83	     7.000
  56.860         33.33	     6.325
  56.880         37.50	     6.708
  56.900         38.33	     6.782
  56.920         40.00	     6.928
  56.940         29.17	     5.916
  56.960         24.17	     5.385
  56.980         35.83	     6.557
  57.000         30.83	     6.083
  57.020         43.33	     7.211
  57.040         34.17	     6.403
  57.060         28.33	     5.831
  57.080         35.83	     6.557
  57.100         34.17	     6.403
  57.120         30.83	     6.083
  57.140         35.83	     6.557
  57.160         27.50	     5.745
  57.180         39.17	     6.856
  57.200         40.00	     6.928
  57.220         30.83	     6.083
  57.240         36.67	     6.633
  57.260         36.67	     6.633
  57.280         38.33	     6.782
  57.300         37.50	     6.708
  57.320         43.33	     7.211
  57.340         36.67	     6.633
  57.360         39.17	     6.856
  57.380         42.50	     7.141
  57.400         31.67	     6.164
  57.420         39.17	     6.856
  57.440         30.00	     6.000
  57.460         36.67	     6.633
  57.480         47.50	     7.550
  57.500         40.00	     6.928
  57.520         44.17	     7.280
  57.540         35.83	     6.557
  57.560         35.83	     6.557
  57.580         37.50	     6.708
  57.600         33.33	     6.325
  57.620         44.17	     7.280
  57.640         40.83	     7.000
  57.660         33.33	     6.325
  57.680         34.17	     6.403
  57.700         35.83	     6.557
  57.720         40.00	     6.928
  57.740         33.33	     6.325
  57.760         32.50	     6.245
  57.780         31.67	     6.164
  57.800         43.33	     7.211
  57.820         35.83	     6.557
  57.840         32.50	     6.245
  57.860         33.33	     6.325
  57.880         30.83	     6.083
  57.900         35.83	     6.557
  57.920         35.83	     6.557
  57.940         42.50	     7.141
  57.960         55.00	     8.124
  57.980         30.00	     6.000
  58.000         41.67	     7.071
  58.020         40.83	     7.000
  58.040         32.50	     6.245
  58.060         40.00	     6.928
  58.080         30.83	     6.083
  58.100         34.17	     6.403
  58.120         40.00	     6.928
  58.140         37.50	     6.708
  58.160         34.17	     6.403
  58.180         34.17	     6.403
  58.200         25.83	     5.568
  58.220         32.50	     6.245
  58.240         25.83	     5.568
  58.260         25.83	     5.568
  58.280         38.33	     6.782
  58.300         31.67	     6.164
  58.320         25.83	     5.568
  58.340         29.17	     5.916
  58.360         39.17	     6.856
  58.380         30.00	     6.000
  58.400         45.00	     7.348
  58.420         24.17	     5.385
  58.440         45.00	     7.348
  58.460         25.83	     5.568
  58.480         45.00	     7.348
  58.500         39.17	     6.856
  58.520         35.00	     6.481
  58.540         36.67	     6.633
  58.560         34.17	     6.403
  58.580         40.83	     7.000
  58.600         45.83	     7.416
  58.620         33.33	     6.325
  58.640         39.17	     6.856
  58.660         39.17	     6.856
  58.680         36.67	     6.633
  58.700         36.67	     6.633
  58.720         30.83	     6.083
  58.740         32.50	     6.245
  58.760         30.83	     6.083
  58.780         50.00	     7.746
  58.800         41.67	     7.071
  58.820         55.83	     8.185
  58.840         49.17	     7.681
  58.860         40.83	     7.000
  58.880         40.83	     7.000
  58.900         37.50	     6.708
  58.920         60.83	     8.544
  58.940         46.67	     7.483
  58.960         65.83	     8.888
  58.980         42.50	     7.141
  59.000         55.83	     8.185
  59.020         59.17	     8.426
  59.040         58.33	     8.367
  59.060         54.17	     8.062
  59.080         60.83	     8.544
  59.100         56.67	     8.246
  59.120         65.00	     8.832
  59.140         65.00	     8.832
  59.160         50.83	     7.810
  59.180         60.00	     8.485
  59.200         54.17	     8.062
  59.220         55.83	     8.185
  59.240         54.17	     8.062
  59.260         55.83	     8.185
  59.280         49.17	     7.681
  59.300         56.67	     8.246
  59.320         47.50	     7.550
  59.340         63.33	     8.718
  59.360         50.83	     7.810
  59.380         50.83	     7.810
  59.400         51.67	     7.874
  59.420         61.67	     8.602
  59.440         62.50	     8.660
  59.460         82.50	     9.950
  59.480         51.67	     7.874
  59.500         56.67	     8.246
  59.520         59.17	     8.426
  59.540         66.67	     8.944
  59.560         47.50	     7.550
  59.580         61.67	     8.602
  59.600         62.50	     8.660
  59.620         50.83	     7.810
  59.640         62.50	     8.660
  59.660         56.67	     8.246
  59.680         53.33	     8.000
  59.700         52.50	     7.937
  59.720         50.00	     7.746
  59.740         57.50	     8.307
  59.760         51.67	     7.874
  59.780         57.50	     8.307
  59.800         60.83	     8.544
  59.820         55.83	     8.185
  59.840         56.67	     8.246
  59.860         35.00	     6.481
  59.880         44.17	     7.280
  59.900         29.17	     5.916
  59.920         40.00	     6.928
  59.940         45.83	     7.416
  59.960         47.50	     7.550
  59.980         40.00	     6.928
  60.000         44.17	     7.280
  60.020         48.33	     7.616
  60.040         50.83	     7.810
  60.060         33.33	     6.325
  60.080         39.17	     6.856
  60.100         39.17	     6.856
  60.120         51.67	     7.874
  60.140         55.00	     8.124
  60.160         61.67	     8.602
  60.180         53.33	     8.000
  60.200         82.50	     9.950
  60.220         81.67	     9.899
  60.240         99.17	    10.909
  60.260        115.00	    11.747
  60.280        165.83	    14.107
  60.300        151.67	    13.491
  60.320        157.50	    13.748
  60.340        136.67	    12.806
  60.360        149.17	    13.379
  60.380        123.33	    12.166
  60.400        100.83	    11.000
  60.420         94.17	    10.630
  60.440        116.67	    11.832
  60.460         92.50	    10.536
  60.480        100.00	    10.954
  60.500        108.33	    11.402
  60.520        120.00	    12.000
  60.540         75.83	     9.539
  60.560         70.00	     9.165
  60.580         73.33	     9.381
  60.600         59.17	     8.426
  60.620         51.67	     7.874
  60.640         58.33	     8.367
  60.660         46.67	     7.483
  60.680         40.00	     6.928
  60.700         62.50	     8.660
  60.720         49.17	     7.681
  60.740         50.83	     7.810
  60.760         61.67	     8.602
  60.780         59.17	     8.426
  60.800         48.33	     7.616
  60.820         50.83	     7.810
  60.840         58.33	     8.367
  60.860         46.67	     7.483
  60.880         53.33	     8.000
  60.900         44.17	     7.280
  60.920         65.00	     8.832
  60.940         66.67	     8.944
  60.960         58.33	     8.367
  60.980         57.50	     8.307
  61.000         51.67	     7.874
  61.020         54.17	     8.062
  61.040         55.83	     8.185
  61.060         55.00	     8.124
  61.080         44.17	     7.280
  61.100         66.67	     8.944
  61.120         75.83	     9.539
  61.140         67.50	     9.000
  61.160         67.50	     9.000
  61.180         68.33	     9.055
  61.200         66.67	     8.944
  61.220         67.50	     9.000
  61.240         62.50	     8.660
  61.260         61.67	     8.602
  61.280         53.33	     8.000
  61.300         61.67	     8.602
  61.320         64.17	     8.775
  61.340         70.00	     9.165
  61.360         60.83	     8.544
  61.380         46.67	     7.483
  61.400         50.83	     7.810
  61.420         60.83	     8.544
  61.440         59.17	     8.426
  61.460         47.50	     7.550
  61.480         62.50	     8.660
  61.500         50.00	     7.746
  61.520         52.50	     7.937
  61.540         45.83	     7.416
  61.560         46.67	     7.483
  61.580         35.83	     6.557
  61.600         48.33	     7.616
  61.620         50.83	     7.810
  61.640         47.50	     7.550
  61.660         45.83	     7.416
  61.680         46.67	     7.483
  61.700         52.50	     7.937
  61.720         61.67	     8.602
  61.740         68.33	     9.055
  61.760         65.00	     8.832
  61.780         59.17	     8.426
  61.800         60.00	     8.485
  61.820         71.67	     9.274
  61.840         65.00	     8.832
  61.860         84.17	    10.050
  61.880         79.17	     9.747
  61.900         60.00	     8.485
  61.920         75.83	     9.539
  61.940         75.00	     9.487
  61.960         86.67	    10.198
  61.980         79.17	     9.747
  62.000         90.00	    10.392
  62.020         68.33	     9.055
  62.040         61.67	     8.602
  62.060         59.17	     8.426
  62.080         74.17	     9.434
  62.100         49.17	     7.681
  62.120         67.50	     9.000
  62.140         51.67	     7.874
  62.160         51.67	     7.874
  62.180         69.17	     9.110
  62.200         93.33	    10.583
  62.220         93.33	    10.583
  62.240         83.33	    10.000
  62.260         58.33	     8.367
  62.280         60.83	     8.544
  62.300         38.33	     6.782
  62.320         60.83	     8.544
  62.340         65.83	     8.888
  62.360         64.17	     8.775
  62.380         74.17	     9.434
  62.400         70.00	     9.165
  62.420         48.33	     7.616
  62.440         51.67	     7.874
  62.460         45.83	     7.416
  62.480         56.67	     8.246
  62.500         45.83	     7.416
  62.520         54.17	     8.062
  62.540         49.17	     7.681
  62.560         40.00	     6.928
  62.580         42.50	     7.141
  62.600         40.83	     7.000
  62.620         44.17	     7.280
  62.640         41.67	     7.071
  62.660         45.00	     7.348
  62.680         40.00	     6.928
  62.700         40.83	     7.000
  62.720         33.33	     6.325
  62.740         39.17	     6.856
  62.760         34.17	     6.403
  62.780         30.00	     6.000
  62.800         34.17	     6.403
  62.820         25.00	     5.477
  62.840         37.50	     6.708
  62.860         33.33	     6.325
  62.880         35.83	     6.557
  62.900         37.50	     6.708
  62.920         31.67	     6.164
  62.940         42.50	     7.141
  62.960         43.33	     7.211
  62.980         35.00	     6.481
  63.000         40.83	     7.000
  63.020         50.00	     7.746
  63.040         61.67	     8.602
  63.060         66.67	     8.944
  63.080         51.67	     7.874
  63.100         48.33	     7.616
  63.120         40.00	     6.928
  63.140         45.00	     7.348
  63.160         50.00	     7.746
  63.180         44.17	     7.280
  63.200         66.67	     8.944
  63.220         50.83	     7.810
  63.240         39.17	     6.856
  63.260         41.67	     7.071
  63.280         45.83	     7.416
  63.300         39.17	     6.856
  63.320         41.67	     7.071
  63.340         30.83	     6.083
  63.360         41.67	     7.071
  63.380         31.67	     6.164
  63.400         43.33	     7.211
  63.420         29.17	     5.916
  63.440         50.00	     7.746
  63.460         38.33	     6.782
  63.480         37.50	     6.708
  63.500         38.33	     6.782
  63.520         30.00	     6.000
  63.540         35.00	     6.481
  63.560         39.17	     6.856
  63.580         37.50	     6.708
  63.600         38.33	     6.782
  63.620         29.17	     5.916
  63.640         29.17	     5.916
  63.660         36.67	     6.633
  63.680         36.67	     6.633
  63.700         42.50	     7.141
  63.720         35.83	     6.557
  63.740         35.83	     6.557
  63.760         46.67	     7.483
  63.780         50.00	     7.746
  63.800         41.67	     7.071
  63.820         45.00	     7.348
  63.840         50.00	     7.746
  63.860         44.17	     7.280
  63.880         37.50	     6.708
  63.900         36.67	     6.633
  63.920         33.33	     6.325
  63.940         47.50	     7.550
  63.960         41.67	     7.071
  63.980         31.67	     6.164
  64.000         47.50	     7.550
  64.020         51.67	     7.874
  64.040         52.50	     7.937
  64.060         56.67	     8.246
  64.080         63.33	     8.718
  64.100         63.33	     8.718
  64.120         58.33	     8.367
  64.140         73.33	     9.381
  64.160         53.33	     8.000
  64.180         49.17	     7.681
  64.200         52.50	     7.937
  64.220         46.67	     7.483
  64.240         65.83	     8.888
  64.260         70.00	     9.165
  64.280         45.83	     7.416
  64.300         77.50	     9.644
  64.320         60.83	     8.544
  64.340         71.67	     9.274
  64.360         85.83	    10.149
  64.380         85.83	    10.149
  64.400         80.00	     9.798
  64.420         91.67	    10.488
  64.440         63.33	     8.718
  64.460         67.50	     9.000
  64.480         64.17	     8.775
  64.500         65.00	     8.832
  64.520         63.33	     8.718
  64.540         77.50	     9.644
  64.560         66.67	     8.944
  64.580         58.33	     8.367
  64.600         46.67	     7.483
  64.620         54.17	     8.062
  64.640         48.33	     7.616
  64.660         45.83	     7.416
  64.680         41.67	     7.071
  64.700         31.67	     6.164
  64.720         36.67	     6.633
  64.740         45.83	     7.416
  64.760         30.83	     6.083
  64.780         39.17	     6.856
  64.800         53.33	     8.000
  64.820         40.83	     7.000
  64.840         40.00	     6.928
  64.860         39.17	     6.856
  64.880         40.83	     7.000
  64.900         32.50	     6.245
  64.920         34.17	     6.403
  64.940         40.83	     7.000
  64.960         44.17	     7.280
  64.980         61.67	     8.602
  65.000         59.17	     8.426
