
Filename:
	C:\Program Files\Thermo Electron\WinXRD\Datafiles\F_HERMAN\GEO\GG_1_SFT.raw

File Created:
	October 12, 2020 - 12:35 PM

Specimen Id:
	GG1 SFT

Specimen Name:
	

Specimen Description:
	

Comment:
Scan Type: 2Theta Scan
Start Angle: 3 deg.
Stop Angle: 65 deg.
Num Points: 3101
Step Size: 0.02 deg.
Scan Rate: 1.000000
Scan Mode: Continuous
Wavelength: 1.540562
\Kalpha1: 1.540562	\Kalpha2: 1.544390	\Kbeta: 1.392218

Optics:
		Detector:
			 Type: Fixed Slits
		Tube: 
			 Type: Fixed Slits


Datas:
 Pos [deg]       Rate [CPS]      ESD [-]

Range 1 ---> Iteration 1
   3.000        382.50	    21.424
   3.020        386.67	    21.541
   3.040        372.50	    21.142
   3.060        375.00	    21.213
   3.080        370.83	    21.095
   3.100        368.33	    21.024
   3.120        380.00	    21.354
   3.140        359.17	    20.761
   3.160        380.83	    21.378
   3.180        400.00	    21.909
   3.200        361.67	    20.833
   3.220        344.17	    20.322
   3.240        355.83	    20.664
   3.260        342.50	    20.273
   3.280        349.17	    20.469
   3.300        319.17	    19.570
   3.320        335.83	    20.075
   3.340        348.33	    20.445
   3.360        309.17	    19.261
   3.380        379.17	    21.331
   3.400        337.50	    20.125
   3.420        364.17	    20.905
   3.440        318.33	    19.545
   3.460        316.67	    19.494
   3.480        330.00	    19.900
   3.500        325.00	    19.748
   3.520        330.83	    19.925
   3.540        325.00	    19.748
   3.560        315.00	    19.442
   3.580        301.67	    19.026
   3.600        325.83	    19.774
   3.620        296.67	    18.868
   3.640        333.33	    20.000
   3.660        310.83	    19.313
   3.680        288.33	    18.601
   3.700        281.67	    18.385
   3.720        266.67	    17.889
   3.740        284.17	    18.466
   3.760        282.50	    18.412
   3.780        294.17	    18.788
   3.800        296.67	    18.868
   3.820        270.83	    18.028
   3.840        300.83	    19.000
   3.860        266.67	    17.889
   3.880        299.17	    18.947
   3.900        299.17	    18.947
   3.920        294.17	    18.788
   3.940        265.83	    17.861
   3.960        264.17	    17.804
   3.980        271.67	    18.055
   4.000        276.67	    18.221
   4.020        250.00	    17.321
   4.040        280.83	    18.358
   4.060        297.50	    18.894
   4.080        268.33	    17.944
   4.100        262.50	    17.748
   4.120        275.83	    18.193
   4.140        251.67	    17.378
   4.160        282.50	    18.412
   4.180        265.00	    17.833
   4.200        255.00	    17.493
   4.220        265.83	    17.861
   4.240        250.83	    17.349
   4.260        245.83	    17.176
   4.280        247.50	    17.234
   4.300        239.17	    16.941
   4.320        243.33	    17.088
   4.340        230.00	    16.613
   4.360        235.00	    16.793
   4.380        245.00	    17.146
   4.400        238.33	    16.912
   4.420        213.33	    16.000
   4.440        235.00	    16.793
   4.460        237.50	    16.882
   4.480        239.17	    16.941
   4.500        248.33	    17.263
   4.520        225.00	    16.432
   4.540        242.50	    17.059
   4.560        232.50	    16.703
   4.580        252.50	    17.407
   4.600        220.00	    16.248
   4.620        236.67	    16.852
   4.640        227.50	    16.523
   4.660        222.50	    16.340
   4.680        233.33	    16.733
   4.700        235.83	    16.823
   4.720        223.33	    16.371
   4.740        182.50	    14.799
   4.760        210.83	    15.906
   4.780        206.67	    15.748
   4.800        221.67	    16.310
   4.820        210.00	    15.875
   4.840        215.83	    16.093
   4.860        210.00	    15.875
   4.880        200.83	    15.524
   4.900        215.83	    16.093
   4.920        210.83	    15.906
   4.940        210.83	    15.906
   4.960        201.67	    15.556
   4.980        180.00	    14.697
   5.000        206.67	    15.748
   5.020        212.50	    15.969
   5.040        196.67	    15.362
   5.060        174.17	    14.457
   5.080        207.50	    15.780
   5.100        216.67	    16.125
   5.120        205.00	    15.684
   5.140        176.67	    14.560
   5.160        193.33	    15.232
   5.180        205.83	    15.716
   5.200        214.17	    16.031
   5.220        200.83	    15.524
   5.240        192.50	    15.199
   5.260        203.33	    15.620
   5.280        202.50	    15.588
   5.300        194.17	    15.264
   5.320        185.83	    14.933
   5.340        191.67	    15.166
   5.360        202.50	    15.588
   5.380        201.67	    15.556
   5.400        189.17	    15.067
   5.420        230.00	    16.613
   5.440        173.33	    14.422
   5.460        169.17	    14.248
   5.480        193.33	    15.232
   5.500        175.00	    14.491
   5.520        175.00	    14.491
   5.540        187.50	    15.000
   5.560        175.00	    14.491
   5.580        180.83	    14.731
   5.600        171.67	    14.353
   5.620        166.67	    14.142
   5.640        193.33	    15.232
   5.660        163.33	    14.000
   5.680        169.17	    14.248
   5.700        205.00	    15.684
   5.720        172.50	    14.387
   5.740        203.33	    15.620
   5.760        165.83	    14.107
   5.780        193.33	    15.232
   5.800        175.83	    14.526
   5.820        201.67	    15.556
   5.840        167.50	    14.177
   5.860        173.33	    14.422
   5.880        202.50	    15.588
   5.900        183.33	    14.832
   5.920        158.33	    13.784
   5.940        173.33	    14.422
   5.960        172.50	    14.387
   5.980        170.00	    14.283
   6.000        172.50	    14.387
   6.020        176.67	    14.560
   6.040        186.67	    14.967
   6.060        188.33	    15.033
   6.080        180.00	    14.697
   6.100        187.50	    15.000
   6.120        164.17	    14.036
   6.140        187.50	    15.000
   6.160        161.67	    13.928
   6.180        250.83	    17.349
   6.200        206.67	    15.748
   6.220        241.67	    17.029
   6.240        211.67	    15.937
   6.260        236.67	    16.852
   6.280        232.50	    16.703
   6.300        248.33	    17.263
   6.320        265.00	    17.833
   6.340        268.33	    17.944
   6.360        264.17	    17.804
   6.380        271.67	    18.055
   6.400        215.00	    16.062
   6.420        230.83	    16.643
   6.440        149.17	    13.379
   6.460        186.67	    14.967
   6.480        170.00	    14.283
   6.500        171.67	    14.353
   6.520        186.67	    14.967
   6.540        146.67	    13.266
   6.560        145.83	    13.229
   6.580        175.00	    14.491
   6.600        173.33	    14.422
   6.620        150.00	    13.416
   6.640        164.17	    14.036
   6.660        160.83	    13.892
   6.680        174.17	    14.457
   6.700        155.83	    13.675
   6.720        164.17	    14.036
   6.740        155.83	    13.675
   6.760        157.50	    13.748
   6.780        151.67	    13.491
   6.800        155.00	    13.638
   6.820        158.33	    13.784
   6.840        155.00	    13.638
   6.860        160.83	    13.892
   6.880        160.83	    13.892
   6.900        141.67	    13.038
   6.920        136.67	    12.806
   6.940        136.67	    12.806
   6.960        159.17	    13.820
   6.980        151.67	    13.491
   7.000        139.17	    12.923
   7.020        146.67	    13.266
   7.040        148.33	    13.342
   7.060        158.33	    13.784
   7.080        155.83	    13.675
   7.100        134.17	    12.689
   7.120        151.67	    13.491
   7.140        129.17	    12.450
   7.160        153.33	    13.565
   7.180        131.67	    12.570
   7.200        139.17	    12.923
   7.220        130.00	    12.490
   7.240        133.33	    12.649
   7.260        152.50	    13.528
   7.280        145.83	    13.229
   7.300        140.83	    13.000
   7.320        166.67	    14.142
   7.340        162.50	    13.964
   7.360        130.83	    12.530
   7.380        107.50	    11.358
   7.400        130.00	    12.490
   7.420        137.50	    12.845
   7.440        138.33	    12.884
   7.460        123.33	    12.166
   7.480        146.67	    13.266
   7.500        132.50	    12.610
   7.520        138.33	    12.884
   7.540        147.50	    13.304
   7.560        116.67	    11.832
   7.580        134.17	    12.689
   7.600        122.50	    12.124
   7.620        138.33	    12.884
   7.640        131.67	    12.570
   7.660        124.17	    12.207
   7.680        116.67	    11.832
   7.700        138.33	    12.884
   7.720        130.83	    12.530
   7.740        122.50	    12.124
   7.760        128.33	    12.410
   7.780        121.67	    12.083
   7.800        115.83	    11.790
   7.820        131.67	    12.570
   7.840        127.50	    12.369
   7.860        150.83	    13.454
   7.880        135.00	    12.728
   7.900        143.33	    13.115
   7.920        135.00	    12.728
   7.940        118.33	    11.916
   7.960        125.00	    12.247
   7.980        125.83	    12.288
   8.000        103.33	    11.136
   8.020        126.67	    12.329
   8.040        120.83	    12.042
   8.060        121.67	    12.083
   8.080        131.67	    12.570
   8.100        130.00	    12.490
   8.120        125.83	    12.288
   8.140        135.00	    12.728
   8.160        124.17	    12.207
   8.180        125.83	    12.288
   8.200        127.50	    12.369
   8.220        119.17	    11.958
   8.240        121.67	    12.083
   8.260        145.83	    13.229
   8.280        121.67	    12.083
   8.300        149.17	    13.379
   8.320        116.67	    11.832
   8.340        140.00	    12.961
   8.360        141.67	    13.038
   8.380        119.17	    11.958
   8.400        128.33	    12.410
   8.420        121.67	    12.083
   8.440        115.00	    11.747
   8.460        157.50	    13.748
   8.480        128.33	    12.410
   8.500        146.67	    13.266
   8.520        148.33	    13.342
   8.540        154.17	    13.601
   8.560        140.00	    12.961
   8.580        149.17	    13.379
   8.600        162.50	    13.964
   8.620        170.00	    14.283
   8.640        163.33	    14.000
   8.660        156.67	    13.711
   8.680        175.83	    14.526
   8.700        185.00	    14.900
   8.720        174.17	    14.457
   8.740        175.00	    14.491
   8.760        216.67	    16.125
   8.780        193.33	    15.232
   8.800        206.67	    15.748
   8.820        261.67	    17.720
   8.840        231.67	    16.673
   8.860        299.17	    18.947
   8.880        319.17	    19.570
   8.900        366.67	    20.976
   8.920        396.67	    21.817
   8.940        556.67	    25.846
   8.960        594.17	    26.702
   8.980        703.33	    29.052
   9.000        659.17	    28.125
   9.020        551.67	    25.729
   9.040        415.83	    22.338
   9.060        276.67	    18.221
   9.080        181.67	    14.765
   9.100        147.50	    13.304
   9.120        175.83	    14.526
   9.140        159.17	    13.820
   9.160        150.83	    13.454
   9.180        136.67	    12.806
   9.200        110.83	    11.533
   9.220        128.33	    12.410
   9.240        139.17	    12.923
   9.260        139.17	    12.923
   9.280        128.33	    12.410
   9.300        123.33	    12.166
   9.320        118.33	    11.916
   9.340        123.33	    12.166
   9.360         98.33	    10.863
   9.380        115.83	    11.790
   9.400         95.00	    10.677
   9.420        108.33	    11.402
   9.440        106.67	    11.314
   9.460        110.83	    11.533
   9.480        116.67	    11.832
   9.500         92.50	    10.536
   9.520        103.33	    11.136
   9.540        121.67	    12.083
   9.560        134.17	    12.689
   9.580        101.67	    11.045
   9.600        105.00	    11.225
   9.620         90.83	    10.440
   9.640         95.00	    10.677
   9.660         99.17	    10.909
   9.680         81.67	     9.899
   9.700         99.17	    10.909
   9.720         91.67	    10.488
   9.740         91.67	    10.488
   9.760         89.17	    10.344
   9.780         80.00	     9.798
   9.800         85.83	    10.149
   9.820         85.83	    10.149
   9.840         90.83	    10.440
   9.860        105.00	    11.225
   9.880        102.50	    11.091
   9.900         81.67	     9.899
   9.920         85.00	    10.100
   9.940         88.33	    10.296
   9.960         95.00	    10.677
   9.980         87.50	    10.247
  10.000         84.17	    10.050
  10.020         65.00	     8.832
  10.040         79.17	     9.747
  10.060         77.50	     9.644
  10.080         75.00	     9.487
  10.100         76.67	     9.592
  10.120         78.33	     9.695
  10.140         89.17	    10.344
  10.160         90.83	    10.440
  10.180         91.67	    10.488
  10.200         95.83	    10.724
  10.220         97.50	    10.817
  10.240         87.50	    10.247
  10.260         86.67	    10.198
  10.280         72.50	     9.327
  10.300         85.83	    10.149
  10.320         92.50	    10.536
  10.340         90.83	    10.440
  10.360         90.00	    10.392
  10.380         84.17	    10.050
  10.400         86.67	    10.198
  10.420         94.17	    10.630
  10.440        108.33	    11.402
  10.460         95.00	    10.677
  10.480         95.83	    10.724
  10.500         89.17	    10.344
  10.520         93.33	    10.583
  10.540        110.83	    11.533
  10.560         99.17	    10.909
  10.580        128.33	    12.410
  10.600        106.67	    11.314
  10.620        128.33	    12.410
  10.640        125.00	    12.247
  10.660        130.83	    12.530
  10.680        109.17	    11.446
  10.700        104.17	    11.180
  10.720         85.00	    10.100
  10.740         80.00	     9.798
  10.760         88.33	    10.296
  10.780         81.67	     9.899
  10.800         80.83	     9.849
  10.820         83.33	    10.000
  10.840         88.33	    10.296
  10.860         90.83	    10.440
  10.880         77.50	     9.644
  10.900         97.50	    10.817
  10.920         80.00	     9.798
  10.940         67.50	     9.000
  10.960         82.50	     9.950
  10.980         63.33	     8.718
  11.000         78.33	     9.695
  11.020         71.67	     9.274
  11.040         78.33	     9.695
  11.060         79.17	     9.747
  11.080         85.83	    10.149
  11.100         90.83	    10.440
  11.120         76.67	     9.592
  11.140         83.33	    10.000
  11.160         75.00	     9.487
  11.180         68.33	     9.055
  11.200         82.50	     9.950
  11.220         95.83	    10.724
  11.240         75.00	     9.487
  11.260         76.67	     9.592
  11.280         70.00	     9.165
  11.300         80.00	     9.798
  11.320        101.67	    11.045
  11.340         75.83	     9.539
  11.360         72.50	     9.327
  11.380         74.17	     9.434
  11.400         78.33	     9.695
  11.420         69.17	     9.110
  11.440         82.50	     9.950
  11.460         82.50	     9.950
  11.480         75.83	     9.539
  11.500         70.00	     9.165
  11.520         60.83	     8.544
  11.540         75.00	     9.487
  11.560         73.33	     9.381
  11.580         75.83	     9.539
  11.600         76.67	     9.592
  11.620         76.67	     9.592
  11.640         74.17	     9.434
  11.660         74.17	     9.434
  11.680         78.33	     9.695
  11.700         68.33	     9.055
  11.720         87.50	    10.247
  11.740         71.67	     9.274
  11.760         75.83	     9.539
  11.780         80.83	     9.849
  11.800         71.67	     9.274
  11.820         68.33	     9.055
  11.840         70.00	     9.165
  11.860         70.00	     9.165
  11.880         77.50	     9.644
  11.900         68.33	     9.055
  11.920         65.00	     8.832
  11.940         89.17	    10.344
  11.960         77.50	     9.644
  11.980         74.17	     9.434
  12.000         85.00	    10.100
  12.020         85.83	    10.149
  12.040        107.50	    11.358
  12.060         86.67	    10.198
  12.080         97.50	    10.817
  12.100         82.50	     9.950
  12.120         96.67	    10.770
  12.140        111.67	    11.576
  12.160        114.17	    11.705
  12.180        102.50	    11.091
  12.200        123.33	    12.166
  12.220        175.83	    14.526
  12.240        169.17	    14.248
  12.260        191.67	    15.166
  12.280        248.33	    17.263
  12.300        271.67	    18.055
  12.320        242.50	    17.059
  12.340        238.33	    16.912
  12.360        185.00	    14.900
  12.380        172.50	    14.387
  12.400        152.50	    13.528
  12.420        160.83	    13.892
  12.440        190.83	    15.133
  12.460        172.50	    14.387
  12.480        228.33	    16.553
  12.500        242.50	    17.059
  12.520        290.00	    18.655
  12.540        376.67	    21.260
  12.560        399.17	    21.886
  12.580        518.33	    24.940
  12.600        580.00	    26.382
  12.620        520.00	    24.980
  12.640        497.50	    24.434
  12.660        345.83	    20.372
  12.680        218.33	    16.186
  12.700        171.67	    14.353
  12.720        125.00	    12.247
  12.740        107.50	    11.358
  12.760        110.00	    11.489
  12.780         90.83	    10.440
  12.800         91.67	    10.488
  12.820         84.17	    10.050
  12.840         85.83	    10.149
  12.860         85.83	    10.149
  12.880         79.17	     9.747
  12.900         81.67	     9.899
  12.920         83.33	    10.000
  12.940         58.33	     8.367
  12.960         71.67	     9.274
  12.980         70.00	     9.165
  13.000         60.00	     8.485
  13.020         73.33	     9.381
  13.040         58.33	     8.367
  13.060         67.50	     9.000
  13.080         75.83	     9.539
  13.100         65.00	     8.832
  13.120         79.17	     9.747
  13.140         60.83	     8.544
  13.160         64.17	     8.775
  13.180         66.67	     8.944
  13.200         62.50	     8.660
  13.220         60.00	     8.485
  13.240         61.67	     8.602
  13.260         57.50	     8.307
  13.280         64.17	     8.775
  13.300         56.67	     8.246
  13.320         71.67	     9.274
  13.340         57.50	     8.307
  13.360         63.33	     8.718
  13.380         60.00	     8.485
  13.400         72.50	     9.327
  13.420         59.17	     8.426
  13.440         71.67	     9.274
  13.460         90.00	    10.392
  13.480         79.17	     9.747
  13.500         78.33	     9.695
  13.520         66.67	     8.944
  13.540         65.83	     8.888
  13.560         64.17	     8.775
  13.580         59.17	     8.426
  13.600         61.67	     8.602
  13.620         57.50	     8.307
  13.640         60.00	     8.485
  13.660         54.17	     8.062
  13.680         58.33	     8.367
  13.700         53.33	     8.000
  13.720         66.67	     8.944
  13.740         77.50	     9.644
  13.760         65.00	     8.832
  13.780         59.17	     8.426
  13.800         63.33	     8.718
  13.820         57.50	     8.307
  13.840         70.83	     9.220
  13.860         60.00	     8.485
  13.880         58.33	     8.367
  13.900         73.33	     9.381
  13.920         79.17	     9.747
  13.940         93.33	    10.583
  13.960        110.00	    11.489
  13.980        110.83	    11.533
  14.000        117.50	    11.874
  14.020         87.50	    10.247
  14.040         81.67	     9.899
  14.060         73.33	     9.381
  14.080         70.83	     9.220
  14.100         70.83	     9.220
  14.120         60.83	     8.544
  14.140         69.17	     9.110
  14.160         70.83	     9.220
  14.180         50.83	     7.810
  14.200         55.83	     8.185
  14.220         63.33	     8.718
  14.240         63.33	     8.718
  14.260         54.17	     8.062
  14.280         55.00	     8.124
  14.300         58.33	     8.367
  14.320         50.00	     7.746
  14.340         65.00	     8.832
  14.360         55.83	     8.185
  14.380         47.50	     7.550
  14.400         48.33	     7.616
  14.420         45.83	     7.416
  14.440         55.00	     8.124
  14.460         64.17	     8.775
  14.480         48.33	     7.616
  14.500         48.33	     7.616
  14.520         58.33	     8.367
  14.540         52.50	     7.937
  14.560         50.00	     7.746
  14.580         51.67	     7.874
  14.600         50.00	     7.746
  14.620         65.00	     8.832
  14.640         45.83	     7.416
  14.660         47.50	     7.550
  14.680         50.83	     7.810
  14.700         59.17	     8.426
  14.720         48.33	     7.616
  14.740         50.00	     7.746
  14.760         47.50	     7.550
  14.780         60.00	     8.485
  14.800         55.83	     8.185
  14.820         62.50	     8.660
  14.840         55.83	     8.185
  14.860         46.67	     7.483
  14.880         60.00	     8.485
  14.900         66.67	     8.944
  14.920         49.17	     7.681
  14.940         55.83	     8.185
  14.960         51.67	     7.874
  14.980         40.00	     6.928
  15.000         49.17	     7.681
  15.020         52.50	     7.937
  15.040         52.50	     7.937
  15.060         57.50	     8.307
  15.080         68.33	     9.055
  15.100         80.83	     9.849
  15.120         67.50	     9.000
  15.140         57.50	     8.307
  15.160         46.67	     7.483
  15.180         58.33	     8.367
  15.200         58.33	     8.367
  15.220         59.17	     8.426
  15.240         60.00	     8.485
  15.260         44.17	     7.280
  15.280         60.00	     8.485
  15.300         39.17	     6.856
  15.320         52.50	     7.937
  15.340         40.83	     7.000
  15.360         44.17	     7.280
  15.380         45.00	     7.348
  15.400         54.17	     8.062
  15.420         50.83	     7.810
  15.440         48.33	     7.616
  15.460         50.83	     7.810
  15.480         55.00	     8.124
  15.500         44.17	     7.280
  15.520         50.00	     7.746
  15.540         42.50	     7.141
  15.560         60.83	     8.544
  15.580         50.00	     7.746
  15.600         33.33	     6.325
  15.620         42.50	     7.141
  15.640         50.00	     7.746
  15.660         41.67	     7.071
  15.680         41.67	     7.071
  15.700         55.83	     8.185
  15.720         52.50	     7.937
  15.740         43.33	     7.211
  15.760         44.17	     7.280
  15.780         41.67	     7.071
  15.800         36.67	     6.633
  15.820         48.33	     7.616
  15.840         47.50	     7.550
  15.860         58.33	     8.367
  15.880         47.50	     7.550
  15.900         44.17	     7.280
  15.920         55.00	     8.124
  15.940         55.00	     8.124
  15.960         54.17	     8.062
  15.980         44.17	     7.280
  16.000         70.00	     9.165
  16.020         50.83	     7.810
  16.040         45.83	     7.416
  16.060         55.83	     8.185
  16.080         44.17	     7.280
  16.100         53.33	     8.000
  16.120         46.67	     7.483
  16.140         36.67	     6.633
  16.160         50.83	     7.810
  16.180         42.50	     7.141
  16.200         43.33	     7.211
  16.220         52.50	     7.937
  16.240         52.50	     7.937
  16.260         49.17	     7.681
  16.280         50.00	     7.746
  16.300         50.83	     7.810
  16.320         47.50	     7.550
  16.340         45.00	     7.348
  16.360         37.50	     6.708
  16.380         39.17	     6.856
  16.400         50.83	     7.810
  16.420         45.00	     7.348
  16.440         49.17	     7.681
  16.460         53.33	     8.000
  16.480         38.33	     6.782
  16.500         49.17	     7.681
  16.520         52.50	     7.937
  16.540         50.83	     7.810
  16.560         47.50	     7.550
  16.580         42.50	     7.141
  16.600         50.00	     7.746
  16.620         50.00	     7.746
  16.640         32.50	     6.245
  16.660         34.17	     6.403
  16.680         46.67	     7.483
  16.700         33.33	     6.325
  16.720         44.17	     7.280
  16.740         47.50	     7.550
  16.760         48.33	     7.616
  16.780         50.00	     7.746
  16.800         36.67	     6.633
  16.820         35.83	     6.557
  16.840         48.33	     7.616
  16.860         45.83	     7.416
  16.880         43.33	     7.211
  16.900         29.17	     5.916
  16.920         56.67	     8.246
  16.940         39.17	     6.856
  16.960         43.33	     7.211
  16.980         40.00	     6.928
  17.000         38.33	     6.782
  17.020         45.00	     7.348
  17.040         40.83	     7.000
  17.060         30.83	     6.083
  17.080         50.00	     7.746
  17.100         47.50	     7.550
  17.120         44.17	     7.280
  17.140         67.50	     9.000
  17.160         53.33	     8.000
  17.180         40.83	     7.000
  17.200         42.50	     7.141
  17.220         58.33	     8.367
  17.240         53.33	     8.000
  17.260         46.67	     7.483
  17.280         43.33	     7.211
  17.300         57.50	     8.307
  17.320         46.67	     7.483
  17.340         55.83	     8.185
  17.360         58.33	     8.367
  17.380         50.00	     7.746
  17.400         45.00	     7.348
  17.420         49.17	     7.681
  17.440         45.00	     7.348
  17.460         55.00	     8.124
  17.480         43.33	     7.211
  17.500         48.33	     7.616
  17.520         50.83	     7.810
  17.540         48.33	     7.616
  17.560         43.33	     7.211
  17.580         60.00	     8.485
  17.600         40.83	     7.000
  17.620         62.50	     8.660
  17.640         53.33	     8.000
  17.660         55.00	     8.124
  17.680         60.00	     8.485
  17.700         55.00	     8.124
  17.720         69.17	     9.110
  17.740         68.33	     9.055
  17.760         80.83	     9.849
  17.780         76.67	     9.592
  17.800        113.33	    11.662
  17.820        133.33	    12.649
  17.840        157.50	    13.748
  17.860        194.17	    15.264
  17.880        275.83	    18.193
  17.900        344.17	    20.322
  17.920        365.00	    20.928
  17.940        353.33	    20.591
  17.960        338.33	    20.149
  17.980        239.17	    16.941
  18.000        206.67	    15.748
  18.020        138.33	    12.884
  18.040        105.00	    11.225
  18.060         70.83	     9.220
  18.080         67.50	     9.000
  18.100         69.17	     9.110
  18.120         90.83	    10.440
  18.140         50.00	     7.746
  18.160         64.17	     8.775
  18.180         57.50	     8.307
  18.200         51.67	     7.874
  18.220         64.17	     8.775
  18.240         64.17	     8.775
  18.260         58.33	     8.367
  18.280         43.33	     7.211
  18.300         45.83	     7.416
  18.320         50.00	     7.746
  18.340         46.67	     7.483
  18.360         50.00	     7.746
  18.380         65.83	     8.888
  18.400         58.33	     8.367
  18.420         56.67	     8.246
  18.440         55.83	     8.185
  18.460         63.33	     8.718
  18.480         50.00	     7.746
  18.500         62.50	     8.660
  18.520         70.83	     9.220
  18.540         71.67	     9.274
  18.560         71.67	     9.274
  18.580         57.50	     8.307
  18.600         53.33	     8.000
  18.620         61.67	     8.602
  18.640         63.33	     8.718
  18.660         80.83	     9.849
  18.680         73.33	     9.381
  18.700         65.00	     8.832
  18.720         78.33	     9.695
  18.740         79.17	     9.747
  18.760         86.67	    10.198
  18.780        104.17	    11.180
  18.800        105.83	    11.269
  18.820        134.17	    12.689
  18.840        198.33	    15.427
  18.860        169.17	    14.248
  18.880        193.33	    15.232
  18.900        227.50	    16.523
  18.920        204.17	    15.652
  18.940        205.00	    15.684
  18.960        149.17	    13.379
  18.980        128.33	    12.410
  19.000         80.83	     9.849
  19.020         85.83	    10.149
  19.040         69.17	     9.110
  19.060         58.33	     8.367
  19.080         64.17	     8.775
  19.100         52.50	     7.937
  19.120         48.33	     7.616
  19.140         52.50	     7.937
  19.160         53.33	     8.000
  19.180         48.33	     7.616
  19.200         64.17	     8.775
  19.220         50.00	     7.746
  19.240         58.33	     8.367
  19.260         68.33	     9.055
  19.280         59.17	     8.426
  19.300         60.00	     8.485
  19.320         80.83	     9.849
  19.340         74.17	     9.434
  19.360         73.33	     9.381
  19.380         60.00	     8.485
  19.400         53.33	     8.000
  19.420         65.83	     8.888
  19.440         63.33	     8.718
  19.460         60.83	     8.544
  19.480         56.67	     8.246
  19.500         73.33	     9.381
  19.520         62.50	     8.660
  19.540         60.00	     8.485
  19.560         64.17	     8.775
  19.580         50.00	     7.746
  19.600         54.17	     8.062
  19.620         67.50	     9.000
  19.640         55.00	     8.124
  19.660         55.00	     8.124
  19.680         70.00	     9.165
  19.700         66.67	     8.944
  19.720         68.33	     9.055
  19.740         91.67	    10.488
  19.760         85.83	    10.149
  19.780         98.33	    10.863
  19.800         79.17	     9.747
  19.820         85.83	    10.149
  19.840         90.83	    10.440
  19.860        120.00	    12.000
  19.880        120.83	    12.042
  19.900        137.50	    12.845
  19.920        155.00	    13.638
  19.940        122.50	    12.124
  19.960        141.67	    13.038
  19.980        154.17	    13.601
  20.000        130.83	    12.530
  20.020        105.00	    11.225
  20.040        102.50	    11.091
  20.060        105.00	    11.225
  20.080         96.67	    10.770
  20.100         80.83	     9.849
  20.120         79.17	     9.747
  20.140         64.17	     8.775
  20.160         64.17	     8.775
  20.180         55.83	     8.185
  20.200         64.17	     8.775
  20.220         49.17	     7.681
  20.240         69.17	     9.110
  20.260         70.83	     9.220
  20.280         56.67	     8.246
  20.300         63.33	     8.718
  20.320         56.67	     8.246
  20.340         65.00	     8.832
  20.360         57.50	     8.307
  20.380         54.17	     8.062
  20.400         59.17	     8.426
  20.420         52.50	     7.937
  20.440         52.50	     7.937
  20.460         51.67	     7.874
  20.480         40.83	     7.000
  20.500         50.83	     7.810
  20.520         50.00	     7.746
  20.540         42.50	     7.141
  20.560         44.17	     7.280
  20.580         44.17	     7.280
  20.600         55.00	     8.124
  20.620         63.33	     8.718
  20.640         65.83	     8.888
  20.660         48.33	     7.616
  20.680         71.67	     9.274
  20.700         62.50	     8.660
  20.720         67.50	     9.000
  20.740         68.33	     9.055
  20.760         64.17	     8.775
  20.780         67.50	     9.000
  20.800         80.83	     9.849
  20.820         71.67	     9.274
  20.840         76.67	     9.592
  20.860         94.17	    10.630
  20.880        128.33	    12.410
  20.900        176.67	    14.560
  20.920        284.17	    18.466
  20.940        462.50	    23.558
  20.960        653.33	    28.000
  20.980        653.33	    28.000
  21.000        489.17	    24.228
  21.020        356.67	    20.688
  21.040        302.50	    19.053
  21.060        137.50	    12.845
  21.080        131.67	    12.570
  21.100         99.17	    10.909
  21.120         96.67	    10.770
  21.140         88.33	    10.296
  21.160         87.50	    10.247
  21.180         79.17	     9.747
  21.200         66.67	     8.944
  21.220         74.17	     9.434
  21.240         65.00	     8.832
  21.260         62.50	     8.660
  21.280         62.50	     8.660
  21.300         61.67	     8.602
  21.320         64.17	     8.775
  21.340         47.50	     7.550
  21.360         69.17	     9.110
  21.380         66.67	     8.944
  21.400         48.33	     7.616
  21.420         51.67	     7.874
  21.440         55.83	     8.185
  21.460         56.67	     8.246
  21.480         60.00	     8.485
  21.500         60.83	     8.544
  21.520         52.50	     7.937
  21.540         45.00	     7.348
  21.560         55.00	     8.124
  21.580         61.67	     8.602
  21.600         50.00	     7.746
  21.620         60.83	     8.544
  21.640         55.83	     8.185
  21.660         70.00	     9.165
  21.680         74.17	     9.434
  21.700         75.83	     9.539
  21.720         80.00	     9.798
  21.740         61.67	     8.602
  21.760         65.83	     8.888
  21.780         56.67	     8.246
  21.800         48.33	     7.616
  21.820         46.67	     7.483
  21.840         50.83	     7.810
  21.860         61.67	     8.602
  21.880         52.50	     7.937
  21.900         58.33	     8.367
  21.920         59.17	     8.426
  21.940         56.67	     8.246
  21.960         60.00	     8.485
  21.980         70.00	     9.165
  22.000         71.67	     9.274
  22.020         62.50	     8.660
  22.040         87.50	    10.247
  22.060         91.67	    10.488
  22.080        104.17	    11.180
  22.100        158.33	    13.784
  22.120        215.00	    16.062
  22.140        279.17	    18.303
  22.160        285.00	    18.493
  22.180        239.17	    16.941
  22.200        222.50	    16.340
  22.220        162.50	    13.964
  22.240        129.17	    12.450
  22.260         94.17	    10.630
  22.280         88.33	    10.296
  22.300         54.17	     8.062
  22.320         68.33	     9.055
  22.340         72.50	     9.327
  22.360         70.00	     9.165
  22.380         70.83	     9.220
  22.400         73.33	     9.381
  22.420         70.00	     9.165
  22.440         73.33	     9.381
  22.460         50.00	     7.746
  22.480         58.33	     8.367
  22.500         70.00	     9.165
  22.520         52.50	     7.937
  22.540         57.50	     8.307
  22.560         62.50	     8.660
  22.580         75.00	     9.487
  22.600         76.67	     9.592
  22.620         77.50	     9.644
  22.640         66.67	     8.944
  22.660         68.33	     9.055
  22.680         55.00	     8.124
  22.700         60.83	     8.544
  22.720         47.50	     7.550
  22.740         47.50	     7.550
  22.760         52.50	     7.937
  22.780         48.33	     7.616
  22.800         50.00	     7.746
  22.820         55.83	     8.185
  22.840         61.67	     8.602
  22.860         65.83	     8.888
  22.880         61.67	     8.602
  22.900         66.67	     8.944
  22.920         95.83	    10.724
  22.940         91.67	    10.488
  22.960        105.83	    11.269
  22.980        104.17	    11.180
  23.000        128.33	    12.410
  23.020        116.67	    11.832
  23.040        126.67	    12.329
  23.060        125.83	    12.288
  23.080        120.83	    12.042
  23.100        112.50	    11.619
  23.120        121.67	    12.083
  23.140         91.67	    10.488
  23.160        112.50	    11.619
  23.180         96.67	    10.770
  23.200         89.17	    10.344
  23.220         69.17	     9.110
  23.240         69.17	     9.110
  23.260         70.83	     9.220
  23.280         52.50	     7.937
  23.300         58.33	     8.367
  23.320         50.83	     7.810
  23.340         57.50	     8.307
  23.360         58.33	     8.367
  23.380         50.00	     7.746
  23.400         42.50	     7.141
  23.420         53.33	     8.000
  23.440         58.33	     8.367
  23.460         58.33	     8.367
  23.480         50.83	     7.810
  23.500         62.50	     8.660
  23.520         56.67	     8.246
  23.540         51.67	     7.874
  23.560         79.17	     9.747
  23.580         92.50	    10.536
  23.600        113.33	    11.662
  23.620        146.67	    13.266
  23.640        158.33	    13.784
  23.660        182.50	    14.799
  23.680        173.33	    14.422
  23.700        149.17	    13.379
  23.720        126.67	    12.329
  23.740        108.33	    11.402
  23.760         92.50	    10.536
  23.780         82.50	     9.950
  23.800        100.83	    11.000
  23.820         90.83	    10.440
  23.840         82.50	     9.950
  23.860        100.83	    11.000
  23.880        115.00	    11.747
  23.900        113.33	    11.662
  23.920        115.83	    11.790
  23.940        127.50	    12.369
  23.960        115.83	    11.790
  23.980         99.17	    10.909
  24.000        115.00	    11.747
  24.020         74.17	     9.434
  24.040         80.00	     9.798
  24.060         70.00	     9.165
  24.080         72.50	     9.327
  24.100         71.67	     9.274
  24.120         82.50	     9.950
  24.140         80.00	     9.798
  24.160         93.33	    10.583
  24.180         59.17	     8.426
  24.200        110.00	    11.489
  24.220        190.00	    15.100
  24.240        147.50	    13.304
  24.260        136.67	    12.806
  24.280        156.67	    13.711
  24.300        171.67	    14.353
  24.320        134.17	    12.689
  24.340        129.17	    12.450
  24.360        128.33	    12.410
  24.380        167.50	    14.177
  24.400        140.83	    13.000
  24.420        169.17	    14.248
  24.440        146.67	    13.266
  24.460        126.67	    12.329
  24.480        112.50	    11.619
  24.500         92.50	    10.536
  24.520         90.00	    10.392
  24.540         84.17	    10.050
  24.560         67.50	     9.000
  24.580         80.83	     9.849
  24.600         78.33	     9.695
  24.620         88.33	    10.296
  24.640        104.17	    11.180
  24.660        115.83	    11.790
  24.680        138.33	    12.884
  24.700        169.17	    14.248
  24.720        174.17	    14.457
  24.740        165.83	    14.107
  24.760        187.50	    15.000
  24.780        181.67	    14.765
  24.800        159.17	    13.820
  24.820        175.00	    14.491
  24.840        169.17	    14.248
  24.860        130.00	    12.490
  24.880        125.00	    12.247
  24.900        109.17	    11.446
  24.920        122.50	    12.124
  24.940        118.33	    11.916
  24.960        133.33	    12.649
  24.980         99.17	    10.909
  25.000        121.67	    12.083
  25.020        110.83	    11.533
  25.040        124.17	    12.207
  25.060        119.17	    11.958
  25.080        120.83	    12.042
  25.100        112.50	    11.619
  25.120        130.83	    12.530
  25.140        154.17	    13.601
  25.160        171.67	    14.353
  25.180        211.67	    15.937
  25.200        266.67	    17.889
  25.220        350.00	    20.494
  25.240        436.67	    22.891
  25.260        452.50	    23.302
  25.280        480.00	    24.000
  25.300        405.00	    22.045
  25.320        332.50	    19.975
  25.340        295.83	    18.841
  25.360        234.17	    16.763
  25.380        187.50	    15.000
  25.400        149.17	    13.379
  25.420        120.00	    12.000
  25.440        120.83	    12.042
  25.460        140.00	    12.961
  25.480        131.67	    12.570
  25.500        155.83	    13.675
  25.520        185.83	    14.933
  25.540        175.00	    14.491
  25.560        175.83	    14.526
  25.580        204.17	    15.652
  25.600        223.33	    16.371
  25.620        272.50	    18.083
  25.640        207.50	    15.780
  25.660        207.50	    15.780
  25.680        222.50	    16.340
  25.700        175.83	    14.526
  25.720        143.33	    13.115
  25.740        145.00	    13.191
  25.760        147.50	    13.304
  25.780        140.83	    13.000
  25.800        135.00	    12.728
  25.820        125.00	    12.247
  25.840        124.17	    12.207
  25.860         81.67	     9.899
  25.880         84.17	    10.050
  25.900         74.17	     9.434
  25.920         72.50	     9.327
  25.940         86.67	    10.198
  25.960         73.33	     9.381
  25.980         77.50	     9.644
  26.000         77.50	     9.644
  26.020         65.83	     8.888
  26.040         74.17	     9.434
  26.060         72.50	     9.327
  26.080         73.33	     9.381
  26.100         69.17	     9.110
  26.120         70.83	     9.220
  26.140         70.00	     9.165
  26.160         86.67	    10.198
  26.180         74.17	     9.434
  26.200         83.33	    10.000
  26.220         85.83	    10.149
  26.240         97.50	    10.817
  26.260         90.00	    10.392
  26.280         97.50	    10.817
  26.300         91.67	    10.488
  26.320         97.50	    10.817
  26.340        111.67	    11.576
  26.360        105.83	    11.269
  26.380        113.33	    11.662
  26.400        130.00	    12.490
  26.420        135.00	    12.728
  26.440        149.17	    13.379
  26.460        145.83	    13.229
  26.480        175.83	    14.526
  26.500        206.67	    15.748
  26.520        200.00	    15.492
  26.540        201.67	    15.556
  26.560        207.50	    15.780
  26.580        227.50	    16.523
  26.600        245.83	    17.176
  26.620        220.83	    16.279
  26.640        295.83	    18.841
  26.660        405.83	    22.068
  26.680        560.83	    25.942
  26.700        931.67	    33.437
  26.720       1569.17	    43.394
  26.740       1978.33	    48.724
  26.760       1886.67	    47.582
  26.780       1642.50	    44.396
  26.800       1419.17	    41.267
  26.820       1185.00	    37.709
  26.840        944.17	    33.660
  26.860        784.17	    30.676
  26.880        728.33	    29.563
  26.900        839.17	    31.733
  26.920       1009.17	    34.799
  26.940       1200.00	    37.947
  26.960       1322.50	    39.837
  26.980       1350.83	    40.262
  27.000       1175.83	    37.563
  27.020       1015.83	    34.914
  27.040        918.33	    33.196
  27.060        642.50	    27.767
  27.080        505.83	    24.637
  27.100        394.17	    21.749
  27.120        312.50	    19.365
  27.140        226.67	    16.492
  27.160        184.17	    14.866
  27.180        175.00	    14.491
  27.200        145.00	    13.191
  27.220        138.33	    12.884
  27.240        136.67	    12.806
  27.260        104.17	    11.180
  27.280        107.50	    11.358
  27.300         92.50	    10.536
  27.320         98.33	    10.863
  27.340        114.17	    11.705
  27.360         80.00	     9.798
  27.380         90.83	    10.440
  27.400        101.67	    11.045
  27.420         89.17	    10.344
  27.440         90.00	    10.392
  27.460         87.50	    10.247
  27.480         95.00	    10.677
  27.500         90.83	    10.440
  27.520         92.50	    10.536
  27.540        114.17	    11.705
  27.560        129.17	    12.450
  27.580        137.50	    12.845
  27.600        158.33	    13.784
  27.620        160.00	    13.856
  27.640        178.33	    14.629
  27.660        170.00	    14.283
  27.680        123.33	    12.166
  27.700        126.67	    12.329
  27.720        125.00	    12.247
  27.740        139.17	    12.923
  27.760        150.83	    13.454
  27.780        162.50	    13.964
  27.800        217.50	    16.155
  27.820        271.67	    18.055
  27.840        460.00	    23.495
  27.860        376.67	    21.260
  27.880        345.00	    20.347
  27.900        394.17	    21.749
  27.920        403.33	    22.000
  27.940        400.00	    21.909
  27.960        445.00	    23.108
  27.980        630.83	    27.514
  28.000        676.67	    28.496
  28.020        775.83	    30.512
  28.040        610.83	    27.074
  28.060        580.00	    26.382
  28.080        563.33	    26.000
  28.100        465.00	    23.622
  28.120        350.83	    20.518
  28.140        259.17	    17.635
  28.160        225.00	    16.432
  28.180        227.50	    16.523
  28.200        238.33	    16.912
  28.220        185.83	    14.933
  28.240        175.83	    14.526
  28.260        185.83	    14.933
  28.280        190.83	    15.133
  28.300        164.17	    14.036
  28.320        157.50	    13.748
  28.340        150.83	    13.454
  28.360        125.83	    12.288
  28.380        140.83	    13.000
  28.400        117.50	    11.874
  28.420        122.50	    12.124
  28.440        121.67	    12.083
  28.460        105.83	    11.269
  28.480        110.00	    11.489
  28.500        103.33	    11.136
  28.520        121.67	    12.083
  28.540        100.83	    11.000
  28.560         89.17	    10.344
  28.580         90.83	    10.440
  28.600        112.50	    11.619
  28.620        157.50	    13.748
  28.640        206.67	    15.748
  28.660        222.50	    16.340
  28.680        210.00	    15.875
  28.700        161.67	    13.928
  28.720        181.67	    14.765
  28.740        196.67	    15.362
  28.760        129.17	    12.450
  28.780        110.83	    11.533
  28.800        110.00	    11.489
  28.820        102.50	    11.091
  28.840        103.33	    11.136
  28.860        110.00	    11.489
  28.880        105.00	    11.225
  28.900        132.50	    12.610
  28.920        123.33	    12.166
  28.940        107.50	    11.358
  28.960         89.17	    10.344
  28.980         78.33	     9.695
  29.000         90.00	    10.392
  29.020         58.33	     8.367
  29.040         59.17	     8.426
  29.060         60.00	     8.485
  29.080         47.50	     7.550
  29.100         51.67	     7.874
  29.120         38.33	     6.782
  29.140         48.33	     7.616
  29.160         37.50	     6.708
  29.180         50.00	     7.746
  29.200         50.83	     7.810
  29.220         50.00	     7.746
  29.240         49.17	     7.681
  29.260         67.50	     9.000
  29.280         65.83	     8.888
  29.300         57.50	     8.307
  29.320         49.17	     7.681
  29.340         41.67	     7.071
  29.360         45.00	     7.348
  29.380         54.17	     8.062
  29.400         50.83	     7.810
  29.420         50.83	     7.810
  29.440         38.33	     6.782
  29.460         55.83	     8.185
  29.480         46.67	     7.483
  29.500         43.33	     7.211
  29.520         47.50	     7.550
  29.540         39.17	     6.856
  29.560         47.50	     7.550
  29.580         44.17	     7.280
  29.600         51.67	     7.874
  29.620         50.83	     7.810
  29.640         55.83	     8.185
  29.660         45.00	     7.348
  29.680         64.17	     8.775
  29.700         56.67	     8.246
  29.720         46.67	     7.483
  29.740         43.33	     7.211
  29.760         63.33	     8.718
  29.780         59.17	     8.426
  29.800         69.17	     9.110
  29.820         68.33	     9.055
  29.840         72.50	     9.327
  29.860         90.83	    10.440
  29.880         89.17	    10.344
  29.900        130.00	    12.490
  29.920        113.33	    11.662
  29.940        173.33	    14.422
  29.960        159.17	    13.820
  29.980        187.50	    15.000
  30.000        191.67	    15.166
  30.020        191.67	    15.166
  30.040        194.17	    15.264
  30.060        185.83	    14.933
  30.080        165.00	    14.071
  30.100        134.17	    12.689
  30.120        135.00	    12.728
  30.140        114.17	    11.705
  30.160        105.83	    11.269
  30.180         85.00	    10.100
  30.200         98.33	    10.863
  30.220         78.33	     9.695
  30.240         72.50	     9.327
  30.260         94.17	    10.630
  30.280         85.83	    10.149
  30.300        112.50	    11.619
  30.320         94.17	    10.630
  30.340        104.17	    11.180
  30.360         85.83	    10.149
  30.380         85.00	    10.100
  30.400         82.50	     9.950
  30.420        100.83	    11.000
  30.440        115.83	    11.790
  30.460        166.67	    14.142
  30.480        155.83	    13.675
  30.500        145.83	    13.229
  30.520        123.33	    12.166
  30.540        152.50	    13.528
  30.560        159.17	    13.820
  30.580        153.33	    13.565
  30.600        143.33	    13.115
  30.620        115.83	    11.790
  30.640        109.17	    11.446
  30.660         97.50	    10.817
  30.680         95.83	    10.724
  30.700         87.50	    10.247
  30.720         83.33	    10.000
  30.740         60.00	     8.485
  30.760         61.67	     8.602
  30.780         51.67	     7.874
  30.800         71.67	     9.274
  30.820         60.00	     8.485
  30.840         77.50	     9.644
  30.860         64.17	     8.775
  30.880         80.00	     9.798
  30.900         88.33	    10.296
  30.920         84.17	    10.050
  30.940         92.50	    10.536
  30.960         95.83	    10.724
  30.980         85.83	    10.149
  31.000         80.00	     9.798
  31.020         71.67	     9.274
  31.040         75.00	     9.487
  31.060         82.50	     9.950
  31.080         75.00	     9.487
  31.100         68.33	     9.055
  31.120         65.00	     8.832
  31.140         56.67	     8.246
  31.160         77.50	     9.644
  31.180         91.67	    10.488
  31.200         96.67	    10.770
  31.220         87.50	    10.247
  31.240         95.83	    10.724
  31.260         85.00	    10.100
  31.280        112.50	    11.619
  31.300        136.67	    12.806
  31.320        157.50	    13.748
  31.340        187.50	    15.000
  31.360        164.17	    14.036
  31.380        179.17	    14.663
  31.400        173.33	    14.422
  31.420        154.17	    13.601
  31.440        126.67	    12.329
  31.460        135.00	    12.728
  31.480        115.00	    11.747
  31.500        107.50	    11.358
  31.520         98.33	    10.863
  31.540         82.50	     9.950
  31.560         84.17	    10.050
  31.580        107.50	    11.358
  31.600         78.33	     9.695
  31.620        105.83	    11.269
  31.640        115.00	    11.747
  31.660         98.33	    10.863
  31.680        121.67	    12.083
  31.700        115.83	    11.790
  31.720        108.33	    11.402
  31.740        114.17	    11.705
  31.760        102.50	    11.091
  31.780         75.00	     9.487
  31.800         95.00	    10.677
  31.820         80.00	     9.798
  31.840         86.67	    10.198
  31.860         70.00	     9.165
  31.880         75.83	     9.539
  31.900         55.00	     8.124
  31.920         81.67	     9.899
  31.940         75.00	     9.487
  31.960         75.00	     9.487
  31.980         65.00	     8.832
  32.000         64.17	     8.775
  32.020         75.00	     9.487
  32.040         65.00	     8.832
  32.060         85.00	    10.100
  32.080         76.67	     9.592
  32.100         81.67	     9.899
  32.120         95.83	    10.724
  32.140        105.00	    11.225
  32.160        103.33	    11.136
  32.180        105.00	    11.225
  32.200        127.50	    12.369
  32.220        112.50	    11.619
  32.240        110.00	    11.489
  32.260        106.67	    11.314
  32.280        104.17	    11.180
  32.300        131.67	    12.570
  32.320         82.50	     9.950
  32.340         78.33	     9.695
  32.360         84.17	    10.050
  32.380         70.83	     9.220
  32.400         59.17	     8.426
  32.420         66.67	     8.944
  32.440         68.33	     9.055
  32.460         59.17	     8.426
  32.480         54.17	     8.062
  32.500         44.17	     7.280
  32.520         43.33	     7.211
  32.540         39.17	     6.856
  32.560         37.50	     6.708
  32.580         53.33	     8.000
  32.600         33.33	     6.325
  32.620         49.17	     7.681
  32.640         40.83	     7.000
  32.660         34.17	     6.403
  32.680         38.33	     6.782
  32.700         33.33	     6.325
  32.720         40.00	     6.928
  32.740         40.00	     6.928
  32.760         40.00	     6.928
  32.780         52.50	     7.937
  32.800         40.00	     6.928
  32.820         54.17	     8.062
  32.840         36.67	     6.633
  32.860         47.50	     7.550
  32.880         34.17	     6.403
  32.900         48.33	     7.616
  32.920         36.67	     6.633
  32.940         30.00	     6.000
  32.960         45.00	     7.348
  32.980         46.67	     7.483
  33.000         48.33	     7.616
  33.020         45.00	     7.348
  33.040         48.33	     7.616
  33.060         50.00	     7.746
  33.080         35.83	     6.557
  33.100         48.33	     7.616
  33.120         57.50	     8.307
  33.140         60.00	     8.485
  33.160         59.17	     8.426
  33.180         70.00	     9.165
  33.200         47.50	     7.550
  33.220         50.83	     7.810
  33.240         52.50	     7.937
  33.260         49.17	     7.681
  33.280         39.17	     6.856
  33.300         45.00	     7.348
  33.320         37.50	     6.708
  33.340         35.83	     6.557
  33.360         33.33	     6.325
  33.380         41.67	     7.071
  33.400         51.67	     7.874
  33.420         60.83	     8.544
  33.440         53.33	     8.000
  33.460         56.67	     8.246
  33.480         50.00	     7.746
  33.500         57.50	     8.307
  33.520         56.67	     8.246
  33.540         65.00	     8.832
  33.560         57.50	     8.307
  33.580         47.50	     7.550
  33.600         45.00	     7.348
  33.620         52.50	     7.937
  33.640         45.00	     7.348
  33.660         56.67	     8.246
  33.680         55.00	     8.124
  33.700         48.33	     7.616
  33.720         40.00	     6.928
  33.740         40.00	     6.928
  33.760         44.17	     7.280
  33.780         45.83	     7.416
  33.800         38.33	     6.782
  33.820         45.83	     7.416
  33.840         42.50	     7.141
  33.860         39.17	     6.856
  33.880         46.67	     7.483
  33.900         30.83	     6.083
  33.920         55.00	     8.124
  33.940         48.33	     7.616
  33.960         55.83	     8.185
  33.980         55.00	     8.124
  34.000         53.33	     8.000
  34.020         48.33	     7.616
  34.040         66.67	     8.944
  34.060         63.33	     8.718
  34.080         66.67	     8.944
  34.100         52.50	     7.937
  34.120         55.83	     8.185
  34.140         77.50	     9.644
  34.160         47.50	     7.550
  34.180         63.33	     8.718
  34.200         40.00	     6.928
  34.220         61.67	     8.602
  34.240         63.33	     8.718
  34.260         54.17	     8.062
  34.280         58.33	     8.367
  34.300         43.33	     7.211
  34.320         55.00	     8.124
  34.340         60.00	     8.485
  34.360         51.67	     7.874
  34.380         65.00	     8.832
  34.400         57.50	     8.307
  34.420         58.33	     8.367
  34.440         78.33	     9.695
  34.460         87.50	    10.247
  34.480         80.00	     9.798
  34.500         81.67	     9.899
  34.520         83.33	    10.000
  34.540        104.17	    11.180
  34.560        107.50	    11.358
  34.580        122.50	    12.124
  34.600        113.33	    11.662
  34.620        127.50	    12.369
  34.640        115.83	    11.790
  34.660        122.50	    12.124
  34.680        120.00	    12.000
  34.700        101.67	    11.045
  34.720        107.50	    11.358
  34.740        100.00	    10.954
  34.760        104.17	    11.180
  34.780         88.33	    10.296
  34.800         85.83	    10.149
  34.820         83.33	    10.000
  34.840         85.83	    10.149
  34.860         70.83	     9.220
  34.880         80.83	     9.849
  34.900         80.83	     9.849
  34.920         80.83	     9.849
  34.940         92.50	    10.536
  34.960        100.00	    10.954
  34.980        135.83	    12.767
  35.000        138.33	    12.884
  35.020        131.67	    12.570
  35.040        161.67	    13.928
  35.060        179.17	    14.663
  35.080        168.33	    14.213
  35.100        163.33	    14.000
  35.120        160.00	    13.856
  35.140        161.67	    13.928
  35.160        150.83	    13.454
  35.180        117.50	    11.874
  35.200        116.67	    11.832
  35.220        105.00	    11.225
  35.240        111.67	    11.576
  35.260        105.83	    11.269
  35.280        108.33	    11.402
  35.300         69.17	     9.110
  35.320         74.17	     9.434
  35.340         68.33	     9.055
  35.360         75.00	     9.487
  35.380         66.67	     8.944
  35.400         57.50	     8.307
  35.420         80.83	     9.849
  35.440         70.00	     9.165
  35.460         90.00	    10.392
  35.480         99.17	    10.909
  35.500        105.00	    11.225
  35.520        100.00	    10.954
  35.540         85.83	    10.149
  35.560         80.00	     9.798
  35.580         85.00	    10.100
  35.600         99.17	    10.909
  35.620        106.67	    11.314
  35.640         85.00	    10.100
  35.660         68.33	     9.055
  35.680         55.00	     8.124
  35.700         57.50	     8.307
  35.720         74.17	     9.434
  35.740         76.67	     9.592
  35.760        130.83	    12.530
  35.780        125.83	    12.288
  35.800         84.17	    10.050
  35.820         75.00	     9.487
  35.840         78.33	     9.695
  35.860         99.17	    10.909
  35.880         93.33	    10.583
  35.900         72.50	     9.327
  35.920         76.67	     9.592
  35.940         69.17	     9.110
  35.960         73.33	     9.381
  35.980         65.83	     8.888
  36.000         78.33	     9.695
  36.020         70.00	     9.165
  36.040         83.33	    10.000
  36.060         92.50	    10.536
  36.080         91.67	    10.488
  36.100         75.83	     9.539
  36.120        103.33	    11.136
  36.140        101.67	    11.045
  36.160        120.00	    12.000
  36.180        143.33	    13.115
  36.200        135.00	    12.728
  36.220        118.33	    11.916
  36.240        100.00	    10.954
  36.260        110.00	    11.489
  36.280         88.33	    10.296
  36.300        115.83	    11.790
  36.320         90.83	    10.440
  36.340         87.50	    10.247
  36.360         64.17	     8.775
  36.380         70.00	     9.165
  36.400         54.17	     8.062
  36.420         55.00	     8.124
  36.440         56.67	     8.246
  36.460         43.33	     7.211
  36.480         56.67	     8.246
  36.500         83.33	    10.000
  36.520         78.33	     9.695
  36.540         73.33	     9.381
  36.560        101.67	    11.045
  36.580        101.67	    11.045
  36.600        115.00	    11.747
  36.620        116.67	    11.832
  36.640        135.00	    12.728
  36.660        172.50	    14.387
  36.680        135.00	    12.728
  36.700        133.33	    12.649
  36.720        110.83	    11.533
  36.740        127.50	    12.369
  36.760        121.67	    12.083
  36.780        109.17	    11.446
  36.800         90.83	    10.440
  36.820         99.17	    10.909
  36.840         98.33	    10.863
  36.860        100.83	    11.000
  36.880         95.00	    10.677
  36.900         67.50	     9.000
  36.920         84.17	    10.050
  36.940         68.33	     9.055
  36.960         79.17	     9.747
  36.980         65.83	     8.888
  37.000         66.67	     8.944
  37.020         45.00	     7.348
  37.040         54.17	     8.062
  37.060         47.50	     7.550
  37.080         56.67	     8.246
  37.100         55.00	     8.124
  37.120         35.83	     6.557
  37.140         57.50	     8.307
  37.160         53.33	     8.000
  37.180         45.00	     7.348
  37.200         45.00	     7.348
  37.220         53.33	     8.000
  37.240         44.17	     7.280
  37.260         50.83	     7.810
  37.280         61.67	     8.602
  37.300         54.17	     8.062
  37.320         59.17	     8.426
  37.340         71.67	     9.274
  37.360         54.17	     8.062
  37.380         65.00	     8.832
  37.400         70.00	     9.165
  37.420         77.50	     9.644
  37.440         97.50	    10.817
  37.460        110.00	    11.489
  37.480        110.00	    11.489
  37.500         94.17	    10.630
  37.520        110.00	    11.489
  37.540        100.00	    10.954
  37.560        104.17	    11.180
  37.580         88.33	    10.296
  37.600         96.67	    10.770
  37.620        108.33	    11.402
  37.640        113.33	    11.662
  37.660         87.50	    10.247
  37.680        105.83	    11.269
  37.700        104.17	    11.180
  37.720        122.50	    12.124
  37.740        117.50	    11.874
  37.760        105.83	    11.269
  37.780         94.17	    10.630
  37.800        105.00	    11.225
  37.820        108.33	    11.402
  37.840         92.50	    10.536
  37.860        103.33	    11.136
  37.880         96.67	    10.770
  37.900         87.50	    10.247
  37.920         70.83	     9.220
  37.940         78.33	     9.695
  37.960         85.83	    10.149
  37.980         83.33	    10.000
  38.000        110.83	    11.533
  38.020        109.17	    11.446
  38.040        100.00	    10.954
  38.060        116.67	    11.832
  38.080        135.83	    12.767
  38.100        163.33	    14.000
  38.120        200.00	    15.492
  38.140        299.17	    18.947
  38.160        556.67	    25.846
  38.180        943.33	    33.645
  38.200       1524.17	    42.767
  38.220       1554.17	    43.186
  38.240       1281.67	    39.217
  38.260        808.33	    31.145
  38.280        770.00	    30.397
  38.300        861.67	    32.156
  38.320        911.67	    33.076
  38.340        612.50	    27.111
  38.360        365.83	    20.952
  38.380        222.50	    16.340
  38.400        144.17	    13.153
  38.420        111.67	    11.576
  38.440         86.67	    10.198
  38.460         57.50	     8.307
  38.480         73.33	     9.381
  38.500         53.33	     8.000
  38.520         71.67	     9.274
  38.540         61.67	     8.602
  38.560         50.00	     7.746
  38.580         61.67	     8.602
  38.600         60.83	     8.544
  38.620         53.33	     8.000
  38.640         51.67	     7.874
  38.660         59.17	     8.426
  38.680         58.33	     8.367
  38.700         51.67	     7.874
  38.720         56.67	     8.246
  38.740         42.50	     7.141
  38.760         44.17	     7.280
  38.780         50.00	     7.746
  38.800         47.50	     7.550
  38.820         46.67	     7.483
  38.840         48.33	     7.616
  38.860         44.17	     7.280
  38.880         50.83	     7.810
  38.900         56.67	     8.246
  38.920         60.00	     8.485
  38.940         61.67	     8.602
  38.960         50.83	     7.810
  38.980         57.50	     8.307
  39.000         42.50	     7.141
  39.020         45.00	     7.348
  39.040         48.33	     7.616
  39.060         40.83	     7.000
  39.080         43.33	     7.211
  39.100         38.33	     6.782
  39.120         33.33	     6.325
  39.140         43.33	     7.211
  39.160         42.50	     7.141
  39.180         40.83	     7.000
  39.200         42.50	     7.141
  39.220         45.00	     7.348
  39.240         39.17	     6.856
  39.260         45.00	     7.348
  39.280         36.67	     6.633
  39.300         48.33	     7.616
  39.320         44.17	     7.280
  39.340         37.50	     6.708
  39.360         36.67	     6.633
  39.380         41.67	     7.071
  39.400         42.50	     7.141
  39.420         50.00	     7.746
  39.440         50.00	     7.746
  39.460         42.50	     7.141
  39.480         50.00	     7.746
  39.500         42.50	     7.141
  39.520         70.83	     9.220
  39.540        100.00	    10.954
  39.560        132.50	    12.610
  39.580        150.83	    13.454
  39.600        112.50	    11.619
  39.620         95.00	    10.677
  39.640         84.17	    10.050
  39.660        107.50	    11.358
  39.680        113.33	    11.662
  39.700         73.33	     9.381
  39.720         67.50	     9.000
  39.740         45.00	     7.348
  39.760         55.83	     8.185
  39.780         63.33	     8.718
  39.800         54.17	     8.062
  39.820         65.00	     8.832
  39.840         56.67	     8.246
  39.860         56.67	     8.246
  39.880         56.67	     8.246
  39.900         45.00	     7.348
  39.920         65.83	     8.888
  39.940         60.83	     8.544
  39.960         53.33	     8.000
  39.980         59.17	     8.426
  40.000         48.33	     7.616
  40.020         50.83	     7.810
  40.040         53.33	     8.000
  40.060         58.33	     8.367
  40.080         40.00	     6.928
  40.100         50.83	     7.810
  40.120         37.50	     6.708
  40.140         49.17	     7.681
  40.160         39.17	     6.856
  40.180         39.17	     6.856
  40.200         34.17	     6.403
  40.220         42.50	     7.141
  40.240         39.17	     6.856
  40.260         43.33	     7.211
  40.280         44.17	     7.280
  40.300         45.83	     7.416
  40.320         52.50	     7.937
  40.340         43.33	     7.211
  40.360         61.67	     8.602
  40.380         60.83	     8.544
  40.400         86.67	    10.198
  40.420         85.83	    10.149
  40.440         63.33	     8.718
  40.460         61.67	     8.602
  40.480         59.17	     8.426
  40.500         63.33	     8.718
  40.520         55.83	     8.185
  40.540         58.33	     8.367
  40.560         32.50	     6.245
  40.580         37.50	     6.708
  40.600         32.50	     6.245
  40.620         32.50	     6.245
  40.640         40.00	     6.928
  40.660         25.83	     5.568
  40.680         43.33	     7.211
  40.700         29.17	     5.916
  40.720         49.17	     7.681
  40.740         39.17	     6.856
  40.760         35.83	     6.557
  40.780         29.17	     5.916
  40.800         33.33	     6.325
  40.820         37.50	     6.708
  40.840         45.00	     7.348
  40.860         35.83	     6.557
  40.880         39.17	     6.856
  40.900         45.00	     7.348
  40.920         25.83	     5.568
  40.940         38.33	     6.782
  40.960         35.83	     6.557
  40.980         38.33	     6.782
  41.000         25.00	     5.477
  41.020         33.33	     6.325
  41.040         27.50	     5.745
  41.060         40.00	     6.928
  41.080         40.83	     7.000
  41.100         28.33	     5.831
  41.120         32.50	     6.245
  41.140         30.83	     6.083
  41.160         43.33	     7.211
  41.180         38.33	     6.782
  41.200         37.50	     6.708
  41.220         45.83	     7.416
  41.240         40.00	     6.928
  41.260         50.00	     7.746
  41.280         40.00	     6.928
  41.300         38.33	     6.782
  41.320         40.00	     6.928
  41.340         35.83	     6.557
  41.360         35.00	     6.481
  41.380         53.33	     8.000
  41.400         49.17	     7.681
  41.420         58.33	     8.367
  41.440         45.83	     7.416
  41.460         41.67	     7.071
  41.480         39.17	     6.856
  41.500         44.17	     7.280
  41.520         34.17	     6.403
  41.540         39.17	     6.856
  41.560         37.50	     6.708
  41.580         48.33	     7.616
  41.600         36.67	     6.633
  41.620         52.50	     7.937
  41.640         43.33	     7.211
  41.660         34.17	     6.403
  41.680         46.67	     7.483
  41.700         45.83	     7.416
  41.720         43.33	     7.211
  41.740         51.67	     7.874
  41.760         57.50	     8.307
  41.780         43.33	     7.211
  41.800         50.00	     7.746
  41.820         45.00	     7.348
  41.840         60.00	     8.485
  41.860         51.67	     7.874
  41.880         64.17	     8.775
  41.900         48.33	     7.616
  41.920         50.83	     7.810
  41.940         54.17	     8.062
  41.960         53.33	     8.000
  41.980         47.50	     7.550
  42.000         60.00	     8.485
  42.020         55.00	     8.124
  42.040         55.83	     8.185
  42.060         56.67	     8.246
  42.080         55.83	     8.185
  42.100         50.83	     7.810
  42.120         50.83	     7.810
  42.140         58.33	     8.367
  42.160         45.83	     7.416
  42.180         65.83	     8.888
  42.200         65.83	     8.888
  42.220         42.50	     7.141
  42.240         48.33	     7.616
  42.260         50.83	     7.810
  42.280         59.17	     8.426
  42.300         56.67	     8.246
  42.320         50.00	     7.746
  42.340         58.33	     8.367
  42.360         61.67	     8.602
  42.380         78.33	     9.695
  42.400         86.67	    10.198
  42.420         70.00	     9.165
  42.440         97.50	    10.817
  42.460         85.83	    10.149
  42.480        100.83	    11.000
  42.500        124.17	    12.207
  42.520        173.33	    14.422
  42.540        235.00	    16.793
  42.560        241.67	    17.029
  42.580        197.50	    15.395
  42.600        142.50	    13.077
  42.620        122.50	    12.124
  42.640        136.67	    12.806
  42.660        150.00	    13.416
  42.680        130.83	    12.530
  42.700        109.17	    11.446
  42.720         70.83	     9.220
  42.740         59.17	     8.426
  42.760         67.50	     9.000
  42.780         55.00	     8.124
  42.800         50.83	     7.810
  42.820         41.67	     7.071
  42.840         52.50	     7.937
  42.860         43.33	     7.211
  42.880         42.50	     7.141
  42.900         46.67	     7.483
  42.920         40.00	     6.928
  42.940         46.67	     7.483
  42.960         40.83	     7.000
  42.980         45.00	     7.348
  43.000         49.17	     7.681
  43.020         47.50	     7.550
  43.040         29.17	     5.916
  43.060         32.50	     6.245
  43.080         45.00	     7.348
  43.100         33.33	     6.325
  43.120         38.33	     6.782
  43.140         41.67	     7.071
  43.160         30.00	     6.000
  43.180         40.00	     6.928
  43.200         29.17	     5.916
  43.220         32.50	     6.245
  43.240         44.17	     7.280
  43.260         35.83	     6.557
  43.280         37.50	     6.708
  43.300         39.17	     6.856
  43.320         37.50	     6.708
  43.340         25.83	     5.568
  43.360         33.33	     6.325
  43.380         35.00	     6.481
  43.400         33.33	     6.325
  43.420         40.83	     7.000
  43.440         40.83	     7.000
  43.460         33.33	     6.325
  43.480         39.17	     6.856
  43.500         35.00	     6.481
  43.520         35.83	     6.557
  43.540         39.17	     6.856
  43.560         47.50	     7.550
  43.580         37.50	     6.708
  43.600         38.33	     6.782
  43.620         52.50	     7.937
  43.640         33.33	     6.325
  43.660         45.83	     7.416
  43.680         40.83	     7.000
  43.700         37.50	     6.708
  43.720         52.50	     7.937
  43.740         42.50	     7.141
  43.760         47.50	     7.550
  43.780         49.17	     7.681
  43.800         34.17	     6.403
  43.820         43.33	     7.211
  43.840         43.33	     7.211
  43.860         36.67	     6.633
  43.880         46.67	     7.483
  43.900         45.00	     7.348
  43.920         50.83	     7.810
  43.940         48.33	     7.616
  43.960         44.17	     7.280
  43.980         41.67	     7.071
  44.000         33.33	     6.325
  44.020         44.17	     7.280
  44.040         50.83	     7.810
  44.060         50.00	     7.746
  44.080         50.00	     7.746
  44.100         48.33	     7.616
  44.120         55.83	     8.185
  44.140         59.17	     8.426
  44.160         55.83	     8.185
  44.180         65.00	     8.832
  44.200         64.17	     8.775
  44.220         71.67	     9.274
  44.240         71.67	     9.274
  44.260         95.83	    10.724
  44.280        106.67	    11.314
  44.300        139.17	    12.923
  44.320        181.67	    14.765
  44.340        267.50	    17.916
  44.360        487.50	    24.187
  44.380        698.33	    28.948
  44.400        790.83	    30.806
  44.420        610.83	    27.074
  44.440        444.17	    23.087
  44.460        318.33	    19.545
  44.480        360.83	    20.809
  44.500        419.17	    22.428
  44.520        397.50	    21.840
  44.540        333.33	    20.000
  44.560        217.50	    16.155
  44.580        165.00	    14.071
  44.600        124.17	    12.207
  44.620         90.83	    10.440
  44.640         81.67	     9.899
  44.660         74.17	     9.434
  44.680         76.67	     9.592
  44.700         66.67	     8.944
  44.720         64.17	     8.775
  44.740         59.17	     8.426
  44.760         57.50	     8.307
  44.780         47.50	     7.550
  44.800         51.67	     7.874
  44.820         60.83	     8.544
  44.840         48.33	     7.616
  44.860         50.83	     7.810
  44.880         44.17	     7.280
  44.900         60.00	     8.485
  44.920         60.00	     8.485
  44.940         60.00	     8.485
  44.960         73.33	     9.381
  44.980         66.67	     8.944
  45.000         67.50	     9.000
  45.020         60.00	     8.485
  45.040         84.17	    10.050
  45.060         54.17	     8.062
  45.080         60.00	     8.485
  45.100         70.83	     9.220
  45.120         60.00	     8.485
  45.140         69.17	     9.110
  45.160         73.33	     9.381
  45.180         70.83	     9.220
  45.200         66.67	     8.944
  45.220         88.33	    10.296
  45.240         66.67	     8.944
  45.260         84.17	    10.050
  45.280         73.33	     9.381
  45.300         70.83	     9.220
  45.320         73.33	     9.381
  45.340         65.83	     8.888
  45.360         73.33	     9.381
  45.380         82.50	     9.950
  45.400         85.00	    10.100
  45.420         90.00	    10.392
  45.440        100.83	    11.000
  45.460        130.83	    12.530
  45.480        130.83	    12.530
  45.500        162.50	    13.964
  45.520        177.50	    14.595
  45.540        180.00	    14.697
  45.560        226.67	    16.492
  45.580        273.33	    18.111
  45.600        323.33	    19.698
  45.620        374.17	    21.190
  45.640        450.00	    23.238
  45.660        473.33	    23.833
  45.680        462.50	    23.558
  45.700        380.00	    21.354
  45.720        412.50	    22.249
  45.740        377.50	    21.284
  45.760        360.00	    20.785
  45.780        325.00	    19.748
  45.800        275.83	    18.193
  45.820        228.33	    16.553
  45.840        210.83	    15.906
  45.860        182.50	    14.799
  45.880        162.50	    13.964
  45.900        167.50	    14.177
  45.920        136.67	    12.806
  45.940        105.00	    11.225
  45.960         89.17	    10.344
  45.980         88.33	    10.296
  46.000         86.67	    10.198
  46.020         90.83	    10.440
  46.040         77.50	     9.644
  46.060         78.33	     9.695
  46.080         72.50	     9.327
  46.100         60.00	     8.485
  46.120         50.83	     7.810
  46.140         56.67	     8.246
  46.160         70.00	     9.165
  46.180         50.83	     7.810
  46.200         63.33	     8.718
  46.220         55.83	     8.185
  46.240         60.00	     8.485
  46.260         43.33	     7.211
  46.280         43.33	     7.211
  46.300         46.67	     7.483
  46.320         50.00	     7.746
  46.340         51.67	     7.874
  46.360         45.83	     7.416
  46.380         49.17	     7.681
  46.400         38.33	     6.782
  46.420         35.00	     6.481
  46.440         42.50	     7.141
  46.460         40.83	     7.000
  46.480         34.17	     6.403
  46.500         25.83	     5.568
  46.520         30.00	     6.000
  46.540         27.50	     5.745
  46.560         22.50	     5.196
  46.580         27.50	     5.745
  46.600         36.67	     6.633
  46.620         41.67	     7.071
  46.640         45.00	     7.348
  46.660         34.17	     6.403
  46.680         36.67	     6.633
  46.700         38.33	     6.782
  46.720         45.83	     7.416
  46.740         45.83	     7.416
  46.760         34.17	     6.403
  46.780         35.00	     6.481
  46.800         40.83	     7.000
  46.820         31.67	     6.164
  46.840         36.67	     6.633
  46.860         35.83	     6.557
  46.880         43.33	     7.211
  46.900         26.67	     5.657
  46.920         31.67	     6.164
  46.940         40.83	     7.000
  46.960         26.67	     5.657
  46.980         26.67	     5.657
  47.000         25.83	     5.568
  47.020         28.33	     5.831
  47.040         43.33	     7.211
  47.060         29.17	     5.916
  47.080         25.83	     5.568
  47.100         40.83	     7.000
  47.120         33.33	     6.325
  47.140         28.33	     5.831
  47.160         40.00	     6.928
  47.180         54.17	     8.062
  47.200         48.33	     7.616
  47.220         36.67	     6.633
  47.240         51.67	     7.874
  47.260         52.50	     7.937
  47.280         36.67	     6.633
  47.300         39.17	     6.856
  47.320         50.00	     7.746
  47.340         40.83	     7.000
  47.360         43.33	     7.211
  47.380         32.50	     6.245
  47.400         35.83	     6.557
  47.420         39.17	     6.856
  47.440         27.50	     5.745
  47.460         25.83	     5.568
  47.480         30.83	     6.083
  47.500         28.33	     5.831
  47.520         22.50	     5.196
  47.540         27.50	     5.745
  47.560         30.83	     6.083
  47.580         26.67	     5.657
  47.600         26.67	     5.657
  47.620         35.83	     6.557
  47.640         25.00	     5.477
  47.660         34.17	     6.403
  47.680         30.83	     6.083
  47.700         29.17	     5.916
  47.720         37.50	     6.708
  47.740         21.67	     5.099
  47.760         30.83	     6.083
  47.780         20.00	     4.899
  47.800         25.83	     5.568
  47.820         20.83	     5.000
  47.840         27.50	     5.745
  47.860         25.00	     5.477
  47.880         23.33	     5.292
  47.900         20.83	     5.000
  47.920         22.50	     5.196
  47.940         25.00	     5.477
  47.960         29.17	     5.916
  47.980         32.50	     6.245
  48.000         37.50	     6.708
  48.020         29.17	     5.916
  48.040         33.33	     6.325
  48.060         35.00	     6.481
  48.080         38.33	     6.782
  48.100         27.50	     5.745
  48.120         33.33	     6.325
  48.140         36.67	     6.633
  48.160         31.67	     6.164
  48.180         44.17	     7.280
  48.200         42.50	     7.141
  48.220         47.50	     7.550
  48.240         52.50	     7.937
  48.260         45.83	     7.416
  48.280         63.33	     8.718
  48.300         45.00	     7.348
  48.320         45.83	     7.416
  48.340         53.33	     8.000
  48.360         55.00	     8.124
  48.380         36.67	     6.633
  48.400         52.50	     7.937
  48.420         47.50	     7.550
  48.440         39.17	     6.856
  48.460         49.17	     7.681
  48.480         49.17	     7.681
  48.500         43.33	     7.211
  48.520         31.67	     6.164
  48.540         41.67	     7.071
  48.560         33.33	     6.325
  48.580         30.83	     6.083
  48.600         38.33	     6.782
  48.620         26.67	     5.657
  48.640         38.33	     6.782
  48.660         38.33	     6.782
  48.680         31.67	     6.164
  48.700         38.33	     6.782
  48.720         39.17	     6.856
  48.740         37.50	     6.708
  48.760         41.67	     7.071
  48.780         53.33	     8.000
  48.800         66.67	     8.944
  48.820         80.00	     9.798
  48.840        104.17	    11.180
  48.860         69.17	     9.110
  48.880         71.67	     9.274
  48.900         41.67	     7.071
  48.920         40.00	     6.928
  48.940         57.50	     8.307
  48.960         70.00	     9.165
  48.980         65.00	     8.832
  49.000         46.67	     7.483
  49.020         35.00	     6.481
  49.040         26.67	     5.657
  49.060         20.00	     4.899
  49.080         28.33	     5.831
  49.100         30.00	     6.000
  49.120         22.50	     5.196
  49.140         37.50	     6.708
  49.160         23.33	     5.292
  49.180         27.50	     5.745
  49.200         30.00	     6.000
  49.220         26.67	     5.657
  49.240         24.17	     5.385
  49.260         30.00	     6.000
  49.280         31.67	     6.164
  49.300         44.17	     7.280
  49.320         40.83	     7.000
  49.340         50.00	     7.746
  49.360         32.50	     6.245
  49.380         32.50	     6.245
  49.400         43.33	     7.211
  49.420         36.67	     6.633
  49.440         46.67	     7.483
  49.460         35.83	     6.557
  49.480         35.00	     6.481
  49.500         27.50	     5.745
  49.520         36.67	     6.633
  49.540         26.67	     5.657
  49.560         33.33	     6.325
  49.580         32.50	     6.245
  49.600         28.33	     5.831
  49.620         40.83	     7.000
  49.640         50.83	     7.810
  49.660         51.67	     7.874
  49.680         40.83	     7.000
  49.700         35.83	     6.557
  49.720         32.50	     6.245
  49.740         31.67	     6.164
  49.760         37.50	     6.708
  49.780         47.50	     7.550
  49.800         46.67	     7.483
  49.820         49.17	     7.681
  49.840         27.50	     5.745
  49.860         35.83	     6.557
  49.880         42.50	     7.141
  49.900         37.50	     6.708
  49.920         55.83	     8.185
  49.940         45.00	     7.348
  49.960         53.33	     8.000
  49.980         40.83	     7.000
  50.000         55.00	     8.124
  50.020         59.17	     8.426
  50.040         59.17	     8.426
  50.060         71.67	     9.274
  50.080         62.50	     8.660
  50.100         55.83	     8.185
  50.120         62.50	     8.660
  50.140         60.00	     8.485
  50.160         69.17	     9.110
  50.180        103.33	    11.136
  50.200        136.67	    12.806
  50.220        194.17	    15.264
  50.240        240.00	    16.971
  50.260        198.33	    15.427
  50.280        135.00	    12.728
  50.300        102.50	    11.091
  50.320         94.17	    10.630
  50.340        101.67	    11.045
  50.360        128.33	    12.410
  50.380        123.33	    12.166
  50.400        114.17	    11.705
  50.420         92.50	    10.536
  50.440         47.50	     7.550
  50.460         42.50	     7.141
  50.480         45.83	     7.416
  50.500         35.83	     6.557
  50.520         30.00	     6.000
  50.540         37.50	     6.708
  50.560         41.67	     7.071
  50.580         34.17	     6.403
  50.600         40.83	     7.000
  50.620         33.33	     6.325
  50.640         45.83	     7.416
  50.660         53.33	     8.000
  50.680         48.33	     7.616
  50.700         55.83	     8.185
  50.720         41.67	     7.071
  50.740         46.67	     7.483
  50.760         36.67	     6.633
  50.780         44.17	     7.280
  50.800         40.83	     7.000
  50.820         45.00	     7.348
  50.840         51.67	     7.874
  50.860         34.17	     6.403
  50.880         43.33	     7.211
  50.900         38.33	     6.782
  50.920         32.50	     6.245
  50.940         39.17	     6.856
  50.960         39.17	     6.856
  50.980         26.67	     5.657
  51.000         30.83	     6.083
  51.020         42.50	     7.141
  51.040         26.67	     5.657
  51.060         29.17	     5.916
  51.080         25.00	     5.477
  51.100         26.67	     5.657
  51.120         25.00	     5.477
  51.140         32.50	     6.245
  51.160         26.67	     5.657
  51.180         29.17	     5.916
  51.200         40.83	     7.000
  51.220         37.50	     6.708
  51.240         57.50	     8.307
  51.260         65.00	     8.832
  51.280         38.33	     6.782
  51.300         36.67	     6.633
  51.320         35.00	     6.481
  51.340         40.00	     6.928
  51.360         40.00	     6.928
  51.380         55.00	     8.124
  51.400         40.00	     6.928
  51.420         31.67	     6.164
  51.440         34.17	     6.403
  51.460         27.50	     5.745
  51.480         36.67	     6.633
  51.500         31.67	     6.164
  51.520         30.83	     6.083
  51.540         26.67	     5.657
  51.560         35.00	     6.481
  51.580         31.67	     6.164
  51.600         24.17	     5.385
  51.620         24.17	     5.385
  51.640         27.50	     5.745
  51.660         26.67	     5.657
  51.680         28.33	     5.831
  51.700         31.67	     6.164
  51.720         25.83	     5.568
  51.740         25.83	     5.568
  51.760         21.67	     5.099
  51.780         26.67	     5.657
  51.800         23.33	     5.292
  51.820         28.33	     5.831
  51.840         21.67	     5.099
  51.860         30.00	     6.000
  51.880         30.00	     6.000
  51.900         17.50	     4.583
  51.920         18.33	     4.690
  51.940         25.00	     5.477
  51.960         30.00	     6.000
  51.980         20.83	     5.000
  52.000         22.50	     5.196
  52.020         24.17	     5.385
  52.040         27.50	     5.745
  52.060         19.17	     4.796
  52.080         25.00	     5.477
  52.100         26.67	     5.657
  52.120         19.17	     4.796
  52.140         25.83	     5.568
  52.160         23.33	     5.292
  52.180         28.33	     5.831
  52.200         35.83	     6.557
  52.220         26.67	     5.657
  52.240         29.17	     5.916
  52.260         29.17	     5.916
  52.280         35.83	     6.557
  52.300         33.33	     6.325
  52.320         35.00	     6.481
  52.340         35.00	     6.481
  52.360         36.67	     6.633
  52.380         41.67	     7.071
  52.400         35.00	     6.481
  52.420         33.33	     6.325
  52.440         34.17	     6.403
  52.460         38.33	     6.782
  52.480         27.50	     5.745
  52.500         32.50	     6.245
  52.520         28.33	     5.831
  52.540         26.67	     5.657
  52.560         35.00	     6.481
  52.580         29.17	     5.916
  52.600         32.50	     6.245
  52.620         43.33	     7.211
  52.640         37.50	     6.708
  52.660         38.33	     6.782
  52.680         36.67	     6.633
  52.700         29.17	     5.916
  52.720         26.67	     5.657
  52.740         30.00	     6.000
  52.760         26.67	     5.657
  52.780         46.67	     7.483
  52.800         31.67	     6.164
  52.820         31.67	     6.164
  52.840         34.17	     6.403
  52.860         22.50	     5.196
  52.880         27.50	     5.745
  52.900         37.50	     6.708
  52.920         33.33	     6.325
  52.940         55.00	     8.124
  52.960         38.33	     6.782
  52.980         45.83	     7.416
  53.000         43.33	     7.211
  53.020         38.33	     6.782
  53.040         35.83	     6.557
  53.060         31.67	     6.164
  53.080         40.00	     6.928
  53.100         34.17	     6.403
  53.120         41.67	     7.071
  53.140         36.67	     6.633
  53.160         50.00	     7.746
  53.180         43.33	     7.211
  53.200         48.33	     7.616
  53.220         35.00	     6.481
  53.240         36.67	     6.633
  53.260         38.33	     6.782
  53.280         44.17	     7.280
  53.300         50.00	     7.746
  53.320         39.17	     6.856
  53.340         40.00	     6.928
  53.360         38.33	     6.782
  53.380         34.17	     6.403
  53.400         45.83	     7.416
  53.420         31.67	     6.164
  53.440         45.00	     7.348
  53.460         30.00	     6.000
  53.480         38.33	     6.782
  53.500         41.67	     7.071
  53.520         25.00	     5.477
  53.540         35.83	     6.557
  53.560         32.50	     6.245
  53.580         35.83	     6.557
  53.600         37.50	     6.708
  53.620         31.67	     6.164
  53.640         23.33	     5.292
  53.660         31.67	     6.164
  53.680         26.67	     5.657
  53.700         30.00	     6.000
  53.720         37.50	     6.708
  53.740         30.00	     6.000
  53.760         28.33	     5.831
  53.780         32.50	     6.245
  53.800         19.17	     4.796
  53.820         26.67	     5.657
  53.840         25.83	     5.568
  53.860         28.33	     5.831
  53.880         28.33	     5.831
  53.900         24.17	     5.385
  53.920         38.33	     6.782
  53.940         20.83	     5.000
  53.960         34.17	     6.403
  53.980         37.50	     6.708
  54.000         35.83	     6.557
  54.020         30.83	     6.083
  54.040         37.50	     6.708
  54.060         30.00	     6.000
  54.080         23.33	     5.292
  54.100         32.50	     6.245
  54.120         35.00	     6.481
  54.140         25.83	     5.568
  54.160         32.50	     6.245
  54.180         39.17	     6.856
  54.200         30.00	     6.000
  54.220         28.33	     5.831
  54.240         26.67	     5.657
  54.260         38.33	     6.782
  54.280         32.50	     6.245
  54.300         15.83	     4.359
  54.320         29.17	     5.916
  54.340         33.33	     6.325
  54.360         36.67	     6.633
  54.380         28.33	     5.831
  54.400         33.33	     6.325
  54.420         41.67	     7.071
  54.440         31.67	     6.164
  54.460         48.33	     7.616
  54.480         43.33	     7.211
  54.500         43.33	     7.211
  54.520         41.67	     7.071
  54.540         40.83	     7.000
  54.560         36.67	     6.633
  54.580         32.50	     6.245
  54.600         34.17	     6.403
  54.620         43.33	     7.211
  54.640         41.67	     7.071
  54.660         37.50	     6.708
  54.680         42.50	     7.141
  54.700         30.00	     6.000
  54.720         38.33	     6.782
  54.740         34.17	     6.403
  54.760         41.67	     7.071
  54.780         35.00	     6.481
  54.800         31.67	     6.164
  54.820         42.50	     7.141
  54.840         42.50	     7.141
  54.860         39.17	     6.856
  54.880         40.00	     6.928
  54.900         52.50	     7.937
  54.920         67.50	     9.000
  54.940         56.67	     8.246
  54.960         75.83	     9.539
  54.980         63.33	     8.718
  55.000         68.33	     9.055
  55.020         55.83	     8.185
  55.040         48.33	     7.616
  55.060         41.67	     7.071
  55.080         35.83	     6.557
  55.100         59.17	     8.426
  55.120         67.50	     9.000
  55.140         48.33	     7.616
  55.160         49.17	     7.681
  55.180         40.00	     6.928
  55.200         58.33	     8.367
  55.220         49.17	     7.681
  55.240         46.67	     7.483
  55.260         44.17	     7.280
  55.280         55.83	     8.185
  55.300         52.50	     7.937
  55.320         58.33	     8.367
  55.340         59.17	     8.426
  55.360         43.33	     7.211
  55.380         76.67	     9.592
  55.400         83.33	    10.000
  55.420        101.67	    11.045
  55.440         87.50	    10.247
  55.460         83.33	    10.000
  55.480         63.33	     8.718
  55.500         60.00	     8.485
  55.520         55.00	     8.124
  55.540         70.00	     9.165
  55.560         76.67	     9.592
  55.580         70.00	     9.165
  55.600         67.50	     9.000
  55.620         61.67	     8.602
  55.640         55.00	     8.124
  55.660         60.00	     8.485
  55.680         57.50	     8.307
  55.700         75.00	     9.487
  55.720         60.00	     8.485
  55.740         49.17	     7.681
  55.760         50.00	     7.746
  55.780         55.00	     8.124
  55.800         79.17	     9.747
  55.820         58.33	     8.367
  55.840         60.83	     8.544
  55.860         93.33	    10.583
  55.880         69.17	     9.110
  55.900         76.67	     9.592
  55.920         70.83	     9.220
  55.940         79.17	     9.747
  55.960         75.83	     9.539
  55.980         89.17	    10.344
  56.000         75.00	     9.487
  56.020         75.83	     9.539
  56.040         56.67	     8.246
  56.060         59.17	     8.426
  56.080         51.67	     7.874
  56.100         60.00	     8.485
  56.120         79.17	     9.747
  56.140         77.50	     9.644
  56.160         60.83	     8.544
  56.180         53.33	     8.000
  56.200         55.00	     8.124
  56.220         55.00	     8.124
  56.240         45.83	     7.416
  56.260         36.67	     6.633
  56.280         31.67	     6.164
  56.300         38.33	     6.782
  56.320         48.33	     7.616
  56.340         35.83	     6.557
  56.360         33.33	     6.325
  56.380         28.33	     5.831
  56.400         21.67	     5.099
  56.420         35.83	     6.557
  56.440         32.50	     6.245
  56.460         38.33	     6.782
  56.480         32.50	     6.245
  56.500         25.83	     5.568
  56.520         27.50	     5.745
  56.540         26.67	     5.657
  56.560         29.17	     5.916
  56.580         29.17	     5.916
  56.600         38.33	     6.782
  56.620         42.50	     7.141
  56.640         35.00	     6.481
  56.660         35.83	     6.557
  56.680         31.67	     6.164
  56.700         25.00	     5.477
  56.720         38.33	     6.782
  56.740         34.17	     6.403
  56.760         25.00	     5.477
  56.780         31.67	     6.164
  56.800         35.00	     6.481
  56.820         31.67	     6.164
  56.840         29.17	     5.916
  56.860         30.00	     6.000
  56.880         30.83	     6.083
  56.900         28.33	     5.831
  56.920         35.83	     6.557
  56.940         30.83	     6.083
  56.960         36.67	     6.633
  56.980         22.50	     5.196
  57.000         27.50	     5.745
  57.020         26.67	     5.657
  57.040         28.33	     5.831
  57.060         30.83	     6.083
  57.080         30.83	     6.083
  57.100         31.67	     6.164
  57.120         39.17	     6.856
  57.140         31.67	     6.164
  57.160         28.33	     5.831
  57.180         34.17	     6.403
  57.200         39.17	     6.856
  57.220         28.33	     5.831
  57.240         25.00	     5.477
  57.260         21.67	     5.099
  57.280         18.33	     4.690
  57.300         21.67	     5.099
  57.320         30.83	     6.083
  57.340         37.50	     6.708
  57.360         24.17	     5.385
  57.380         27.50	     5.745
  57.400         27.50	     5.745
  57.420         27.50	     5.745
  57.440         30.00	     6.000
  57.460         29.17	     5.916
  57.480         36.67	     6.633
  57.500         30.83	     6.083
  57.520         39.17	     6.856
  57.540         25.83	     5.568
  57.560         29.17	     5.916
  57.580         30.83	     6.083
  57.600         31.67	     6.164
  57.620         27.50	     5.745
  57.640         22.50	     5.196
  57.660         37.50	     6.708
  57.680         39.17	     6.856
  57.700         37.50	     6.708
  57.720         40.00	     6.928
  57.740         45.00	     7.348
  57.760         32.50	     6.245
  57.780         41.67	     7.071
  57.800         35.00	     6.481
  57.820         30.83	     6.083
  57.840         32.50	     6.245
  57.860         26.67	     5.657
  57.880         28.33	     5.831
  57.900         25.83	     5.568
  57.920         30.83	     6.083
  57.940         28.33	     5.831
  57.960         31.67	     6.164
  57.980         25.83	     5.568
  58.000         18.33	     4.690
  58.020         21.67	     5.099
  58.040         25.00	     5.477
  58.060         26.67	     5.657
  58.080         27.50	     5.745
  58.100         20.83	     5.000
  58.120         20.00	     4.899
  58.140         25.83	     5.568
  58.160         25.00	     5.477
  58.180         27.50	     5.745
  58.200         20.83	     5.000
  58.220         34.17	     6.403
  58.240         29.17	     5.916
  58.260         40.83	     7.000
  58.280         33.33	     6.325
  58.300         29.17	     5.916
  58.320         29.17	     5.916
  58.340         25.00	     5.477
  58.360         31.67	     6.164
  58.380         20.83	     5.000
  58.400         27.50	     5.745
  58.420         27.50	     5.745
  58.440         24.17	     5.385
  58.460         35.83	     6.557
  58.480         24.17	     5.385
  58.500         39.17	     6.856
  58.520         37.50	     6.708
  58.540         34.17	     6.403
  58.560         29.17	     5.916
  58.580         24.17	     5.385
  58.600         31.67	     6.164
  58.620         35.00	     6.481
  58.640         30.83	     6.083
  58.660         43.33	     7.211
  58.680         32.50	     6.245
  58.700         30.83	     6.083
  58.720         40.83	     7.000
  58.740         33.33	     6.325
  58.760         49.17	     7.681
  58.780         36.67	     6.633
  58.800         36.67	     6.633
  58.820         49.17	     7.681
  58.840         35.00	     6.481
  58.860         30.83	     6.083
  58.880         51.67	     7.874
  58.900         35.00	     6.481
  58.920         42.50	     7.141
  58.940         40.83	     7.000
  58.960         35.00	     6.481
  58.980         51.67	     7.874
  59.000         38.33	     6.782
  59.020         46.67	     7.483
  59.040         45.00	     7.348
  59.060         38.33	     6.782
  59.080         48.33	     7.616
  59.100         41.67	     7.071
  59.120         51.67	     7.874
  59.140         55.83	     8.185
  59.160         47.50	     7.550
  59.180         45.00	     7.348
  59.200         47.50	     7.550
  59.220         56.67	     8.246
  59.240         42.50	     7.141
  59.260         38.33	     6.782
  59.280         52.50	     7.937
  59.300         47.50	     7.550
  59.320         41.67	     7.071
  59.340         48.33	     7.616
  59.360         37.50	     6.708
  59.380         46.67	     7.483
  59.400         36.67	     6.633
  59.420         33.33	     6.325
  59.440         38.33	     6.782
  59.460         41.67	     7.071
  59.480         35.00	     6.481
  59.500         46.67	     7.483
  59.520         40.83	     7.000
  59.540         34.17	     6.403
  59.560         39.17	     6.856
  59.580         42.50	     7.141
  59.600         38.33	     6.782
  59.620         37.50	     6.708
  59.640         40.83	     7.000
  59.660         35.00	     6.481
  59.680         35.83	     6.557
  59.700         39.17	     6.856
  59.720         35.83	     6.557
  59.740         43.33	     7.211
  59.760         41.67	     7.071
  59.780         42.50	     7.141
  59.800         56.67	     8.246
  59.820         40.83	     7.000
  59.840         41.67	     7.071
  59.860         35.83	     6.557
  59.880         49.17	     7.681
  59.900         39.17	     6.856
  59.920         42.50	     7.141
  59.940         53.33	     8.000
  59.960         59.17	     8.426
  59.980         51.67	     7.874
  60.000         87.50	    10.247
  60.020        115.83	    11.790
  60.040        138.33	    12.884
  60.060        175.00	    14.491
  60.080        145.00	    13.191
  60.100        111.67	    11.576
  60.120         77.50	     9.644
  60.140         63.33	     8.718
  60.160         71.67	     9.274
  60.180         73.33	     9.381
  60.200         85.83	    10.149
  60.220        110.83	    11.533
  60.240         94.17	    10.630
  60.260         94.17	    10.630
  60.280         60.00	     8.485
  60.300         43.33	     7.211
  60.320         48.33	     7.616
  60.340         40.83	     7.000
  60.360         44.17	     7.280
  60.380         32.50	     6.245
  60.400         45.83	     7.416
  60.420         40.83	     7.000
  60.440         41.67	     7.071
  60.460         33.33	     6.325
  60.480         34.17	     6.403
  60.500         50.83	     7.810
  60.520         38.33	     6.782
  60.540         55.83	     8.185
  60.560         49.17	     7.681
  60.580         51.67	     7.874
  60.600         28.33	     5.831
  60.620         35.00	     6.481
  60.640         37.50	     6.708
  60.660         37.50	     6.708
  60.680         44.17	     7.280
  60.700         41.67	     7.071
  60.720         46.67	     7.483
  60.740         37.50	     6.708
  60.760         40.00	     6.928
  60.780         45.00	     7.348
  60.800         41.67	     7.071
  60.820         40.00	     6.928
  60.840         40.00	     6.928
  60.860         47.50	     7.550
  60.880         49.17	     7.681
  60.900         36.67	     6.633
  60.920         41.67	     7.071
  60.940         42.50	     7.141
  60.960         49.17	     7.681
  60.980         43.33	     7.211
  61.000         55.00	     8.124
  61.020         55.83	     8.185
  61.040         53.33	     8.000
  61.060         44.17	     7.280
  61.080         60.83	     8.544
  61.100         50.00	     7.746
  61.120         45.83	     7.416
  61.140         40.00	     6.928
  61.160         38.33	     6.782
  61.180         39.17	     6.856
  61.200         46.67	     7.483
  61.220         30.00	     6.000
  61.240         41.67	     7.071
  61.260         36.67	     6.633
  61.280         46.67	     7.483
  61.300         47.50	     7.550
  61.320         54.17	     8.062
  61.340         37.50	     6.708
  61.360         43.33	     7.211
  61.380         41.67	     7.071
  61.400         57.50	     8.307
  61.420         44.17	     7.280
  61.440         54.17	     8.062
  61.460         43.33	     7.211
  61.480         58.33	     8.367
  61.500         58.33	     8.367
  61.520         72.50	     9.327
  61.540         70.83	     9.220
  61.560         65.00	     8.832
  61.580         76.67	     9.592
  61.600         60.00	     8.485
  61.620         62.50	     8.660
  61.640         54.17	     8.062
  61.660         64.17	     8.775
  61.680         54.17	     8.062
  61.700         46.67	     7.483
  61.720         53.33	     8.000
  61.740         45.83	     7.416
  61.760         59.17	     8.426
  61.780         50.83	     7.810
  61.800         48.33	     7.616
  61.820         53.33	     8.000
  61.840         48.33	     7.616
  61.860         49.17	     7.681
  61.880         50.83	     7.810
  61.900         41.67	     7.071
  61.920         35.83	     6.557
  61.940         40.83	     7.000
  61.960         37.50	     6.708
  61.980         36.67	     6.633
  62.000         40.00	     6.928
  62.020         44.17	     7.280
  62.040         30.83	     6.083
  62.060         29.17	     5.916
  62.080         38.33	     6.782
  62.100         29.17	     5.916
  62.120         32.50	     6.245
  62.140         36.67	     6.633
  62.160         27.50	     5.745
  62.180         25.83	     5.568
  62.200         32.50	     6.245
  62.220         32.50	     6.245
  62.240         35.00	     6.481
  62.260         20.00	     4.899
  62.280         33.33	     6.325
  62.300         38.33	     6.782
  62.320         24.17	     5.385
  62.340         30.00	     6.000
  62.360         28.33	     5.831
  62.380         21.67	     5.099
  62.400         33.33	     6.325
  62.420         35.83	     6.557
  62.440         27.50	     5.745
  62.460         32.50	     6.245
  62.480         23.33	     5.292
  62.500         32.50	     6.245
  62.520         30.83	     6.083
  62.540         25.00	     5.477
  62.560         28.33	     5.831
  62.580         38.33	     6.782
  62.600         29.17	     5.916
  62.620         27.50	     5.745
  62.640         31.67	     6.164
  62.660         29.17	     5.916
  62.680         27.50	     5.745
  62.700         30.00	     6.000
  62.720         30.00	     6.000
  62.740         25.00	     5.477
  62.760         25.83	     5.568
  62.780         26.67	     5.657
  62.800         20.00	     4.899
  62.820         35.00	     6.481
  62.840         31.67	     6.164
  62.860         20.83	     5.000
  62.880         33.33	     6.325
  62.900         35.83	     6.557
  62.920         26.67	     5.657
  62.940         25.00	     5.477
  62.960         25.00	     5.477
  62.980         26.67	     5.657
  63.000         35.00	     6.481
  63.020         40.00	     6.928
  63.040         28.33	     5.831
  63.060         27.50	     5.745
  63.080         44.17	     7.280
  63.100         28.33	     5.831
  63.120         31.67	     6.164
  63.140         32.50	     6.245
  63.160         29.17	     5.916
  63.180         30.00	     6.000
  63.200         30.83	     6.083
  63.220         35.83	     6.557
  63.240         27.50	     5.745
  63.260         31.67	     6.164
  63.280         28.33	     5.831
  63.300         34.17	     6.403
  63.320         25.00	     5.477
  63.340         25.83	     5.568
  63.360         38.33	     6.782
  63.380         31.67	     6.164
  63.400         33.33	     6.325
  63.420         30.83	     6.083
  63.440         40.83	     7.000
  63.460         32.50	     6.245
  63.480         36.67	     6.633
  63.500         40.83	     7.000
  63.520         39.17	     6.856
  63.540         33.33	     6.325
  63.560         31.67	     6.164
  63.580         48.33	     7.616
  63.600         48.33	     7.616
  63.620         46.67	     7.483
  63.640         45.83	     7.416
  63.660         34.17	     6.403
  63.680         47.50	     7.550
  63.700         30.83	     6.083
  63.720         28.33	     5.831
  63.740         48.33	     7.616
  63.760         55.00	     8.124
  63.780         35.00	     6.481
  63.800         35.00	     6.481
  63.820         48.33	     7.616
  63.840         55.83	     8.185
  63.860         42.50	     7.141
  63.880         52.50	     7.937
  63.900         37.50	     6.708
  63.920         47.50	     7.550
  63.940         47.50	     7.550
  63.960         45.83	     7.416
  63.980         35.83	     6.557
  64.000         46.67	     7.483
  64.020         44.17	     7.280
  64.040         42.50	     7.141
  64.060         50.00	     7.746
  64.080         47.50	     7.550
  64.100         60.00	     8.485
  64.120         54.17	     8.062
  64.140         49.17	     7.681
  64.160         60.00	     8.485
  64.180         73.33	     9.381
  64.200         46.67	     7.483
  64.220         65.83	     8.888
  64.240         41.67	     7.071
  64.260         63.33	     8.718
  64.280         60.00	     8.485
  64.300         75.00	     9.487
  64.320         80.83	     9.849
  64.340         67.50	     9.000
  64.360         76.67	     9.592
  64.380         75.83	     9.539
  64.400         95.83	    10.724
  64.420         91.67	    10.488
  64.440        131.67	    12.570
  64.460        203.33	    15.620
  64.480        340.00	    20.199
  64.500        578.33	    26.344
  64.520        829.17	    31.544
  64.540        751.67	    30.033
  64.560        526.67	    25.140
  64.580        280.00	    18.330
  64.600        228.33	    16.553
  64.620        159.17	    13.820
  64.640        203.33	    15.620
  64.660        243.33	    17.088
  64.680        335.00	    20.050
  64.700        433.33	    22.804
  64.720        399.17	    21.886
  64.740        275.00	    18.166
  64.760        170.00	    14.283
  64.780        126.67	    12.329
  64.800         75.00	     9.487
  64.820         75.00	     9.487
  64.840         67.50	     9.000
  64.860         64.17	     8.775
  64.880         59.17	     8.426
  64.900         53.33	     8.000
  64.920         51.67	     7.874
  64.940         42.50	     7.141
  64.960         52.50	     7.937
  64.980         76.67	     9.592
  65.000         95.83	    10.724
