
Filename:
	C:\Program Files\Thermo Electron\WinXRD\Datafiles\F_HERMAN\GEO\GG_17_SFT.raw

File Created:
	October 14, 2020 - 01:03 AM

Specimen Id:
	GG_17_SFT

Specimen Name:
	

Specimen Description:
	

Comment:
Scan Type: 2Theta Scan
Start Angle: 3 deg.
Stop Angle: 65 deg.
Num Points: 3101
Step Size: 0.02 deg.
Scan Rate: 1.000000
Scan Mode: Continuous
Wavelength: 1.540562
\Kalpha1: 1.540562	\Kalpha2: 1.544390	\Kbeta: 1.392218

Optics:
		Detector:
			 Type: Fixed Slits
		Tube: 
			 Type: Fixed Slits


Datas:
 Pos [deg]       Rate [CPS]      ESD [-]

Range 1 ---> Iteration 1
   3.000        365.00	    20.928
   3.020        348.33	    20.445
   3.040        359.17	    20.761
   3.060        351.67	    20.543
   3.080        355.83	    20.664
   3.100        346.67	    20.396
   3.120        342.50	    20.273
   3.140        358.33	    20.736
   3.160        364.17	    20.905
   3.180        325.00	    19.748
   3.200        395.00	    21.772
   3.220        364.17	    20.905
   3.240        329.17	    19.875
   3.260        312.50	    19.365
   3.280        318.33	    19.545
   3.300        325.83	    19.774
   3.320        309.17	    19.261
   3.340        305.00	    19.131
   3.360        324.17	    19.723
   3.380        316.67	    19.494
   3.400        297.50	    18.894
   3.420        305.83	    19.157
   3.440        305.83	    19.157
   3.460        290.00	    18.655
   3.480        284.17	    18.466
   3.500        291.67	    18.708
   3.520        298.33	    18.921
   3.540        338.33	    20.149
   3.560        309.17	    19.261
   3.580        304.17	    19.105
   3.600        282.50	    18.412
   3.620        300.83	    19.000
   3.640        295.83	    18.841
   3.660        289.17	    18.628
   3.680        273.33	    18.111
   3.700        311.67	    19.339
   3.720        295.00	    18.815
   3.740        272.50	    18.083
   3.760        264.17	    17.804
   3.780        314.17	    19.416
   3.800        273.33	    18.111
   3.820        300.83	    19.000
   3.840        240.00	    16.971
   3.860        245.00	    17.146
   3.880        263.33	    17.776
   3.900        290.83	    18.682
   3.920        259.17	    17.635
   3.940        270.00	    18.000
   3.960        255.00	    17.493
   3.980        222.50	    16.340
   4.000        249.17	    17.292
   4.020        268.33	    17.944
   4.040        274.17	    18.138
   4.060        234.17	    16.763
   4.080        226.67	    16.492
   4.100        231.67	    16.673
   4.120        284.17	    18.466
   4.140        243.33	    17.088
   4.160        245.83	    17.176
   4.180        285.00	    18.493
   4.200        235.00	    16.793
   4.220        250.83	    17.349
   4.240        255.83	    17.521
   4.260        232.50	    16.703
   4.280        255.83	    17.521
   4.300        228.33	    16.553
   4.320        246.67	    17.205
   4.340        249.17	    17.292
   4.360        226.67	    16.492
   4.380        242.50	    17.059
   4.400        258.33	    17.607
   4.420        227.50	    16.523
   4.440        250.83	    17.349
   4.460        240.00	    16.971
   4.480        232.50	    16.703
   4.500        219.17	    16.217
   4.520        178.33	    14.629
   4.540        227.50	    16.523
   4.560        206.67	    15.748
   4.580        215.83	    16.093
   4.600        209.17	    15.843
   4.620        235.00	    16.793
   4.640        238.33	    16.912
   4.660        243.33	    17.088
   4.680        207.50	    15.780
   4.700        210.00	    15.875
   4.720        208.33	    15.811
   4.740        223.33	    16.371
   4.760        218.33	    16.186
   4.780        189.17	    15.067
   4.800        188.33	    15.033
   4.820        185.00	    14.900
   4.840        181.67	    14.765
   4.860        220.00	    16.248
   4.880        227.50	    16.523
   4.900        200.00	    15.492
   4.920        203.33	    15.620
   4.940        200.83	    15.524
   4.960        194.17	    15.264
   4.980        195.00	    15.297
   5.000        189.17	    15.067
   5.020        197.50	    15.395
   5.040        216.67	    16.125
   5.060        185.83	    14.933
   5.080        191.67	    15.166
   5.100        180.00	    14.697
   5.120        161.67	    13.928
   5.140        186.67	    14.967
   5.160        195.83	    15.330
   5.180        169.17	    14.248
   5.200        185.00	    14.900
   5.220        181.67	    14.765
   5.240        179.17	    14.663
   5.260        179.17	    14.663
   5.280        175.83	    14.526
   5.300        165.83	    14.107
   5.320        161.67	    13.928
   5.340        193.33	    15.232
   5.360        160.00	    13.856
   5.380        172.50	    14.387
   5.400        172.50	    14.387
   5.420        169.17	    14.248
   5.440        195.83	    15.330
   5.460        183.33	    14.832
   5.480        200.00	    15.492
   5.500        148.33	    13.342
   5.520        155.00	    13.638
   5.540        162.50	    13.964
   5.560        169.17	    14.248
   5.580        168.33	    14.213
   5.600        175.00	    14.491
   5.620        174.17	    14.457
   5.640        168.33	    14.213
   5.660        165.00	    14.071
   5.680        172.50	    14.387
   5.700        181.67	    14.765
   5.720        175.83	    14.526
   5.740        184.17	    14.866
   5.760        159.17	    13.820
   5.780        187.50	    15.000
   5.800        178.33	    14.629
   5.820        145.83	    13.229
   5.840        189.17	    15.067
   5.860        142.50	    13.077
   5.880        185.83	    14.933
   5.900        172.50	    14.387
   5.920        182.50	    14.799
   5.940        170.83	    14.318
   5.960        183.33	    14.832
   5.980        175.00	    14.491
   6.000        155.00	    13.638
   6.020        177.50	    14.595
   6.040        180.00	    14.697
   6.060        192.50	    15.199
   6.080        183.33	    14.832
   6.100        200.83	    15.524
   6.120        210.00	    15.875
   6.140        226.67	    16.492
   6.160        264.17	    17.804
   6.180        230.83	    16.643
   6.200        265.00	    17.833
   6.220        244.17	    17.117
   6.240        281.67	    18.385
   6.260        294.17	    18.788
   6.280        283.33	    18.439
   6.300        318.33	    19.545
   6.320        324.17	    19.723
   6.340        301.67	    19.026
   6.360        294.17	    18.788
   6.380        281.67	    18.385
   6.400        259.17	    17.635
   6.420        247.50	    17.234
   6.440        228.33	    16.553
   6.460        214.17	    16.031
   6.480        176.67	    14.560
   6.500        161.67	    13.928
   6.520        165.83	    14.107
   6.540        161.67	    13.928
   6.560        165.83	    14.107
   6.580        149.17	    13.379
   6.600        175.00	    14.491
   6.620        136.67	    12.806
   6.640        145.00	    13.191
   6.660        154.17	    13.601
   6.680        135.00	    12.728
   6.700        155.00	    13.638
   6.720        154.17	    13.601
   6.740        148.33	    13.342
   6.760        150.00	    13.416
   6.780        162.50	    13.964
   6.800        140.83	    13.000
   6.820        150.83	    13.454
   6.840        170.83	    14.318
   6.860        161.67	    13.928
   6.880        138.33	    12.884
   6.900        152.50	    13.528
   6.920        151.67	    13.491
   6.940        136.67	    12.806
   6.960        140.83	    13.000
   6.980        151.67	    13.491
   7.000        139.17	    12.923
   7.020        158.33	    13.784
   7.040        169.17	    14.248
   7.060        164.17	    14.036
   7.080        130.83	    12.530
   7.100        135.00	    12.728
   7.120        146.67	    13.266
   7.140        160.00	    13.856
   7.160        154.17	    13.601
   7.180        124.17	    12.207
   7.200        145.00	    13.191
   7.220        124.17	    12.207
   7.240        139.17	    12.923
   7.260        132.50	    12.610
   7.280        130.83	    12.530
   7.300        142.50	    13.077
   7.320        147.50	    13.304
   7.340        124.17	    12.207
   7.360        116.67	    11.832
   7.380        118.33	    11.916
   7.400        138.33	    12.884
   7.420        134.17	    12.689
   7.440        129.17	    12.450
   7.460        137.50	    12.845
   7.480        131.67	    12.570
   7.500        128.33	    12.410
   7.520        145.00	    13.191
   7.540        132.50	    12.610
   7.560        140.83	    13.000
   7.580        133.33	    12.649
   7.600        125.83	    12.288
   7.620        110.83	    11.533
   7.640        111.67	    11.576
   7.660        116.67	    11.832
   7.680        130.83	    12.530
   7.700        141.67	    13.038
   7.720        130.00	    12.490
   7.740        117.50	    11.874
   7.760        135.83	    12.767
   7.780        128.33	    12.410
   7.800        108.33	    11.402
   7.820        136.67	    12.806
   7.840        132.50	    12.610
   7.860        120.83	    12.042
   7.880        112.50	    11.619
   7.900        125.83	    12.288
   7.920        100.83	    11.000
   7.940        132.50	    12.610
   7.960        129.17	    12.450
   7.980        122.50	    12.124
   8.000        106.67	    11.314
   8.020        115.00	    11.747
   8.040        139.17	    12.923
   8.060        117.50	    11.874
   8.080        130.00	    12.490
   8.100        122.50	    12.124
   8.120         98.33	    10.863
   8.140        139.17	    12.923
   8.160        120.83	    12.042
   8.180        115.00	    11.747
   8.200         97.50	    10.817
   8.220        119.17	    11.958
   8.240        127.50	    12.369
   8.260        122.50	    12.124
   8.280        133.33	    12.649
   8.300        118.33	    11.916
   8.320        126.67	    12.329
   8.340        127.50	    12.369
   8.360        132.50	    12.610
   8.380        116.67	    11.832
   8.400        110.83	    11.533
   8.420        130.83	    12.530
   8.440        125.00	    12.247
   8.460        150.00	    13.416
   8.480        135.00	    12.728
   8.500        130.00	    12.490
   8.520        142.50	    13.077
   8.540        151.67	    13.491
   8.560        151.67	    13.491
   8.580        131.67	    12.570
   8.600        120.83	    12.042
   8.620        157.50	    13.748
   8.640        148.33	    13.342
   8.660        147.50	    13.304
   8.680        140.83	    13.000
   8.700        151.67	    13.491
   8.720        159.17	    13.820
   8.740        177.50	    14.595
   8.760        161.67	    13.928
   8.780        207.50	    15.780
   8.800        203.33	    15.620
   8.820        229.17	    16.583
   8.840        219.17	    16.217
   8.860        245.00	    17.146
   8.880        290.00	    18.655
   8.900        306.67	    19.183
   8.920        303.33	    19.079
   8.940        325.83	    19.774
   8.960        405.83	    22.068
   8.980        452.50	    23.302
   9.000        500.00	    24.495
   9.020        492.50	    24.310
   9.040        499.17	    24.474
   9.060        420.83	    22.472
   9.080        335.00	    20.050
   9.100        214.17	    16.031
   9.120        187.50	    15.000
   9.140        155.83	    13.675
   9.160        130.83	    12.530
   9.180        148.33	    13.342
   9.200        139.17	    12.923
   9.220        132.50	    12.610
   9.240        125.83	    12.288
   9.260        140.00	    12.961
   9.280        128.33	    12.410
   9.300        117.50	    11.874
   9.320        132.50	    12.610
   9.340        120.83	    12.042
   9.360        110.83	    11.533
   9.380        127.50	    12.369
   9.400        107.50	    11.358
   9.420         89.17	    10.344
   9.440        115.83	    11.790
   9.460        119.17	    11.958
   9.480        115.00	    11.747
   9.500        128.33	    12.410
   9.520        130.00	    12.490
   9.540        140.83	    13.000
   9.560        147.50	    13.304
   9.580        150.83	    13.454
   9.600        169.17	    14.248
   9.620        131.67	    12.570
   9.640        128.33	    12.410
   9.660        118.33	    11.916
   9.680         97.50	    10.817
   9.700        102.50	    11.091
   9.720         89.17	    10.344
   9.740         97.50	    10.817
   9.760        101.67	    11.045
   9.780         78.33	     9.695
   9.800        102.50	    11.091
   9.820         77.50	     9.644
   9.840        100.83	    11.000
   9.860         98.33	    10.863
   9.880         97.50	    10.817
   9.900        100.00	    10.954
   9.920         85.00	    10.100
   9.940         69.17	     9.110
   9.960         97.50	    10.817
   9.980         96.67	    10.770
  10.000         92.50	    10.536
  10.020         99.17	    10.909
  10.040         75.00	     9.487
  10.060         85.83	    10.149
  10.080         92.50	    10.536
  10.100         87.50	    10.247
  10.120         84.17	    10.050
  10.140         81.67	     9.899
  10.160         80.83	     9.849
  10.180         81.67	     9.899
  10.200         95.00	    10.677
  10.220         90.00	    10.392
  10.240         89.17	    10.344
  10.260         86.67	    10.198
  10.280         78.33	     9.695
  10.300         80.83	     9.849
  10.320         80.83	     9.849
  10.340         93.33	    10.583
  10.360         77.50	     9.644
  10.380         72.50	     9.327
  10.400         73.33	     9.381
  10.420         80.00	     9.798
  10.440         82.50	     9.950
  10.460         87.50	    10.247
  10.480         90.83	    10.440
  10.500         81.67	     9.899
  10.520         95.00	    10.677
  10.540        112.50	    11.619
  10.560         93.33	    10.583
  10.580        129.17	    12.450
  10.600        125.83	    12.288
  10.620        145.00	    13.191
  10.640        143.33	    13.115
  10.660        166.67	    14.142
  10.680        181.67	    14.765
  10.700        130.83	    12.530
  10.720        111.67	    11.576
  10.740        106.67	    11.314
  10.760         88.33	    10.296
  10.780         92.50	    10.536
  10.800         72.50	     9.327
  10.820         75.83	     9.539
  10.840         68.33	     9.055
  10.860         65.00	     8.832
  10.880         81.67	     9.899
  10.900         76.67	     9.592
  10.920         75.83	     9.539
  10.940         75.00	     9.487
  10.960         80.00	     9.798
  10.980         78.33	     9.695
  11.000         81.67	     9.899
  11.020         79.17	     9.747
  11.040         63.33	     8.718
  11.060         61.67	     8.602
  11.080         79.17	     9.747
  11.100         75.00	     9.487
  11.120         76.67	     9.592
  11.140         75.83	     9.539
  11.160         66.67	     8.944
  11.180         68.33	     9.055
  11.200         83.33	    10.000
  11.220         82.50	     9.950
  11.240         75.00	     9.487
  11.260         61.67	     8.602
  11.280         78.33	     9.695
  11.300         66.67	     8.944
  11.320         64.17	     8.775
  11.340         80.00	     9.798
  11.360         88.33	    10.296
  11.380         62.50	     8.660
  11.400         74.17	     9.434
  11.420         75.00	     9.487
  11.440         65.83	     8.888
  11.460         60.83	     8.544
  11.480         72.50	     9.327
  11.500         79.17	     9.747
  11.520         66.67	     8.944
  11.540         70.83	     9.220
  11.560         77.50	     9.644
  11.580         77.50	     9.644
  11.600         61.67	     8.602
  11.620         82.50	     9.950
  11.640         78.33	     9.695
  11.660         73.33	     9.381
  11.680         70.83	     9.220
  11.700         88.33	    10.296
  11.720         95.83	    10.724
  11.740         73.33	     9.381
  11.760         76.67	     9.592
  11.780         89.17	    10.344
  11.800         95.00	    10.677
  11.820         75.00	     9.487
  11.840         72.50	     9.327
  11.860         88.33	    10.296
  11.880         83.33	    10.000
  11.900         81.67	     9.899
  11.920         92.50	    10.536
  11.940         72.50	     9.327
  11.960         77.50	     9.644
  11.980        105.00	    11.225
  12.000         77.50	     9.644
  12.020         95.00	    10.677
  12.040         89.17	    10.344
  12.060        105.83	    11.269
  12.080         94.17	    10.630
  12.100        101.67	    11.045
  12.120        101.67	    11.045
  12.140        121.67	    12.083
  12.160        138.33	    12.884
  12.180        150.00	    13.416
  12.200        193.33	    15.232
  12.220        200.83	    15.524
  12.240        245.00	    17.146
  12.260        369.17	    21.048
  12.280        510.83	    24.759
  12.300        626.67	    27.423
  12.320        764.17	    30.282
  12.340        771.67	    30.430
  12.360        815.00	    31.273
  12.380        612.50	    27.111
  12.400        428.33	    22.672
  12.420        308.33	    19.235
  12.440        295.00	    18.815
  12.460        275.00	    18.166
  12.480        283.33	    18.439
  12.500        283.33	    18.439
  12.520        305.00	    19.131
  12.540        324.17	    19.723
  12.560        339.17	    20.174
  12.580        405.00	    22.045
  12.600        402.50	    21.977
  12.620        471.67	    23.791
  12.640        517.50	    24.920
  12.660        473.33	    23.833
  12.680        370.83	    21.095
  12.700        282.50	    18.412
  12.720        195.00	    15.297
  12.740        148.33	    13.342
  12.760        116.67	    11.832
  12.780         94.17	    10.630
  12.800         88.33	    10.296
  12.820         85.00	    10.100
  12.840         90.00	    10.392
  12.860        102.50	    11.091
  12.880         75.83	     9.539
  12.900         79.17	     9.747
  12.920         80.83	     9.849
  12.940         64.17	     8.775
  12.960         74.17	     9.434
  12.980         78.33	     9.695
  13.000         76.67	     9.592
  13.020         66.67	     8.944
  13.040         60.00	     8.485
  13.060         65.00	     8.832
  13.080         81.67	     9.899
  13.100         71.67	     9.274
  13.120         56.67	     8.246
  13.140         65.00	     8.832
  13.160         53.33	     8.000
  13.180         81.67	     9.899
  13.200         80.83	     9.849
  13.220         82.50	     9.950
  13.240         65.83	     8.888
  13.260         60.00	     8.485
  13.280         60.83	     8.544
  13.300         55.00	     8.124
  13.320         45.00	     7.348
  13.340         60.83	     8.544
  13.360         50.00	     7.746
  13.380         60.00	     8.485
  13.400         48.33	     7.616
  13.420         65.00	     8.832
  13.440         62.50	     8.660
  13.460         55.83	     8.185
  13.480         60.83	     8.544
  13.500         66.67	     8.944
  13.520         70.83	     9.220
  13.540         72.50	     9.327
  13.560         67.50	     9.000
  13.580         70.83	     9.220
  13.600         64.17	     8.775
  13.620         65.00	     8.832
  13.640         62.50	     8.660
  13.660         58.33	     8.367
  13.680         82.50	     9.950
  13.700         55.83	     8.185
  13.720         65.00	     8.832
  13.740         69.17	     9.110
  13.760         74.17	     9.434
  13.780         75.83	     9.539
  13.800         64.17	     8.775
  13.820         62.50	     8.660
  13.840         59.17	     8.426
  13.860         70.00	     9.165
  13.880         69.17	     9.110
  13.900         65.00	     8.832
  13.920         65.83	     8.888
  13.940         67.50	     9.000
  13.960         87.50	    10.247
  13.980         84.17	    10.050
  14.000         92.50	    10.536
  14.020         80.83	     9.849
  14.040         85.00	    10.100
  14.060         66.67	     8.944
  14.080         60.00	     8.485
  14.100         67.50	     9.000
  14.120         55.83	     8.185
  14.140         56.67	     8.246
  14.160         74.17	     9.434
  14.180         55.83	     8.185
  14.200         68.33	     9.055
  14.220         60.00	     8.485
  14.240         60.83	     8.544
  14.260         55.83	     8.185
  14.280         60.83	     8.544
  14.300         60.00	     8.485
  14.320         55.00	     8.124
  14.340         45.00	     7.348
  14.360         58.33	     8.367
  14.380         59.17	     8.426
  14.400         43.33	     7.211
  14.420         50.83	     7.810
  14.440         48.33	     7.616
  14.460         48.33	     7.616
  14.480         43.33	     7.211
  14.500         50.00	     7.746
  14.520         48.33	     7.616
  14.540         60.00	     8.485
  14.560         57.50	     8.307
  14.580         45.83	     7.416
  14.600         50.00	     7.746
  14.620         46.67	     7.483
  14.640         43.33	     7.211
  14.660         44.17	     7.280
  14.680         53.33	     8.000
  14.700         49.17	     7.681
  14.720         62.50	     8.660
  14.740         45.00	     7.348
  14.760         50.00	     7.746
  14.780         50.83	     7.810
  14.800         49.17	     7.681
  14.820         55.83	     8.185
  14.840         37.50	     6.708
  14.860         46.67	     7.483
  14.880         55.00	     8.124
  14.900         49.17	     7.681
  14.920         60.00	     8.485
  14.940         55.00	     8.124
  14.960         44.17	     7.280
  14.980         44.17	     7.280
  15.000         58.33	     8.367
  15.020         57.50	     8.307
  15.040         53.33	     8.000
  15.060         47.50	     7.550
  15.080         50.00	     7.746
  15.100         54.17	     8.062
  15.120         70.83	     9.220
  15.140         61.67	     8.602
  15.160         51.67	     7.874
  15.180         55.00	     8.124
  15.200         60.83	     8.544
  15.220         58.33	     8.367
  15.240         44.17	     7.280
  15.260         46.67	     7.483
  15.280         47.50	     7.550
  15.300         62.50	     8.660
  15.320         51.67	     7.874
  15.340         50.83	     7.810
  15.360         45.83	     7.416
  15.380         50.00	     7.746
  15.400         43.33	     7.211
  15.420         53.33	     8.000
  15.440         38.33	     6.782
  15.460         45.00	     7.348
  15.480         35.83	     6.557
  15.500         47.50	     7.550
  15.520         50.83	     7.810
  15.540         40.00	     6.928
  15.560         43.33	     7.211
  15.580         59.17	     8.426
  15.600         54.17	     8.062
  15.620         46.67	     7.483
  15.640         37.50	     6.708
  15.660         43.33	     7.211
  15.680         55.00	     8.124
  15.700         45.00	     7.348
  15.720         49.17	     7.681
  15.740         48.33	     7.616
  15.760         43.33	     7.211
  15.780         41.67	     7.071
  15.800         46.67	     7.483
  15.820         46.67	     7.483
  15.840         40.83	     7.000
  15.860         42.50	     7.141
  15.880         67.50	     9.000
  15.900         63.33	     8.718
  15.920         50.83	     7.810
  15.940         54.17	     8.062
  15.960         48.33	     7.616
  15.980         55.83	     8.185
  16.000         54.17	     8.062
  16.020         48.33	     7.616
  16.040         51.67	     7.874
  16.060         39.17	     6.856
  16.080         60.83	     8.544
  16.100         44.17	     7.280
  16.120         47.50	     7.550
  16.140         40.83	     7.000
  16.160         49.17	     7.681
  16.180         63.33	     8.718
  16.200         46.67	     7.483
  16.220         42.50	     7.141
  16.240         52.50	     7.937
  16.260         48.33	     7.616
  16.280         49.17	     7.681
  16.300         35.83	     6.557
  16.320         40.83	     7.000
  16.340         42.50	     7.141
  16.360         32.50	     6.245
  16.380         47.50	     7.550
  16.400         51.67	     7.874
  16.420         50.00	     7.746
  16.440         38.33	     6.782
  16.460         44.17	     7.280
  16.480         43.33	     7.211
  16.500         55.00	     8.124
  16.520         47.50	     7.550
  16.540         50.00	     7.746
  16.560         37.50	     6.708
  16.580         47.50	     7.550
  16.600         49.17	     7.681
  16.620         49.17	     7.681
  16.640         38.33	     6.782
  16.660         51.67	     7.874
  16.680         41.67	     7.071
  16.700         47.50	     7.550
  16.720         37.50	     6.708
  16.740         43.33	     7.211
  16.760         46.67	     7.483
  16.780         46.67	     7.483
  16.800         45.00	     7.348
  16.820         42.50	     7.141
  16.840         41.67	     7.071
  16.860         45.00	     7.348
  16.880         46.67	     7.483
  16.900         49.17	     7.681
  16.920         42.50	     7.141
  16.940         45.83	     7.416
  16.960         46.67	     7.483
  16.980         43.33	     7.211
  17.000         44.17	     7.280
  17.020         40.83	     7.000
  17.040         41.67	     7.071
  17.060         50.83	     7.810
  17.080         44.17	     7.280
  17.100         51.67	     7.874
  17.120         46.67	     7.483
  17.140         48.33	     7.616
  17.160         44.17	     7.280
  17.180         58.33	     8.367
  17.200         47.50	     7.550
  17.220         35.83	     6.557
  17.240         44.17	     7.280
  17.260         40.83	     7.000
  17.280         40.83	     7.000
  17.300         39.17	     6.856
  17.320         48.33	     7.616
  17.340         59.17	     8.426
  17.360         58.33	     8.367
  17.380         34.17	     6.403
  17.400         51.67	     7.874
  17.420         52.50	     7.937
  17.440         43.33	     7.211
  17.460         45.83	     7.416
  17.480         52.50	     7.937
  17.500         55.83	     8.185
  17.520         56.67	     8.246
  17.540         56.67	     8.246
  17.560         61.67	     8.602
  17.580         49.17	     7.681
  17.600         56.67	     8.246
  17.620         45.00	     7.348
  17.640         69.17	     9.110
  17.660         53.33	     8.000
  17.680         60.00	     8.485
  17.700         53.33	     8.000
  17.720         65.83	     8.888
  17.740         57.50	     8.307
  17.760         70.83	     9.220
  17.780         69.17	     9.110
  17.800         79.17	     9.747
  17.820         95.00	    10.677
  17.840        107.50	    11.358
  17.860        125.83	    12.288
  17.880        141.67	    13.038
  17.900        185.83	    14.933
  17.920        224.17	    16.401
  17.940        235.83	    16.823
  17.960        238.33	    16.912
  17.980        233.33	    16.733
  18.000        207.50	    15.780
  18.020        175.83	    14.526
  18.040        118.33	    11.916
  18.060         85.00	    10.100
  18.080         73.33	     9.381
  18.100         75.00	     9.487
  18.120         84.17	    10.050
  18.140         60.00	     8.485
  18.160         61.67	     8.602
  18.180         71.67	     9.274
  18.200         63.33	     8.718
  18.220         61.67	     8.602
  18.240         64.17	     8.775
  18.260         64.17	     8.775
  18.280         59.17	     8.426
  18.300         65.00	     8.832
  18.320         51.67	     7.874
  18.340         53.33	     8.000
  18.360         55.00	     8.124
  18.380         50.00	     7.746
  18.400         50.83	     7.810
  18.420         60.00	     8.485
  18.440         49.17	     7.681
  18.460         50.00	     7.746
  18.480         59.17	     8.426
  18.500         60.83	     8.544
  18.520         51.67	     7.874
  18.540         61.67	     8.602
  18.560         79.17	     9.747
  18.580         65.83	     8.888
  18.600         85.83	    10.149
  18.620         98.33	    10.863
  18.640         87.50	    10.247
  18.660         97.50	    10.817
  18.680        114.17	    11.705
  18.700        104.17	    11.180
  18.720        101.67	    11.045
  18.740        109.17	    11.446
  18.760         99.17	    10.909
  18.780         90.83	    10.440
  18.800        110.00	    11.489
  18.820        107.50	    11.358
  18.840        123.33	    12.166
  18.860        149.17	    13.379
  18.880        165.83	    14.107
  18.900        201.67	    15.556
  18.920        220.83	    16.279
  18.940        237.50	    16.882
  18.960        220.00	    16.248
  18.980        165.83	    14.107
  19.000        139.17	    12.923
  19.020        105.83	    11.269
  19.040         82.50	     9.950
  19.060         85.00	    10.100
  19.080         65.00	     8.832
  19.100         71.67	     9.274
  19.120         59.17	     8.426
  19.140         58.33	     8.367
  19.160         75.00	     9.487
  19.180         60.83	     8.544
  19.200         50.00	     7.746
  19.220         50.83	     7.810
  19.240         63.33	     8.718
  19.260         55.00	     8.124
  19.280         55.00	     8.124
  19.300         63.33	     8.718
  19.320         58.33	     8.367
  19.340         58.33	     8.367
  19.360         82.50	     9.950
  19.380         68.33	     9.055
  19.400         65.83	     8.888
  19.420         63.33	     8.718
  19.440         59.17	     8.426
  19.460         55.83	     8.185
  19.480         58.33	     8.367
  19.500         62.50	     8.660
  19.520         52.50	     7.937
  19.540         60.00	     8.485
  19.560         53.33	     8.000
  19.580         59.17	     8.426
  19.600         60.83	     8.544
  19.620         52.50	     7.937
  19.640         63.33	     8.718
  19.660         52.50	     7.937
  19.680         74.17	     9.434
  19.700         70.00	     9.165
  19.720         58.33	     8.367
  19.740         66.67	     8.944
  19.760         59.17	     8.426
  19.780         59.17	     8.426
  19.800         70.83	     9.220
  19.820         75.83	     9.539
  19.840         87.50	    10.247
  19.860         90.00	    10.392
  19.880         97.50	    10.817
  19.900         85.00	    10.100
  19.920         94.17	    10.630
  19.940         79.17	     9.747
  19.960         80.00	     9.798
  19.980         95.83	    10.724
  20.000         96.67	    10.770
  20.020         77.50	     9.644
  20.040         96.67	    10.770
  20.060         84.17	    10.050
  20.080         78.33	     9.695
  20.100         68.33	     9.055
  20.120         61.67	     8.602
  20.140         63.33	     8.718
  20.160         67.50	     9.000
  20.180         47.50	     7.550
  20.200         46.67	     7.483
  20.220         78.33	     9.695
  20.240         63.33	     8.718
  20.260         62.50	     8.660
  20.280         48.33	     7.616
  20.300         56.67	     8.246
  20.320         48.33	     7.616
  20.340         45.00	     7.348
  20.360         51.67	     7.874
  20.380         40.83	     7.000
  20.400         60.00	     8.485
  20.420         51.67	     7.874
  20.440         61.67	     8.602
  20.460         55.00	     8.124
  20.480         55.00	     8.124
  20.500         49.17	     7.681
  20.520         50.00	     7.746
  20.540         48.33	     7.616
  20.560         42.50	     7.141
  20.580         43.33	     7.211
  20.600         60.83	     8.544
  20.620         59.17	     8.426
  20.640         60.83	     8.544
  20.660         54.17	     8.062
  20.680         57.50	     8.307
  20.700         56.67	     8.246
  20.720         64.17	     8.775
  20.740         58.33	     8.367
  20.760         65.00	     8.832
  20.780         67.50	     9.000
  20.800         68.33	     9.055
  20.820         54.17	     8.062
  20.840         65.83	     8.888
  20.860         61.67	     8.602
  20.880         87.50	    10.247
  20.900         89.17	    10.344
  20.920        135.83	    12.767
  20.940        166.67	    14.142
  20.960        225.83	    16.462
  20.980        263.33	    17.776
  21.000        290.83	    18.682
  21.020        340.83	    20.224
  21.040        275.00	    18.166
  21.060        218.33	    16.186
  21.080        178.33	    14.629
  21.100        117.50	    11.874
  21.120        130.00	    12.490
  21.140        117.50	    11.874
  21.160        130.00	    12.490
  21.180        113.33	    11.662
  21.200        106.67	    11.314
  21.220         98.33	    10.863
  21.240         74.17	     9.434
  21.260         69.17	     9.110
  21.280         58.33	     8.367
  21.300         50.00	     7.746
  21.320         55.83	     8.185
  21.340         40.83	     7.000
  21.360         50.83	     7.810
  21.380         46.67	     7.483
  21.400         39.17	     6.856
  21.420         36.67	     6.633
  21.440         49.17	     7.681
  21.460         64.17	     8.775
  21.480         43.33	     7.211
  21.500         51.67	     7.874
  21.520         56.67	     8.246
  21.540         50.83	     7.810
  21.560         45.83	     7.416
  21.580         50.00	     7.746
  21.600         45.00	     7.348
  21.620         55.00	     8.124
  21.640         47.50	     7.550
  21.660         57.50	     8.307
  21.680         67.50	     9.000
  21.700         55.00	     8.124
  21.720         48.33	     7.616
  21.740         63.33	     8.718
  21.760         52.50	     7.937
  21.780         60.83	     8.544
  21.800         51.67	     7.874
  21.820         60.00	     8.485
  21.840         55.83	     8.185
  21.860         48.33	     7.616
  21.880         57.50	     8.307
  21.900         46.67	     7.483
  21.920         64.17	     8.775
  21.940         62.50	     8.660
  21.960         50.00	     7.746
  21.980         50.00	     7.746
  22.000         58.33	     8.367
  22.020         53.33	     8.000
  22.040         51.67	     7.874
  22.060         71.67	     9.274
  22.080         83.33	    10.000
  22.100        114.17	    11.705
  22.120        122.50	    12.124
  22.140        174.17	    14.457
  22.160        221.67	    16.310
  22.180        243.33	    17.088
  22.200        245.00	    17.146
  22.220        186.67	    14.967
  22.240        161.67	    13.928
  22.260        130.00	    12.490
  22.280         95.00	    10.677
  22.300         83.33	    10.000
  22.320         64.17	     8.775
  22.340         70.83	     9.220
  22.360         66.67	     8.944
  22.380         69.17	     9.110
  22.400         72.50	     9.327
  22.420         59.17	     8.426
  22.440         68.33	     9.055
  22.460         60.00	     8.485
  22.480         60.83	     8.544
  22.500         55.00	     8.124
  22.520         50.00	     7.746
  22.540         56.67	     8.246
  22.560         61.67	     8.602
  22.580         60.83	     8.544
  22.600         79.17	     9.747
  22.620         64.17	     8.775
  22.640         69.17	     9.110
  22.660         66.67	     8.944
  22.680         58.33	     8.367
  22.700         73.33	     9.381
  22.720         55.00	     8.124
  22.740         55.00	     8.124
  22.760         72.50	     9.327
  22.780         39.17	     6.856
  22.800         50.83	     7.810
  22.820         45.00	     7.348
  22.840         58.33	     8.367
  22.860         60.00	     8.485
  22.880         52.50	     7.937
  22.900         81.67	     9.899
  22.920         59.17	     8.426
  22.940         64.17	     8.775
  22.960         90.00	    10.392
  22.980        105.83	    11.269
  23.000         94.17	    10.630
  23.020         80.83	     9.849
  23.040         98.33	    10.863
  23.060        111.67	    11.576
  23.080        115.00	    11.747
  23.100        120.83	    12.042
  23.120        117.50	    11.874
  23.140        123.33	    12.166
  23.160        110.00	    11.489
  23.180        127.50	    12.369
  23.200        104.17	    11.180
  23.220         92.50	    10.536
  23.240         89.17	    10.344
  23.260        105.00	    11.225
  23.280         63.33	     8.718
  23.300         83.33	    10.000
  23.320         61.67	     8.602
  23.340         50.83	     7.810
  23.360         42.50	     7.141
  23.380         74.17	     9.434
  23.400         75.00	     9.487
  23.420         51.67	     7.874
  23.440         50.00	     7.746
  23.460         58.33	     8.367
  23.480         67.50	     9.000
  23.500         66.67	     8.944
  23.520         64.17	     8.775
  23.540         59.17	     8.426
  23.560         73.33	     9.381
  23.580         84.17	    10.050
  23.600         83.33	    10.000
  23.620        121.67	    12.083
  23.640        120.00	    12.000
  23.660        179.17	    14.663
  23.680        200.00	    15.492
  23.700        198.33	    15.427
  23.720        176.67	    14.560
  23.740        151.67	    13.491
  23.760        127.50	    12.369
  23.780        125.83	    12.288
  23.800        123.33	    12.166
  23.820         95.83	    10.724
  23.840         95.83	    10.724
  23.860         90.83	    10.440
  23.880        110.83	    11.533
  23.900         89.17	    10.344
  23.920        106.67	    11.314
  23.940         95.83	    10.724
  23.960        105.83	    11.269
  23.980        115.00	    11.747
  24.000         95.00	    10.677
  24.020         79.17	     9.747
  24.040         94.17	    10.630
  24.060         96.67	    10.770
  24.080         74.17	     9.434
  24.100         84.17	    10.050
  24.120         93.33	    10.583
  24.140         80.83	     9.849
  24.160        106.67	    11.314
  24.180         88.33	    10.296
  24.200         95.83	    10.724
  24.220         94.17	    10.630
  24.240        108.33	    11.402
  24.260        114.17	    11.705
  24.280        136.67	    12.806
  24.300        125.83	    12.288
  24.320        137.50	    12.845
  24.340        132.50	    12.610
  24.360        143.33	    13.115
  24.380        150.83	    13.454
  24.400        163.33	    14.000
  24.420        170.00	    14.283
  24.440        160.00	    13.856
  24.460        167.50	    14.177
  24.480        154.17	    13.601
  24.500        144.17	    13.153
  24.520        145.00	    13.191
  24.540        134.17	    12.689
  24.560        127.50	    12.369
  24.580        135.00	    12.728
  24.600        153.33	    13.565
  24.620        180.83	    14.731
  24.640        215.83	    16.093
  24.660        322.50	    19.672
  24.680        421.67	    22.494
  24.700        474.17	    23.854
  24.720        554.17	    25.788
  24.740        625.83	    27.404
  24.760        670.83	    28.373
  24.780        629.17	    27.477
  24.800        620.00	    27.276
  24.820        511.67	    24.779
  24.840        440.83	    23.000
  24.860        375.00	    21.213
  24.880        328.33	    19.849
  24.900        280.83	    18.358
  24.920        261.67	    17.720
  24.940        240.00	    16.971
  24.960        218.33	    16.186
  24.980        220.00	    16.248
  25.000        210.83	    15.906
  25.020        194.17	    15.264
  25.040        170.83	    14.318
  25.060        167.50	    14.177
  25.080        165.83	    14.107
  25.100        184.17	    14.866
  25.120        184.17	    14.866
  25.140        181.67	    14.765
  25.160        194.17	    15.264
  25.180        215.00	    16.062
  25.200        240.83	    17.000
  25.220        285.00	    18.493
  25.240        377.50	    21.284
  25.260        415.00	    22.316
  25.280        437.50	    22.913
  25.300        465.83	    23.643
  25.320        413.33	    22.271
  25.340        322.50	    19.672
  25.360        318.33	    19.545
  25.380        269.17	    17.972
  25.400        203.33	    15.620
  25.420        175.00	    14.491
  25.440        165.00	    14.071
  25.460        158.33	    13.784
  25.480        165.83	    14.107
  25.500        155.83	    13.675
  25.520        181.67	    14.765
  25.540        176.67	    14.560
  25.560        190.00	    15.100
  25.580        197.50	    15.395
  25.600        189.17	    15.067
  25.620        201.67	    15.556
  25.640        220.83	    16.279
  25.660        205.00	    15.684
  25.680        192.50	    15.199
  25.700        150.83	    13.454
  25.720        155.00	    13.638
  25.740        162.50	    13.964
  25.760        150.83	    13.454
  25.780        159.17	    13.820
  25.800        148.33	    13.342
  25.820        114.17	    11.705
  25.840        117.50	    11.874
  25.860        114.17	    11.705
  25.880        108.33	    11.402
  25.900        115.83	    11.790
  25.920         90.83	    10.440
  25.940         84.17	    10.050
  25.960         85.83	    10.149
  25.980         77.50	     9.644
  26.000         94.17	    10.630
  26.020         83.33	    10.000
  26.040         66.67	     8.944
  26.060         94.17	    10.630
  26.080         72.50	     9.327
  26.100         81.67	     9.899
  26.120        100.00	    10.954
  26.140         81.67	     9.899
  26.160         85.83	    10.149
  26.180         70.00	     9.165
  26.200         89.17	    10.344
  26.220         84.17	    10.050
  26.240         85.83	    10.149
  26.260         91.67	    10.488
  26.280         93.33	    10.583
  26.300         94.17	    10.630
  26.320        119.17	    11.958
  26.340        110.83	    11.533
  26.360        114.17	    11.705
  26.380        115.00	    11.747
  26.400        110.83	    11.533
  26.420        143.33	    13.115
  26.440        178.33	    14.629
  26.460        181.67	    14.765
  26.480        181.67	    14.765
  26.500        202.50	    15.588
  26.520        210.83	    15.906
  26.540        236.67	    16.852
  26.560        249.17	    17.292
  26.580        262.50	    17.748
  26.600        291.67	    18.708
  26.620        289.17	    18.628
  26.640        275.00	    18.166
  26.660        307.50	    19.209
  26.680        420.00	    22.450
  26.700        540.83	    25.475
  26.720        815.00	    31.273
  26.740       1155.00	    37.229
  26.760       1384.17	    40.755
  26.780       1728.33	    45.541
  26.800       1717.50	    45.398
  26.820       1457.50	    41.821
  26.840       1240.83	    38.588
  26.860       1060.00	    35.665
  26.880        795.00	    30.887
  26.900        681.67	    28.601
  26.920        600.00	    26.833
  26.940        563.33	    26.000
  26.960        640.00	    27.713
  26.980        681.67	    28.601
  27.000        675.83	    28.478
  27.020        645.00	    27.821
  27.040        605.00	    26.944
  27.060        497.50	    24.434
  27.080        463.33	    23.580
  27.100        356.67	    20.688
  27.120        298.33	    18.921
  27.140        218.33	    16.186
  27.160        211.67	    15.937
  27.180        166.67	    14.142
  27.200        172.50	    14.387
  27.220        155.00	    13.638
  27.240        156.67	    13.711
  27.260        108.33	    11.402
  27.280        122.50	    12.124
  27.300        122.50	    12.124
  27.320        115.83	    11.790
  27.340        121.67	    12.083
  27.360        107.50	    11.358
  27.380        124.17	    12.207
  27.400        105.00	    11.225
  27.420        114.17	    11.705
  27.440        108.33	    11.402
  27.460        115.83	    11.790
  27.480        116.67	    11.832
  27.500        110.00	    11.489
  27.520         96.67	    10.770
  27.540        132.50	    12.610
  27.560        126.67	    12.329
  27.580        180.00	    14.697
  27.600        185.83	    14.933
  27.620        190.00	    15.100
  27.640        215.00	    16.062
  27.660        238.33	    16.912
  27.680        175.00	    14.491
  27.700        156.67	    13.711
  27.720        164.17	    14.036
  27.740        127.50	    12.369
  27.760        132.50	    12.610
  27.780        131.67	    12.570
  27.800        143.33	    13.115
  27.820        220.00	    16.248
  27.840        272.50	    18.083
  27.860        260.83	    17.692
  27.880        286.67	    18.547
  27.900        289.17	    18.628
  27.920        300.00	    18.974
  27.940        303.33	    19.079
  27.960        282.50	    18.412
  27.980        362.50	    20.857
  28.000        412.50	    22.249
  28.020        489.17	    24.228
  28.040        534.17	    25.318
  28.060        584.17	    26.476
  28.080        553.33	    25.768
  28.100        495.83	    24.393
  28.120        461.67	    23.537
  28.140        432.50	    22.782
  28.160        387.50	    21.564
  28.180        302.50	    19.053
  28.200        197.50	    15.395
  28.220        231.67	    16.673
  28.240        221.67	    16.310
  28.260        207.50	    15.780
  28.280        174.17	    14.457
  28.300        190.83	    15.133
  28.320        164.17	    14.036
  28.340        153.33	    13.565
  28.360        169.17	    14.248
  28.380        138.33	    12.884
  28.400        174.17	    14.457
  28.420        180.83	    14.731
  28.440        165.83	    14.107
  28.460        165.00	    14.071
  28.480        133.33	    12.649
  28.500        161.67	    13.928
  28.520        122.50	    12.124
  28.540        115.83	    11.790
  28.560         86.67	    10.198
  28.580         96.67	    10.770
  28.600         85.83	    10.149
  28.620         75.00	     9.487
  28.640        101.67	    11.045
  28.660        121.67	    12.083
  28.680        164.17	    14.036
  28.700        173.33	    14.422
  28.720        212.50	    15.969
  28.740        201.67	    15.556
  28.760        196.67	    15.362
  28.780        206.67	    15.748
  28.800        193.33	    15.232
  28.820        190.83	    15.133
  28.840        148.33	    13.342
  28.860        150.83	    13.454
  28.880        129.17	    12.450
  28.900        135.00	    12.728
  28.920        127.50	    12.369
  28.940        105.83	    11.269
  28.960        101.67	    11.045
  28.980         92.50	    10.536
  29.000         75.83	     9.539
  29.020         71.67	     9.274
  29.040         77.50	     9.644
  29.060         67.50	     9.000
  29.080         52.50	     7.937
  29.100         60.83	     8.544
  29.120         55.83	     8.185
  29.140         68.33	     9.055
  29.160         68.33	     9.055
  29.180         67.50	     9.000
  29.200         63.33	     8.718
  29.220         48.33	     7.616
  29.240         50.00	     7.746
  29.260         50.00	     7.746
  29.280         69.17	     9.110
  29.300         58.33	     8.367
  29.320         51.67	     7.874
  29.340         56.67	     8.246
  29.360         44.17	     7.280
  29.380         60.83	     8.544
  29.400         50.00	     7.746
  29.420         55.00	     8.124
  29.440         60.00	     8.485
  29.460         39.17	     6.856
  29.480         44.17	     7.280
  29.500         51.67	     7.874
  29.520         58.33	     8.367
  29.540         38.33	     6.782
  29.560         55.83	     8.185
  29.580         55.00	     8.124
  29.600         51.67	     7.874
  29.620         60.00	     8.485
  29.640         50.83	     7.810
  29.660         51.67	     7.874
  29.680         65.00	     8.832
  29.700         49.17	     7.681
  29.720         67.50	     9.000
  29.740         68.33	     9.055
  29.760         72.50	     9.327
  29.780         56.67	     8.246
  29.800         68.33	     9.055
  29.820         67.50	     9.000
  29.840         75.83	     9.539
  29.860         77.50	     9.644
  29.880         90.00	    10.392
  29.900        114.17	    11.705
  29.920        151.67	    13.491
  29.940        147.50	    13.304
  29.960        151.67	    13.491
  29.980        179.17	    14.663
  30.000        180.00	    14.697
  30.020        201.67	    15.556
  30.040        170.00	    14.283
  30.060        162.50	    13.964
  30.080        153.33	    13.565
  30.100        151.67	    13.491
  30.120        131.67	    12.570
  30.140        118.33	    11.916
  30.160        120.00	    12.000
  30.180        127.50	    12.369
  30.200        108.33	    11.402
  30.220        130.83	    12.530
  30.240        102.50	    11.091
  30.260        125.00	    12.247
  30.280        105.83	    11.269
  30.300        105.00	    11.225
  30.320        106.67	    11.314
  30.340        130.00	    12.490
  30.360         87.50	    10.247
  30.380        119.17	    11.958
  30.400         99.17	    10.909
  30.420         94.17	    10.630
  30.440        101.67	    11.045
  30.460         91.67	    10.488
  30.480        100.00	    10.954
  30.500        131.67	    12.570
  30.520        121.67	    12.083
  30.540        123.33	    12.166
  30.560        120.83	    12.042
  30.580        122.50	    12.124
  30.600        130.00	    12.490
  30.620        156.67	    13.711
  30.640        140.00	    12.961
  30.660        142.50	    13.077
  30.680        108.33	    11.402
  30.700        114.17	    11.705
  30.720        103.33	    11.136
  30.740        103.33	    11.136
  30.760         80.83	     9.849
  30.780         66.67	     8.944
  30.800         85.83	    10.149
  30.820         69.17	     9.110
  30.840         76.67	     9.592
  30.860         80.83	     9.849
  30.880         81.67	     9.899
  30.900         94.17	    10.630
  30.920         71.67	     9.274
  30.940         92.50	    10.536
  30.960        120.83	    12.042
  30.980        129.17	    12.450
  31.000        131.67	    12.570
  31.020        125.83	    12.288
  31.040         94.17	    10.630
  31.060        113.33	    11.662
  31.080        117.50	    11.874
  31.100         92.50	    10.536
  31.120         90.83	    10.440
  31.140         83.33	    10.000
  31.160        101.67	    11.045
  31.180        112.50	    11.619
  31.200         95.83	    10.724
  31.220        120.00	    12.000
  31.240        107.50	    11.358
  31.260        106.67	    11.314
  31.280        115.83	    11.790
  31.300        141.67	    13.038
  31.320        149.17	    13.379
  31.340        157.50	    13.748
  31.360        169.17	    14.248
  31.380        180.00	    14.697
  31.400        185.83	    14.933
  31.420        150.83	    13.454
  31.440        162.50	    13.964
  31.460        151.67	    13.491
  31.480        125.83	    12.288
  31.500        115.83	    11.790
  31.520        117.50	    11.874
  31.540         95.00	    10.677
  31.560         82.50	     9.950
  31.580         96.67	    10.770
  31.600         85.00	    10.100
  31.620        100.83	    11.000
  31.640         92.50	    10.536
  31.660         82.50	     9.950
  31.680        108.33	    11.402
  31.700        103.33	    11.136
  31.720        105.83	    11.269
  31.740        105.00	    11.225
  31.760        125.00	    12.247
  31.780        107.50	    11.358
  31.800         82.50	     9.950
  31.820         80.00	     9.798
  31.840         83.33	    10.000
  31.860         61.67	     8.602
  31.880         61.67	     8.602
  31.900         78.33	     9.695
  31.920         60.00	     8.485
  31.940         68.33	     9.055
  31.960         60.00	     8.485
  31.980         71.67	     9.274
  32.000         76.67	     9.592
  32.020         88.33	    10.296
  32.040         75.00	     9.487
  32.060         75.00	     9.487
  32.080         75.00	     9.487
  32.100         85.83	    10.149
  32.120         77.50	     9.644
  32.140         76.67	     9.592
  32.160        107.50	    11.358
  32.180        115.83	    11.790
  32.200        110.83	    11.533
  32.220        100.83	    11.000
  32.240        115.00	    11.747
  32.260        109.17	    11.446
  32.280        104.17	    11.180
  32.300        105.83	    11.269
  32.320         88.33	    10.296
  32.340         91.67	    10.488
  32.360         99.17	    10.909
  32.380         75.00	     9.487
  32.400         69.17	     9.110
  32.420         66.67	     8.944
  32.440         65.00	     8.832
  32.460         43.33	     7.211
  32.480         55.83	     8.185
  32.500         75.00	     9.487
  32.520         55.83	     8.185
  32.540         55.00	     8.124
  32.560         50.83	     7.810
  32.580         52.50	     7.937
  32.600         56.67	     8.246
  32.620         40.83	     7.000
  32.640         63.33	     8.718
  32.660         45.00	     7.348
  32.680         47.50	     7.550
  32.700         55.00	     8.124
  32.720         59.17	     8.426
  32.740         57.50	     8.307
  32.760         48.33	     7.616
  32.780         47.50	     7.550
  32.800         44.17	     7.280
  32.820         63.33	     8.718
  32.840         56.67	     8.246
  32.860         45.00	     7.348
  32.880         47.50	     7.550
  32.900         58.33	     8.367
  32.920         53.33	     8.000
  32.940         55.83	     8.185
  32.960         41.67	     7.071
  32.980         50.00	     7.746
  33.000         44.17	     7.280
  33.020         49.17	     7.681
  33.040         51.67	     7.874
  33.060         67.50	     9.000
  33.080         59.17	     8.426
  33.100         65.83	     8.888
  33.120         85.83	    10.149
  33.140         73.33	     9.381
  33.160        120.83	    12.042
  33.180        125.83	    12.288
  33.200        113.33	    11.662
  33.220         83.33	    10.000
  33.240         93.33	    10.583
  33.260         87.50	    10.247
  33.280         76.67	     9.592
  33.300        100.00	    10.954
  33.320         68.33	     9.055
  33.340         55.00	     8.124
  33.360         64.17	     8.775
  33.380         61.67	     8.602
  33.400         70.83	     9.220
  33.420         80.00	     9.798
  33.440         53.33	     8.000
  33.460         59.17	     8.426
  33.480         70.00	     9.165
  33.500         70.00	     9.165
  33.520         50.00	     7.746
  33.540         80.00	     9.798
  33.560         57.50	     8.307
  33.580         53.33	     8.000
  33.600         51.67	     7.874
  33.620         54.17	     8.062
  33.640         53.33	     8.000
  33.660         52.50	     7.937
  33.680         54.17	     8.062
  33.700         60.00	     8.485
  33.720         49.17	     7.681
  33.740         55.00	     8.124
  33.760         55.83	     8.185
  33.780         46.67	     7.483
  33.800         43.33	     7.211
  33.820         43.33	     7.211
  33.840         50.00	     7.746
  33.860         52.50	     7.937
  33.880         54.17	     8.062
  33.900         48.33	     7.616
  33.920         50.83	     7.810
  33.940         55.00	     8.124
  33.960         52.50	     7.937
  33.980         52.50	     7.937
  34.000         46.67	     7.483
  34.020         67.50	     9.000
  34.040         75.83	     9.539
  34.060         67.50	     9.000
  34.080         78.33	     9.695
  34.100         71.67	     9.274
  34.120         55.00	     8.124
  34.140         51.67	     7.874
  34.160         66.67	     8.944
  34.180         74.17	     9.434
  34.200         87.50	    10.247
  34.220         78.33	     9.695
  34.240         66.67	     8.944
  34.260         70.83	     9.220
  34.280         64.17	     8.775
  34.300         61.67	     8.602
  34.320         60.00	     8.485
  34.340         63.33	     8.718
  34.360         71.67	     9.274
  34.380         46.67	     7.483
  34.400         55.00	     8.124
  34.420         60.00	     8.485
  34.440         65.83	     8.888
  34.460         65.83	     8.888
  34.480         67.50	     9.000
  34.500         84.17	    10.050
  34.520         63.33	     8.718
  34.540         63.33	     8.718
  34.560         81.67	     9.899
  34.580         80.83	     9.849
  34.600         95.00	    10.677
  34.620         79.17	     9.747
  34.640         94.17	    10.630
  34.660        114.17	    11.705
  34.680        104.17	    11.180
  34.700        110.83	    11.533
  34.720        113.33	    11.662
  34.740        121.67	    12.083
  34.760        106.67	    11.314
  34.780        106.67	    11.314
  34.800        105.00	    11.225
  34.820         99.17	    10.909
  34.840        104.17	    11.180
  34.860         80.83	     9.849
  34.880         90.83	    10.440
  34.900         99.17	    10.909
  34.920        110.83	    11.533
  34.940         75.00	     9.487
  34.960         92.50	    10.536
  34.980        117.50	    11.874
  35.000        101.67	    11.045
  35.020        127.50	    12.369
  35.040        156.67	    13.711
  35.060        155.00	    13.638
  35.080        139.17	    12.923
  35.100        158.33	    13.784
  35.120        156.67	    13.711
  35.140        168.33	    14.213
  35.160        156.67	    13.711
  35.180        170.00	    14.283
  35.200        156.67	    13.711
  35.220        140.00	    12.961
  35.240         99.17	    10.909
  35.260        129.17	    12.450
  35.280        111.67	    11.576
  35.300        120.83	    12.042
  35.320         91.67	    10.488
  35.340         90.00	    10.392
  35.360         83.33	    10.000
  35.380         68.33	     9.055
  35.400         88.33	    10.296
  35.420         95.00	    10.677
  35.440        106.67	    11.314
  35.460         90.00	    10.392
  35.480         82.50	     9.950
  35.500         84.17	    10.050
  35.520         91.67	    10.488
  35.540        115.83	    11.790
  35.560         96.67	    10.770
  35.580        103.33	    11.136
  35.600        118.33	    11.916
  35.620        138.33	    12.884
  35.640        145.00	    13.191
  35.660        169.17	    14.248
  35.680        167.50	    14.177
  35.700        174.17	    14.457
  35.720        171.67	    14.353
  35.740        155.83	    13.675
  35.760        165.00	    14.071
  35.780        148.33	    13.342
  35.800        183.33	    14.832
  35.820        120.00	    12.000
  35.840        132.50	    12.610
  35.860        104.17	    11.180
  35.880        109.17	    11.446
  35.900        110.83	    11.533
  35.920         85.83	    10.149
  35.940         97.50	    10.817
  35.960         80.83	     9.849
  35.980         64.17	     8.775
  36.000         75.00	     9.487
  36.020         79.17	     9.747
  36.040         82.50	     9.950
  36.060         63.33	     8.718
  36.080         69.17	     9.110
  36.100         82.50	     9.950
  36.120         89.17	    10.344
  36.140         92.50	    10.536
  36.160        102.50	    11.091
  36.180         95.00	    10.677
  36.200         90.83	    10.440
  36.220         86.67	    10.198
  36.240        100.83	    11.000
  36.260         76.67	     9.592
  36.280         86.67	    10.198
  36.300         85.83	    10.149
  36.320         68.33	     9.055
  36.340         77.50	     9.644
  36.360         66.67	     8.944
  36.380         59.17	     8.426
  36.400         48.33	     7.616
  36.420         53.33	     8.000
  36.440         60.83	     8.544
  36.460         52.50	     7.937
  36.480         53.33	     8.000
  36.500         76.67	     9.592
  36.520         67.50	     9.000
  36.540         70.00	     9.165
  36.560         70.83	     9.220
  36.580         69.17	     9.110
  36.600         94.17	    10.630
  36.620        117.50	    11.874
  36.640        147.50	    13.304
  36.660        184.17	    14.866
  36.680        170.83	    14.318
  36.700        168.33	    14.213
  36.720        140.00	    12.961
  36.740        146.67	    13.266
  36.760        136.67	    12.806
  36.780        148.33	    13.342
  36.800        140.00	    12.961
  36.820        115.00	    11.747
  36.840        125.00	    12.247
  36.860        119.17	    11.958
  36.880        135.00	    12.728
  36.900        146.67	    13.266
  36.920        151.67	    13.491
  36.940        125.00	    12.247
  36.960         81.67	     9.899
  36.980         99.17	    10.909
  37.000         95.83	    10.724
  37.020         88.33	    10.296
  37.040         69.17	     9.110
  37.060         69.17	     9.110
  37.080         67.50	     9.000
  37.100         79.17	     9.747
  37.120         65.00	     8.832
  37.140         76.67	     9.592
  37.160         82.50	     9.950
  37.180         45.83	     7.416
  37.200         70.83	     9.220
  37.220         55.00	     8.124
  37.240         84.17	    10.050
  37.260         68.33	     9.055
  37.280         79.17	     9.747
  37.300         78.33	     9.695
  37.320         65.83	     8.888
  37.340         95.83	    10.724
  37.360         88.33	    10.296
  37.380         81.67	     9.899
  37.400         77.50	     9.644
  37.420         77.50	     9.644
  37.440         80.83	     9.849
  37.460         81.67	     9.899
  37.480         59.17	     8.426
  37.500         65.83	     8.888
  37.520         79.17	     9.747
  37.540         77.50	     9.644
  37.560         85.00	    10.100
  37.580         82.50	     9.950
  37.600         73.33	     9.381
  37.620         69.17	     9.110
  37.640         87.50	    10.247
  37.660         87.50	    10.247
  37.680         86.67	    10.198
  37.700         69.17	     9.110
  37.720         75.83	     9.539
  37.740         85.83	    10.149
  37.760         82.50	     9.950
  37.780        101.67	    11.045
  37.800        104.17	    11.180
  37.820         93.33	    10.583
  37.840         91.67	    10.488
  37.860        106.67	    11.314
  37.880         76.67	     9.592
  37.900         83.33	    10.000
  37.920         85.83	    10.149
  37.940         77.50	     9.644
  37.960         75.83	     9.539
  37.980         70.83	     9.220
  38.000         65.00	     8.832
  38.020         57.50	     8.307
  38.040         49.17	     7.681
  38.060         50.00	     7.746
  38.080         49.17	     7.681
  38.100         42.50	     7.141
  38.120         69.17	     9.110
  38.140         51.67	     7.874
  38.160         43.33	     7.211
  38.180         45.83	     7.416
  38.200         57.50	     8.307
  38.220         33.33	     6.325
  38.240         37.50	     6.708
  38.260         35.83	     6.557
  38.280         29.17	     5.916
  38.300         45.83	     7.416
  38.320         54.17	     8.062
  38.340         47.50	     7.550
  38.360         39.17	     6.856
  38.380         38.33	     6.782
  38.400         46.67	     7.483
  38.420         36.67	     6.633
  38.440         40.83	     7.000
  38.460         40.00	     6.928
  38.480         36.67	     6.633
  38.500         45.83	     7.416
  38.520         51.67	     7.874
  38.540         51.67	     7.874
  38.560         53.33	     8.000
  38.580         47.50	     7.550
  38.600         39.17	     6.856
  38.620         55.00	     8.124
  38.640         49.17	     7.681
  38.660         43.33	     7.211
  38.680         47.50	     7.550
  38.700         72.50	     9.327
  38.720         59.17	     8.426
  38.740         65.83	     8.888
  38.760         71.67	     9.274
  38.780         65.00	     8.832
  38.800         76.67	     9.592
  38.820         72.50	     9.327
  38.840         57.50	     8.307
  38.860         66.67	     8.944
  38.880         64.17	     8.775
  38.900         58.33	     8.367
  38.920         74.17	     9.434
  38.940         65.83	     8.888
  38.960         80.83	     9.849
  38.980         60.00	     8.485
  39.000         67.50	     9.000
  39.020         58.33	     8.367
  39.040         58.33	     8.367
  39.060         65.00	     8.832
  39.080         55.83	     8.185
  39.100         59.17	     8.426
  39.120         55.83	     8.185
  39.140         56.67	     8.246
  39.160         48.33	     7.616
  39.180         42.50	     7.141
  39.200         50.83	     7.810
  39.220         45.83	     7.416
  39.240         36.67	     6.633
  39.260         54.17	     8.062
  39.280         53.33	     8.000
  39.300         45.83	     7.416
  39.320         45.83	     7.416
  39.340         54.17	     8.062
  39.360         48.33	     7.616
  39.380         51.67	     7.874
  39.400         58.33	     8.367
  39.420         46.67	     7.483
  39.440         45.83	     7.416
  39.460         40.83	     7.000
  39.480         48.33	     7.616
  39.500         44.17	     7.280
  39.520         52.50	     7.937
  39.540         73.33	     9.381
  39.560         85.83	    10.149
  39.580        109.17	    11.446
  39.600        129.17	    12.450
  39.620        122.50	    12.124
  39.640        104.17	    11.180
  39.660         97.50	    10.817
  39.680         99.17	    10.909
  39.700        107.50	    11.358
  39.720         98.33	    10.863
  39.740         84.17	    10.050
  39.760         77.50	     9.644
  39.780         65.00	     8.832
  39.800         60.83	     8.544
  39.820         63.33	     8.718
  39.840         71.67	     9.274
  39.860         59.17	     8.426
  39.880         68.33	     9.055
  39.900         56.67	     8.246
  39.920         55.00	     8.124
  39.940         55.83	     8.185
  39.960         64.17	     8.775
  39.980         66.67	     8.944
  40.000         45.00	     7.348
  40.020         54.17	     8.062
  40.040         44.17	     7.280
  40.060         58.33	     8.367
  40.080         64.17	     8.775
  40.100         55.00	     8.124
  40.120         60.00	     8.485
  40.140         60.00	     8.485
  40.160         64.17	     8.775
  40.180         59.17	     8.426
  40.200         51.67	     7.874
  40.220         50.83	     7.810
  40.240         56.67	     8.246
  40.260         40.83	     7.000
  40.280         44.17	     7.280
  40.300         35.83	     6.557
  40.320         56.67	     8.246
  40.340         52.50	     7.937
  40.360         65.83	     8.888
  40.380         78.33	     9.695
  40.400         79.17	     9.747
  40.420        102.50	    11.091
  40.440        137.50	    12.845
  40.460        155.00	    13.638
  40.480        123.33	    12.166
  40.500         92.50	    10.536
  40.520         80.83	     9.849
  40.540         78.33	     9.695
  40.560         90.83	    10.440
  40.580         81.67	     9.899
  40.600         60.83	     8.544
  40.620         56.67	     8.246
  40.640         50.83	     7.810
  40.660         46.67	     7.483
  40.680         53.33	     8.000
  40.700         44.17	     7.280
  40.720         45.00	     7.348
  40.740         59.17	     8.426
  40.760         43.33	     7.211
  40.780         57.50	     8.307
  40.800         45.00	     7.348
  40.820         41.67	     7.071
  40.840         31.67	     6.164
  40.860         42.50	     7.141
  40.880         38.33	     6.782
  40.900         45.00	     7.348
  40.920         47.50	     7.550
  40.940         39.17	     6.856
  40.960         40.00	     6.928
  40.980         55.00	     8.124
  41.000         59.17	     8.426
  41.020         58.33	     8.367
  41.040         58.33	     8.367
  41.060         51.67	     7.874
  41.080         54.17	     8.062
  41.100         55.83	     8.185
  41.120         43.33	     7.211
  41.140         46.67	     7.483
  41.160         45.00	     7.348
  41.180         52.50	     7.937
  41.200         45.00	     7.348
  41.220         45.00	     7.348
  41.240         45.00	     7.348
  41.260         35.83	     6.557
  41.280         53.33	     8.000
  41.300         55.83	     8.185
  41.320         46.67	     7.483
  41.340         44.17	     7.280
  41.360         52.50	     7.937
  41.380         63.33	     8.718
  41.400         58.33	     8.367
  41.420         58.33	     8.367
  41.440         72.50	     9.327
  41.460         58.33	     8.367
  41.480         49.17	     7.681
  41.500         47.50	     7.550
  41.520         58.33	     8.367
  41.540         52.50	     7.937
  41.560         50.83	     7.810
  41.580         49.17	     7.681
  41.600         54.17	     8.062
  41.620         38.33	     6.782
  41.640         53.33	     8.000
  41.660         59.17	     8.426
  41.680         51.67	     7.874
  41.700         56.67	     8.246
  41.720         56.67	     8.246
  41.740         54.17	     8.062
  41.760         66.67	     8.944
  41.780         73.33	     9.381
  41.800         68.33	     9.055
  41.820         80.83	     9.849
  41.840         89.17	    10.344
  41.860         97.50	    10.817
  41.880        110.00	    11.489
  41.900        104.17	    11.180
  41.920         95.83	    10.724
  41.940         90.83	    10.440
  41.960         90.00	    10.392
  41.980         77.50	     9.644
  42.000         99.17	    10.909
  42.020         84.17	    10.050
  42.040         86.67	    10.198
  42.060         87.50	    10.247
  42.080         85.00	    10.100
  42.100         89.17	    10.344
  42.120         91.67	    10.488
  42.140         74.17	     9.434
  42.160         63.33	     8.718
  42.180         75.83	     9.539
  42.200         70.83	     9.220
  42.220         77.50	     9.644
  42.240         74.17	     9.434
  42.260         69.17	     9.110
  42.280         50.00	     7.746
  42.300         69.17	     9.110
  42.320         56.67	     8.246
  42.340         63.33	     8.718
  42.360         60.00	     8.485
  42.380         55.00	     8.124
  42.400         63.33	     8.718
  42.420         70.00	     9.165
  42.440         90.83	    10.440
  42.460         80.00	     9.798
  42.480         82.50	     9.950
  42.500         85.83	    10.149
  42.520         89.17	    10.344
  42.540        102.50	    11.091
  42.560        127.50	    12.369
  42.580        169.17	    14.248
  42.600        150.00	    13.416
  42.620        154.17	    13.601
  42.640        100.00	    10.954
  42.660        109.17	    11.446
  42.680        121.67	    12.083
  42.700        104.17	    11.180
  42.720         97.50	    10.817
  42.740         80.00	     9.798
  42.760         70.83	     9.220
  42.780         72.50	     9.327
  42.800         55.83	     8.185
  42.820         49.17	     7.681
  42.840         45.83	     7.416
  42.860         56.67	     8.246
  42.880         60.83	     8.544
  42.900         49.17	     7.681
  42.920         49.17	     7.681
  42.940         47.50	     7.550
  42.960         44.17	     7.280
  42.980         60.83	     8.544
  43.000         53.33	     8.000
  43.020         56.67	     8.246
  43.040         37.50	     6.708
  43.060         54.17	     8.062
  43.080         57.50	     8.307
  43.100         55.83	     8.185
  43.120         50.83	     7.810
  43.140         55.83	     8.185
  43.160         46.67	     7.483
  43.180         49.17	     7.681
  43.200         35.83	     6.557
  43.220         34.17	     6.403
  43.240         38.33	     6.782
  43.260         40.83	     7.000
  43.280         45.83	     7.416
  43.300         44.17	     7.280
  43.320         32.50	     6.245
  43.340         37.50	     6.708
  43.360         39.17	     6.856
  43.380         40.00	     6.928
  43.400         32.50	     6.245
  43.420         46.67	     7.483
  43.440         50.00	     7.746
  43.460         38.33	     6.782
  43.480         37.50	     6.708
  43.500         30.83	     6.083
  43.520         42.50	     7.141
  43.540         29.17	     5.916
  43.560         44.17	     7.280
  43.580         40.83	     7.000
  43.600         37.50	     6.708
  43.620         54.17	     8.062
  43.640         50.00	     7.746
  43.660         61.67	     8.602
  43.680         53.33	     8.000
  43.700         50.83	     7.810
  43.720         48.33	     7.616
  43.740         50.00	     7.746
  43.760         46.67	     7.483
  43.780         50.83	     7.810
  43.800         42.50	     7.141
  43.820         54.17	     8.062
  43.840         38.33	     6.782
  43.860         53.33	     8.000
  43.880         56.67	     8.246
  43.900         43.33	     7.211
  43.920         46.67	     7.483
  43.940         41.67	     7.071
  43.960         40.00	     6.928
  43.980         44.17	     7.280
  44.000         42.50	     7.141
  44.020         40.00	     6.928
  44.040         34.17	     6.403
  44.060         47.50	     7.550
  44.080         36.67	     6.633
  44.100         53.33	     8.000
  44.120         38.33	     6.782
  44.140         45.83	     7.416
  44.160         37.50	     6.708
  44.180         45.83	     7.416
  44.200         48.33	     7.616
  44.220         38.33	     6.782
  44.240         53.33	     8.000
  44.260         50.83	     7.810
  44.280         35.83	     6.557
  44.300         35.83	     6.557
  44.320         48.33	     7.616
  44.340         52.50	     7.937
  44.360         60.83	     8.544
  44.380         55.83	     8.185
  44.400         55.83	     8.185
  44.420         48.33	     7.616
  44.440         55.00	     8.124
  44.460         45.00	     7.348
  44.480         55.83	     8.185
  44.500         37.50	     6.708
  44.520         48.33	     7.616
  44.540         36.67	     6.633
  44.560         53.33	     8.000
  44.580         44.17	     7.280
  44.600         51.67	     7.874
  44.620         52.50	     7.937
  44.640         48.33	     7.616
  44.660         35.83	     6.557
  44.680         41.67	     7.071
  44.700         39.17	     6.856
  44.720         46.67	     7.483
  44.740         57.50	     8.307
  44.760         40.83	     7.000
  44.780         53.33	     8.000
  44.800         45.00	     7.348
  44.820         45.83	     7.416
  44.840         53.33	     8.000
  44.860         63.33	     8.718
  44.880         61.67	     8.602
  44.900         62.50	     8.660
  44.920         60.83	     8.544
  44.940         58.33	     8.367
  44.960         58.33	     8.367
  44.980         73.33	     9.381
  45.000         71.67	     9.274
  45.020         78.33	     9.695
  45.040         77.50	     9.644
  45.060         91.67	    10.488
  45.080         94.17	    10.630
  45.100         79.17	     9.747
  45.120         69.17	     9.110
  45.140         87.50	    10.247
  45.160         69.17	     9.110
  45.180         71.67	     9.274
  45.200         71.67	     9.274
  45.220         78.33	     9.695
  45.240         72.50	     9.327
  45.260         97.50	    10.817
  45.280         98.33	    10.863
  45.300        102.50	    11.091
  45.320         86.67	    10.198
  45.340         79.17	     9.747
  45.360         89.17	    10.344
  45.380         93.33	    10.583
  45.400        113.33	    11.662
  45.420        115.00	    11.747
  45.440        144.17	    13.153
  45.460        140.83	    13.000
  45.480        134.17	    12.689
  45.500        140.83	    13.000
  45.520        164.17	    14.036
  45.540        160.83	    13.892
  45.560        179.17	    14.663
  45.580        197.50	    15.395
  45.600        218.33	    16.186
  45.620        223.33	    16.371
  45.640        227.50	    16.523
  45.660        199.17	    15.460
  45.680        245.83	    17.176
  45.700        262.50	    17.748
  45.720        241.67	    17.029
  45.740        238.33	    16.912
  45.760        197.50	    15.395
  45.780        184.17	    14.866
  45.800        167.50	    14.177
  45.820        174.17	    14.457
  45.840        135.83	    12.767
  45.860        145.83	    13.229
  45.880        133.33	    12.649
  45.900        119.17	    11.958
  45.920        136.67	    12.806
  45.940        128.33	    12.410
  45.960        125.83	    12.288
  45.980        104.17	    11.180
  46.000         86.67	    10.198
  46.020         85.00	    10.100
  46.040        104.17	    11.180
  46.060         91.67	    10.488
  46.080         85.83	    10.149
  46.100         76.67	     9.592
  46.120         83.33	    10.000
  46.140         69.17	     9.110
  46.160         68.33	     9.055
  46.180         61.67	     8.602
  46.200         52.50	     7.937
  46.220         63.33	     8.718
  46.240         65.83	     8.888
  46.260         67.50	     9.000
  46.280         55.00	     8.124
  46.300         65.83	     8.888
  46.320         43.33	     7.211
  46.340         46.67	     7.483
  46.360         51.67	     7.874
  46.380         37.50	     6.708
  46.400         47.50	     7.550
  46.420         35.00	     6.481
  46.440         44.17	     7.280
  46.460         39.17	     6.856
  46.480         33.33	     6.325
  46.500         44.17	     7.280
  46.520         41.67	     7.071
  46.540         44.17	     7.280
  46.560         33.33	     6.325
  46.580         33.33	     6.325
  46.600         40.83	     7.000
  46.620         35.83	     6.557
  46.640         33.33	     6.325
  46.660         35.83	     6.557
  46.680         32.50	     6.245
  46.700         51.67	     7.874
  46.720         45.00	     7.348
  46.740         38.33	     6.782
  46.760         38.33	     6.782
  46.780         36.67	     6.633
  46.800         40.83	     7.000
  46.820         41.67	     7.071
  46.840         45.00	     7.348
  46.860         38.33	     6.782
  46.880         44.17	     7.280
  46.900         32.50	     6.245
  46.920         35.00	     6.481
  46.940         37.50	     6.708
  46.960         37.50	     6.708
  46.980         40.83	     7.000
  47.000         45.83	     7.416
  47.020         43.33	     7.211
  47.040         29.17	     5.916
  47.060         44.17	     7.280
  47.080         47.50	     7.550
  47.100         35.00	     6.481
  47.120         33.33	     6.325
  47.140         38.33	     6.782
  47.160         40.83	     7.000
  47.180         51.67	     7.874
  47.200         60.83	     8.544
  47.220         50.00	     7.746
  47.240         34.17	     6.403
  47.260         51.67	     7.874
  47.280         51.67	     7.874
  47.300         45.00	     7.348
  47.320         40.00	     6.928
  47.340         48.33	     7.616
  47.360         42.50	     7.141
  47.380         51.67	     7.874
  47.400         40.83	     7.000
  47.420         50.00	     7.746
  47.440         45.83	     7.416
  47.460         35.00	     6.481
  47.480         50.83	     7.810
  47.500         37.50	     6.708
  47.520         40.00	     6.928
  47.540         31.67	     6.164
  47.560         40.00	     6.928
  47.580         35.00	     6.481
  47.600         39.17	     6.856
  47.620         37.50	     6.708
  47.640         40.00	     6.928
  47.660         29.17	     5.916
  47.680         30.83	     6.083
  47.700         27.50	     5.745
  47.720         32.50	     6.245
  47.740         30.83	     6.083
  47.760         36.67	     6.633
  47.780         25.83	     5.568
  47.800         35.00	     6.481
  47.820         34.17	     6.403
  47.840         37.50	     6.708
  47.860         39.17	     6.856
  47.880         42.50	     7.141
  47.900         27.50	     5.745
  47.920         35.00	     6.481
  47.940         32.50	     6.245
  47.960         30.83	     6.083
  47.980         25.83	     5.568
  48.000         40.00	     6.928
  48.020         30.83	     6.083
  48.040         34.17	     6.403
  48.060         46.67	     7.483
  48.080         52.50	     7.937
  48.100         42.50	     7.141
  48.120         45.00	     7.348
  48.140         51.67	     7.874
  48.160         37.50	     6.708
  48.180         45.83	     7.416
  48.200         58.33	     8.367
  48.220         41.67	     7.071
  48.240         53.33	     8.000
  48.260         74.17	     9.434
  48.280         65.00	     8.832
  48.300         72.50	     9.327
  48.320         45.83	     7.416
  48.340         71.67	     9.274
  48.360         77.50	     9.644
  48.380         60.83	     8.544
  48.400         60.00	     8.485
  48.420         65.00	     8.832
  48.440         68.33	     9.055
  48.460         70.00	     9.165
  48.480         55.83	     8.185
  48.500         65.00	     8.832
  48.520         58.33	     8.367
  48.540         55.00	     8.124
  48.560         59.17	     8.426
  48.580         53.33	     8.000
  48.600         59.17	     8.426
  48.620         45.00	     7.348
  48.640         54.17	     8.062
  48.660         49.17	     7.681
  48.680         40.83	     7.000
  48.700         56.67	     8.246
  48.720         41.67	     7.071
  48.740         44.17	     7.280
  48.760         42.50	     7.141
  48.780         48.33	     7.616
  48.800         45.00	     7.348
  48.820         62.50	     8.660
  48.840         66.67	     8.944
  48.860         57.50	     8.307
  48.880         52.50	     7.937
  48.900         49.17	     7.681
  48.920         56.67	     8.246
  48.940         51.67	     7.874
  48.960         55.83	     8.185
  48.980         55.83	     8.185
  49.000         40.83	     7.000
  49.020         50.00	     7.746
  49.040         44.17	     7.280
  49.060         51.67	     7.874
  49.080         39.17	     6.856
  49.100         49.17	     7.681
  49.120         43.33	     7.211
  49.140         47.50	     7.550
  49.160         56.67	     8.246
  49.180         53.33	     8.000
  49.200         40.00	     6.928
  49.220         50.00	     7.746
  49.240         59.17	     8.426
  49.260         76.67	     9.592
  49.280        100.00	    10.954
  49.300         98.33	    10.863
  49.320         90.00	    10.392
  49.340         90.00	    10.392
  49.360         71.67	     9.274
  49.380         74.17	     9.434
  49.400         90.00	    10.392
  49.420         75.83	     9.539
  49.440         92.50	    10.536
  49.460         76.67	     9.592
  49.480         56.67	     8.246
  49.500         45.00	     7.348
  49.520         54.17	     8.062
  49.540         41.67	     7.071
  49.560         67.50	     9.000
  49.580         43.33	     7.211
  49.600         35.83	     6.557
  49.620         46.67	     7.483
  49.640         38.33	     6.782
  49.660         50.83	     7.810
  49.680         55.00	     8.124
  49.700         49.17	     7.681
  49.720         56.67	     8.246
  49.740         63.33	     8.718
  49.760         40.00	     6.928
  49.780         56.67	     8.246
  49.800         62.50	     8.660
  49.820         65.83	     8.888
  49.840         62.50	     8.660
  49.860         76.67	     9.592
  49.880         65.83	     8.888
  49.900         73.33	     9.381
  49.920         61.67	     8.602
  49.940         75.00	     9.487
  49.960         79.17	     9.747
  49.980         77.50	     9.644
  50.000         86.67	    10.198
  50.020         93.33	    10.583
  50.040         83.33	    10.000
  50.060         85.83	    10.149
  50.080        105.83	    11.269
  50.100         77.50	     9.644
  50.120         76.67	     9.592
  50.140         80.83	     9.849
  50.160         70.83	     9.220
  50.180         93.33	    10.583
  50.200        125.00	    12.247
  50.220        168.33	    14.213
  50.240        198.33	    15.427
  50.260        255.00	    17.493
  50.280        252.50	    17.407
  50.300        198.33	    15.427
  50.320        125.83	    12.288
  50.340        120.83	    12.042
  50.360        130.83	    12.530
  50.380        137.50	    12.845
  50.400        165.00	    14.071
  50.420        163.33	    14.000
  50.440        116.67	    11.832
  50.460         70.00	     9.165
  50.480         58.33	     8.367
  50.500         55.83	     8.185
  50.520         49.17	     7.681
  50.540         51.67	     7.874
  50.560         62.50	     8.660
  50.580         48.33	     7.616
  50.600         47.50	     7.550
  50.620         58.33	     8.367
  50.640         57.50	     8.307
  50.660         63.33	     8.718
  50.680         69.17	     9.110
  50.700         82.50	     9.950
  50.720         94.17	    10.630
  50.740        104.17	    11.180
  50.760        115.00	    11.747
  50.780        146.67	    13.266
  50.800        146.67	    13.266
  50.820         90.00	    10.392
  50.840         85.00	    10.100
  50.860         87.50	    10.247
  50.880         91.67	    10.488
  50.900         76.67	     9.592
  50.920         77.50	     9.644
  50.940         65.83	     8.888
  50.960         55.00	     8.124
  50.980         48.33	     7.616
  51.000         45.00	     7.348
  51.020         45.00	     7.348
  51.040         41.67	     7.071
  51.060         45.00	     7.348
  51.080         37.50	     6.708
  51.100         34.17	     6.403
  51.120         48.33	     7.616
  51.140         33.33	     6.325
  51.160         34.17	     6.403
  51.180         57.50	     8.307
  51.200         68.33	     9.055
  51.220         73.33	     9.381
  51.240        115.83	    11.790
  51.260        128.33	    12.410
  51.280         96.67	    10.770
  51.300         83.33	    10.000
  51.320         65.83	     8.888
  51.340         82.50	     9.950
  51.360         90.83	    10.440
  51.380         96.67	    10.770
  51.400         97.50	    10.817
  51.420         76.67	     9.592
  51.440         67.50	     9.000
  51.460         57.50	     8.307
  51.480         64.17	     8.775
  51.500         55.00	     8.124
  51.520         46.67	     7.483
  51.540         44.17	     7.280
  51.560         39.17	     6.856
  51.580         42.50	     7.141
  51.600         43.33	     7.211
  51.620         48.33	     7.616
  51.640         47.50	     7.550
  51.660         45.83	     7.416
  51.680         39.17	     6.856
  51.700         40.83	     7.000
  51.720         43.33	     7.211
  51.740         38.33	     6.782
  51.760         33.33	     6.325
  51.780         34.17	     6.403
  51.800         45.00	     7.348
  51.820         34.17	     6.403
  51.840         34.17	     6.403
  51.860         36.67	     6.633
  51.880         35.00	     6.481
  51.900         26.67	     5.657
  51.920         33.33	     6.325
  51.940         28.33	     5.831
  51.960         31.67	     6.164
  51.980         25.83	     5.568
  52.000         35.83	     6.557
  52.020         30.83	     6.083
  52.040         28.33	     5.831
  52.060         31.67	     6.164
  52.080         34.17	     6.403
  52.100         35.00	     6.481
  52.120         34.17	     6.403
  52.140         33.33	     6.325
  52.160         44.17	     7.280
  52.180         37.50	     6.708
  52.200         35.00	     6.481
  52.220         38.33	     6.782
  52.240         49.17	     7.681
  52.260         50.00	     7.746
  52.280         66.67	     8.944
  52.300         54.17	     8.062
  52.320         50.83	     7.810
  52.340         43.33	     7.211
  52.360         51.67	     7.874
  52.380         46.67	     7.483
  52.400         52.50	     7.937
  52.420         65.83	     8.888
  52.440         75.00	     9.487
  52.460         53.33	     8.000
  52.480         53.33	     8.000
  52.500         55.83	     8.185
  52.520         52.50	     7.937
  52.540         48.33	     7.616
  52.560         51.67	     7.874
  52.580         57.50	     8.307
  52.600         50.83	     7.810
  52.620         52.50	     7.937
  52.640         50.83	     7.810
  52.660         53.33	     8.000
  52.680         55.00	     8.124
  52.700         60.83	     8.544
  52.720         66.67	     8.944
  52.740         47.50	     7.550
  52.760         54.17	     8.062
  52.780         55.83	     8.185
  52.800         59.17	     8.426
  52.820         55.00	     8.124
  52.840         42.50	     7.141
  52.860         43.33	     7.211
  52.880         50.83	     7.810
  52.900         41.67	     7.071
  52.920         54.17	     8.062
  52.940         52.50	     7.937
  52.960         42.50	     7.141
  52.980         48.33	     7.616
  53.000         55.83	     8.185
  53.020         55.83	     8.185
  53.040         44.17	     7.280
  53.060         48.33	     7.616
  53.080         36.67	     6.633
  53.100         43.33	     7.211
  53.120         60.00	     8.485
  53.140         45.00	     7.348
  53.160         49.17	     7.681
  53.180         47.50	     7.550
  53.200         70.00	     9.165
  53.220         60.00	     8.485
  53.240         50.83	     7.810
  53.260         55.83	     8.185
  53.280         57.50	     8.307
  53.300         50.83	     7.810
  53.320         59.17	     8.426
  53.340         59.17	     8.426
  53.360         59.17	     8.426
  53.380         40.83	     7.000
  53.400         43.33	     7.211
  53.420         61.67	     8.602
  53.440         57.50	     8.307
  53.460         55.83	     8.185
  53.480         52.50	     7.937
  53.500         45.83	     7.416
  53.520         41.67	     7.071
  53.540         40.00	     6.928
  53.560         50.00	     7.746
  53.580         42.50	     7.141
  53.600         40.83	     7.000
  53.620         30.83	     6.083
  53.640         54.17	     8.062
  53.660         45.83	     7.416
  53.680         32.50	     6.245
  53.700         45.00	     7.348
  53.720         45.00	     7.348
  53.740         28.33	     5.831
  53.760         38.33	     6.782
  53.780         33.33	     6.325
  53.800         35.00	     6.481
  53.820         62.50	     8.660
  53.840         39.17	     6.856
  53.860         51.67	     7.874
  53.880         36.67	     6.633
  53.900         39.17	     6.856
  53.920         32.50	     6.245
  53.940         40.00	     6.928
  53.960         37.50	     6.708
  53.980         47.50	     7.550
  54.000         36.67	     6.633
  54.020         36.67	     6.633
  54.040         50.83	     7.810
  54.060         39.17	     6.856
  54.080         46.67	     7.483
  54.100         39.17	     6.856
  54.120         45.83	     7.416
  54.140         39.17	     6.856
  54.160         38.33	     6.782
  54.180         48.33	     7.616
  54.200         44.17	     7.280
  54.220         50.00	     7.746
  54.240         33.33	     6.325
  54.260         39.17	     6.856
  54.280         39.17	     6.856
  54.300         35.83	     6.557
  54.320         33.33	     6.325
  54.340         45.00	     7.348
  54.360         50.00	     7.746
  54.380         41.67	     7.071
  54.400         47.50	     7.550
  54.420         51.67	     7.874
  54.440         59.17	     8.426
  54.460         44.17	     7.280
  54.480         70.00	     9.165
  54.500         50.00	     7.746
  54.520         57.50	     8.307
  54.540         50.00	     7.746
  54.560         57.50	     8.307
  54.580         51.67	     7.874
  54.600         54.17	     8.062
  54.620         58.33	     8.367
  54.640         68.33	     9.055
  54.660         50.00	     7.746
  54.680         73.33	     9.381
  54.700         50.83	     7.810
  54.720         68.33	     9.055
  54.740         54.17	     8.062
  54.760         60.83	     8.544
  54.780         54.17	     8.062
  54.800         56.67	     8.246
  54.820         66.67	     8.944
  54.840         59.17	     8.426
  54.860         49.17	     7.681
  54.880         60.83	     8.544
  54.900         50.83	     7.810
  54.920         66.67	     8.944
  54.940         65.00	     8.832
  54.960         78.33	     9.695
  54.980        121.67	    12.083
  55.000        123.33	    12.166
  55.020         97.50	    10.817
  55.040         96.67	    10.770
  55.060         81.67	     9.899
  55.080         70.83	     9.220
  55.100         79.17	     9.747
  55.120         84.17	    10.050
  55.140         99.17	    10.909
  55.160         90.00	    10.392
  55.180        100.00	    10.954
  55.200         77.50	     9.644
  55.220         63.33	     8.718
  55.240         60.00	     8.485
  55.260         60.83	     8.544
  55.280         60.00	     8.485
  55.300         48.33	     7.616
  55.320         61.67	     8.602
  55.340         67.50	     9.000
  55.360         60.00	     8.485
  55.380         57.50	     8.307
  55.400         62.50	     8.660
  55.420         77.50	     9.644
  55.440         86.67	    10.198
  55.460         71.67	     9.274
  55.480         70.00	     9.165
  55.500         67.50	     9.000
  55.520         61.67	     8.602
  55.540         58.33	     8.367
  55.560         62.50	     8.660
  55.580         60.00	     8.485
  55.600         64.17	     8.775
  55.620         40.00	     6.928
  55.640         55.83	     8.185
  55.660         57.50	     8.307
  55.680         56.67	     8.246
  55.700         50.83	     7.810
  55.720         59.17	     8.426
  55.740         60.00	     8.485
  55.760         52.50	     7.937
  55.780         67.50	     9.000
  55.800         56.67	     8.246
  55.820         70.00	     9.165
  55.840         92.50	    10.536
  55.860         77.50	     9.644
  55.880         85.83	    10.149
  55.900         85.83	    10.149
  55.920        109.17	    11.446
  55.940         95.83	    10.724
  55.960         93.33	    10.583
  55.980        111.67	    11.576
  56.000        114.17	    11.705
  56.020         92.50	    10.536
  56.040         80.00	     9.798
  56.060         72.50	     9.327
  56.080         84.17	    10.050
  56.100         85.83	    10.149
  56.120         81.67	     9.899
  56.140         70.83	     9.220
  56.160         73.33	     9.381
  56.180         73.33	     9.381
  56.200         58.33	     8.367
  56.220         41.67	     7.071
  56.240         52.50	     7.937
  56.260         63.33	     8.718
  56.280         60.00	     8.485
  56.300         45.00	     7.348
  56.320         44.17	     7.280
  56.340         56.67	     8.246
  56.360         38.33	     6.782
  56.380         43.33	     7.211
  56.400         48.33	     7.616
  56.420         58.33	     8.367
  56.440         54.17	     8.062
  56.460         50.83	     7.810
  56.480         55.00	     8.124
  56.500         35.83	     6.557
  56.520         38.33	     6.782
  56.540         36.67	     6.633
  56.560         46.67	     7.483
  56.580         35.00	     6.481
  56.600         38.33	     6.782
  56.620         43.33	     7.211
  56.640         44.17	     7.280
  56.660         48.33	     7.616
  56.680         41.67	     7.071
  56.700         42.50	     7.141
  56.720         44.17	     7.280
  56.740         57.50	     8.307
  56.760         39.17	     6.856
  56.780         43.33	     7.211
  56.800         39.17	     6.856
  56.820         30.83	     6.083
  56.840         39.17	     6.856
  56.860         50.00	     7.746
  56.880         42.50	     7.141
  56.900         35.83	     6.557
  56.920         46.67	     7.483
  56.940         54.17	     8.062
  56.960         38.33	     6.782
  56.980         47.50	     7.550
  57.000         42.50	     7.141
  57.020         41.67	     7.071
  57.040         57.50	     8.307
  57.060         31.67	     6.164
  57.080         37.50	     6.708
  57.100         47.50	     7.550
  57.120         37.50	     6.708
  57.140         42.50	     7.141
  57.160         35.83	     6.557
  57.180         68.33	     9.055
  57.200         62.50	     8.660
  57.220         62.50	     8.660
  57.240         51.67	     7.874
  57.260         45.83	     7.416
  57.280         44.17	     7.280
  57.300         40.00	     6.928
  57.320         46.67	     7.483
  57.340         59.17	     8.426
  57.360         65.83	     8.888
  57.380         39.17	     6.856
  57.400         40.00	     6.928
  57.420         39.17	     6.856
  57.440         40.83	     7.000
  57.460         40.83	     7.000
  57.480         46.67	     7.483
  57.500         35.00	     6.481
  57.520         39.17	     6.856
  57.540         48.33	     7.616
  57.560         40.83	     7.000
  57.580         44.17	     7.280
  57.600         48.33	     7.616
  57.620         48.33	     7.616
  57.640         38.33	     6.782
  57.660         35.00	     6.481
  57.680         40.83	     7.000
  57.700         40.00	     6.928
  57.720         45.83	     7.416
  57.740         41.67	     7.071
  57.760         43.33	     7.211
  57.780         38.33	     6.782
  57.800         45.83	     7.416
  57.820         37.50	     6.708
  57.840         40.83	     7.000
  57.860         49.17	     7.681
  57.880         46.67	     7.483
  57.900         36.67	     6.633
  57.920         34.17	     6.403
  57.940         48.33	     7.616
  57.960         34.17	     6.403
  57.980         40.00	     6.928
  58.000         35.83	     6.557
  58.020         25.00	     5.477
  58.040         35.83	     6.557
  58.060         36.67	     6.633
  58.080         45.00	     7.348
  58.100         49.17	     7.681
  58.120         56.67	     8.246
  58.140         85.00	    10.100
  58.160        113.33	    11.662
  58.180        116.67	    11.832
  58.200         89.17	    10.344
  58.220         66.67	     8.944
  58.240         55.00	     8.124
  58.260         53.33	     8.000
  58.280         52.50	     7.937
  58.300         94.17	    10.630
  58.320        122.50	    12.124
  58.340         83.33	    10.000
  58.360         70.83	     9.220
  58.380         56.67	     8.246
  58.400         61.67	     8.602
  58.420         61.67	     8.602
  58.440         52.50	     7.937
  58.460         54.17	     8.062
  58.480         50.83	     7.810
  58.500         42.50	     7.141
  58.520         41.67	     7.071
  58.540         44.17	     7.280
  58.560         50.83	     7.810
  58.580         50.83	     7.810
  58.600         51.67	     7.874
  58.620         44.17	     7.280
  58.640         53.33	     8.000
  58.660         38.33	     6.782
  58.680         60.00	     8.485
  58.700         44.17	     7.280
  58.720         58.33	     8.367
  58.740         60.00	     8.485
  58.760         69.17	     9.110
  58.780         75.83	     9.539
  58.800         61.67	     8.602
  58.820         62.50	     8.660
  58.840         55.00	     8.124
  58.860         55.83	     8.185
  58.880         50.83	     7.810
  58.900         56.67	     8.246
  58.920         60.83	     8.544
  58.940         65.83	     8.888
  58.960         73.33	     9.381
  58.980         59.17	     8.426
  59.000         55.83	     8.185
  59.020         52.50	     7.937
  59.040         65.83	     8.888
  59.060         67.50	     9.000
  59.080         50.83	     7.810
  59.100         54.17	     8.062
  59.120         72.50	     9.327
  59.140         72.50	     9.327
  59.160         58.33	     8.367
  59.180         62.50	     8.660
  59.200         56.67	     8.246
  59.220         70.83	     9.220
  59.240         78.33	     9.695
  59.260         79.17	     9.747
  59.280         70.83	     9.220
  59.300         55.83	     8.185
  59.320         77.50	     9.644
  59.340         71.67	     9.274
  59.360         78.33	     9.695
  59.380         62.50	     8.660
  59.400         66.67	     8.944
  59.420         61.67	     8.602
  59.440         69.17	     9.110
  59.460         60.83	     8.544
  59.480         60.00	     8.485
  59.500         47.50	     7.550
  59.520         57.50	     8.307
  59.540         65.83	     8.888
  59.560         53.33	     8.000
  59.580         64.17	     8.775
  59.600         59.17	     8.426
  59.620         42.50	     7.141
  59.640         59.17	     8.426
  59.660         70.00	     9.165
  59.680         60.83	     8.544
  59.700         47.50	     7.550
  59.720         57.50	     8.307
  59.740         42.50	     7.141
  59.760         47.50	     7.550
  59.780         71.67	     9.274
  59.800         51.67	     7.874
  59.820         50.83	     7.810
  59.840         55.83	     8.185
  59.860         56.67	     8.246
  59.880         66.67	     8.944
  59.900         57.50	     8.307
  59.920         65.00	     8.832
  59.940         53.33	     8.000
  59.960         64.17	     8.775
  59.980         76.67	     9.592
  60.000        114.17	    11.705
  60.020        128.33	    12.410
  60.040        171.67	    14.353
  60.060        185.83	    14.933
  60.080        195.83	    15.330
  60.100        170.00	    14.283
  60.120        140.83	    13.000
  60.140        110.00	    11.489
  60.160        104.17	    11.180
  60.180        100.83	    11.000
  60.200        127.50	    12.369
  60.220        113.33	    11.662
  60.240        126.67	    12.329
  60.260        141.67	    13.038
  60.280         88.33	    10.296
  60.300         89.17	    10.344
  60.320         75.00	     9.487
  60.340         67.50	     9.000
  60.360         64.17	     8.775
  60.380         58.33	     8.367
  60.400         75.00	     9.487
  60.420         62.50	     8.660
  60.440         59.17	     8.426
  60.460         60.00	     8.485
  60.480         60.83	     8.544
  60.500         57.50	     8.307
  60.520         60.83	     8.544
  60.540         45.83	     7.416
  60.560         64.17	     8.775
  60.580         56.67	     8.246
  60.600         58.33	     8.367
  60.620         60.83	     8.544
  60.640         47.50	     7.550
  60.660         52.50	     7.937
  60.680         60.83	     8.544
  60.700         66.67	     8.944
  60.720         60.00	     8.485
  60.740         67.50	     9.000
  60.760         60.83	     8.544
  60.780         56.67	     8.246
  60.800         51.67	     7.874
  60.820         55.83	     8.185
  60.840         65.00	     8.832
  60.860         70.00	     9.165
  60.880         76.67	     9.592
  60.900         75.00	     9.487
  60.920         74.17	     9.434
  60.940         70.83	     9.220
  60.960         90.00	    10.392
  60.980         79.17	     9.747
  61.000         90.83	    10.440
  61.020         85.00	    10.100
  61.040         90.83	    10.440
  61.060         77.50	     9.644
  61.080         69.17	     9.110
  61.100         73.33	     9.381
  61.120         84.17	    10.050
  61.140         79.17	     9.747
  61.160         83.33	    10.000
  61.180         65.00	     8.832
  61.200         65.00	     8.832
  61.220         57.50	     8.307
  61.240         71.67	     9.274
  61.260         61.67	     8.602
  61.280         49.17	     7.681
  61.300         66.67	     8.944
  61.320         60.00	     8.485
  61.340         52.50	     7.937
  61.360         51.67	     7.874
  61.380         59.17	     8.426
  61.400         60.00	     8.485
  61.420         56.67	     8.246
  61.440         65.00	     8.832
  61.460         63.33	     8.718
  61.480         68.33	     9.055
  61.500         61.67	     8.602
  61.520         73.33	     9.381
  61.540         62.50	     8.660
  61.560         76.67	     9.592
  61.580         80.00	     9.798
  61.600         82.50	     9.950
  61.620         87.50	    10.247
  61.640         68.33	     9.055
  61.660         61.67	     8.602
  61.680         78.33	     9.695
  61.700         69.17	     9.110
  61.720         63.33	     8.718
  61.740         73.33	     9.381
  61.760         75.83	     9.539
  61.780         75.83	     9.539
  61.800         65.00	     8.832
  61.820         89.17	    10.344
  61.840         73.33	     9.381
  61.860         81.67	     9.899
  61.880         75.00	     9.487
  61.900         70.00	     9.165
  61.920         75.00	     9.487
  61.940         60.83	     8.544
  61.960         67.50	     9.000
  61.980         63.33	     8.718
  62.000         63.33	     8.718
  62.020         49.17	     7.681
  62.040         67.50	     9.000
  62.060         58.33	     8.367
  62.080         68.33	     9.055
  62.100         70.83	     9.220
  62.120         67.50	     9.000
  62.140         55.00	     8.124
  62.160         70.83	     9.220
  62.180         69.17	     9.110
  62.200         55.00	     8.124
  62.220         50.83	     7.810
  62.240         52.50	     7.937
  62.260         68.33	     9.055
  62.280         56.67	     8.246
  62.300         45.00	     7.348
  62.320         53.33	     8.000
  62.340         49.17	     7.681
  62.360         53.33	     8.000
  62.380         45.83	     7.416
  62.400         53.33	     8.000
  62.420         53.33	     8.000
  62.440         56.67	     8.246
  62.460         46.67	     7.483
  62.480         52.50	     7.937
  62.500         38.33	     6.782
  62.520         30.00	     6.000
  62.540         41.67	     7.071
  62.560         37.50	     6.708
  62.580         42.50	     7.141
  62.600         30.83	     6.083
  62.620         40.00	     6.928
  62.640         49.17	     7.681
  62.660         54.17	     8.062
  62.680         65.00	     8.832
  62.700         57.50	     8.307
  62.720         52.50	     7.937
  62.740         46.67	     7.483
  62.760         53.33	     8.000
  62.780         50.83	     7.810
  62.800         52.50	     7.937
  62.820         58.33	     8.367
  62.840         55.00	     8.124
  62.860         53.33	     8.000
  62.880         61.67	     8.602
  62.900         59.17	     8.426
  62.920         54.17	     8.062
  62.940         58.33	     8.367
  62.960         44.17	     7.280
  62.980         53.33	     8.000
  63.000         40.00	     6.928
  63.020         52.50	     7.937
  63.040         40.83	     7.000
  63.060         40.83	     7.000
  63.080         52.50	     7.937
  63.100         50.00	     7.746
  63.120         35.00	     6.481
  63.140         42.50	     7.141
  63.160         42.50	     7.141
  63.180         40.83	     7.000
  63.200         41.67	     7.071
  63.220         41.67	     7.071
  63.240         50.00	     7.746
  63.260         48.33	     7.616
  63.280         40.00	     6.928
  63.300         45.00	     7.348
  63.320         54.17	     8.062
  63.340         33.33	     6.325
  63.360         50.00	     7.746
  63.380         57.50	     8.307
  63.400         43.33	     7.211
  63.420         51.67	     7.874
  63.440         46.67	     7.483
  63.460         47.50	     7.550
  63.480         48.33	     7.616
  63.500         50.00	     7.746
  63.520         49.17	     7.681
  63.540         44.17	     7.280
  63.560         60.83	     8.544
  63.580         65.00	     8.832
  63.600         59.17	     8.426
  63.620         46.67	     7.483
  63.640         61.67	     8.602
  63.660         83.33	    10.000
  63.680         48.33	     7.616
  63.700         50.83	     7.810
  63.720         39.17	     6.856
  63.740         41.67	     7.071
  63.760         51.67	     7.874
  63.780         58.33	     8.367
  63.800         50.83	     7.810
  63.820         74.17	     9.434
  63.840         60.83	     8.544
  63.860         51.67	     7.874
  63.880         58.33	     8.367
  63.900         32.50	     6.245
  63.920         70.83	     9.220
  63.940         50.00	     7.746
  63.960         69.17	     9.110
  63.980         69.17	     9.110
  64.000         74.17	     9.434
  64.020         73.33	     9.381
  64.040         66.67	     8.944
  64.060         64.17	     8.775
  64.080         62.50	     8.660
  64.100         61.67	     8.602
  64.120         80.00	     9.798
  64.140         75.83	     9.539
  64.160        100.83	    11.000
  64.180         80.00	     9.798
  64.200         72.50	     9.327
  64.220         75.00	     9.487
  64.240         78.33	     9.695
  64.260         74.17	     9.434
  64.280         47.50	     7.550
  64.300         81.67	     9.899
  64.320         76.67	     9.592
  64.340         68.33	     9.055
  64.360         62.50	     8.660
  64.380         70.83	     9.220
  64.400         68.33	     9.055
  64.420         67.50	     9.000
  64.440         71.67	     9.274
  64.460         75.83	     9.539
  64.480         75.00	     9.487
  64.500         78.33	     9.695
  64.520         65.00	     8.832
  64.540         42.50	     7.141
  64.560         55.83	     8.185
  64.580         60.00	     8.485
  64.600         50.83	     7.810
  64.620         54.17	     8.062
  64.640         65.00	     8.832
  64.660         51.67	     7.874
  64.680         55.83	     8.185
  64.700         55.00	     8.124
  64.720         59.17	     8.426
  64.740         60.83	     8.544
  64.760         40.83	     7.000
  64.780         50.00	     7.746
  64.800         49.17	     7.681
  64.820         60.00	     8.485
  64.840         51.67	     7.874
  64.860         52.50	     7.937
  64.880         55.83	     8.185
  64.900         56.67	     8.246
  64.920         55.83	     8.185
  64.940         70.83	     9.220
  64.960         52.50	     7.937
  64.980         60.00	     8.485
  65.000         48.33	     7.616
