
Filename:
	C:\Program Files\Thermo Electron\WinXRD\Datafiles\F_HERMAN\GEO\GG_19_SFT.raw

File Created:
	October 14, 2020 - 03:08 AM

Specimen Id:
	GG_19_SFT

Specimen Name:
	

Specimen Description:
	

Comment:
Scan Type: 2Theta Scan
Start Angle: 3 deg.
Stop Angle: 65 deg.
Num Points: 3101
Step Size: 0.02 deg.
Scan Rate: 1.000000
Scan Mode: Continuous
Wavelength: 1.540562
\Kalpha1: 1.540562	\Kalpha2: 1.544390	\Kbeta: 1.392218

Optics:
		Detector:
			 Type: Fixed Slits
		Tube: 
			 Type: Fixed Slits


Datas:
 Pos [deg]       Rate [CPS]      ESD [-]

Range 1 ---> Iteration 1
   3.000        345.83	    20.372
   3.020        343.33	    20.298
   3.040        357.50	    20.712
   3.060        329.17	    19.875
   3.080        336.67	    20.100
   3.100        328.33	    19.849
   3.120        305.83	    19.157
   3.140        336.67	    20.100
   3.160        314.17	    19.416
   3.180        355.83	    20.664
   3.200        294.17	    18.788
   3.220        305.00	    19.131
   3.240        286.67	    18.547
   3.260        307.50	    19.209
   3.280        325.00	    19.748
   3.300        313.33	    19.391
   3.320        303.33	    19.079
   3.340        322.50	    19.672
   3.360        283.33	    18.439
   3.380        327.50	    19.824
   3.400        270.00	    18.000
   3.420        290.83	    18.682
   3.440        295.00	    18.815
   3.460        286.67	    18.547
   3.480        291.67	    18.708
   3.500        312.50	    19.365
   3.520        265.00	    17.833
   3.540        310.83	    19.313
   3.560        276.67	    18.221
   3.580        285.00	    18.493
   3.600        304.17	    19.105
   3.620        279.17	    18.303
   3.640        273.33	    18.111
   3.660        264.17	    17.804
   3.680        246.67	    17.205
   3.700        299.17	    18.947
   3.720        261.67	    17.720
   3.740        241.67	    17.029
   3.760        275.00	    18.166
   3.780        244.17	    17.117
   3.800        275.00	    18.166
   3.820        269.17	    17.972
   3.840        256.67	    17.550
   3.860        255.00	    17.493
   3.880        282.50	    18.412
   3.900        251.67	    17.378
   3.920        275.83	    18.193
   3.940        235.83	    16.823
   3.960        259.17	    17.635
   3.980        288.33	    18.601
   4.000        259.17	    17.635
   4.020        233.33	    16.733
   4.040        245.83	    17.176
   4.060        250.83	    17.349
   4.080        257.50	    17.578
   4.100        244.17	    17.117
   4.120        255.00	    17.493
   4.140        228.33	    16.553
   4.160        243.33	    17.088
   4.180        231.67	    16.673
   4.200        230.00	    16.613
   4.220        246.67	    17.205
   4.240        232.50	    16.703
   4.260        210.83	    15.906
   4.280        228.33	    16.553
   4.300        245.00	    17.146
   4.320        229.17	    16.583
   4.340        217.50	    16.155
   4.360        224.17	    16.401
   4.380        213.33	    16.000
   4.400        210.83	    15.906
   4.420        212.50	    15.969
   4.440        217.50	    16.155
   4.460        223.33	    16.371
   4.480        225.83	    16.462
   4.500        228.33	    16.553
   4.520        205.00	    15.684
   4.540        192.50	    15.199
   4.560        194.17	    15.264
   4.580        215.83	    16.093
   4.600        220.00	    16.248
   4.620        192.50	    15.199
   4.640        190.83	    15.133
   4.660        201.67	    15.556
   4.680        200.00	    15.492
   4.700        181.67	    14.765
   4.720        192.50	    15.199
   4.740        222.50	    16.340
   4.760        220.83	    16.279
   4.780        179.17	    14.663
   4.800        195.00	    15.297
   4.820        214.17	    16.031
   4.840        190.83	    15.133
   4.860        176.67	    14.560
   4.880        195.00	    15.297
   4.900        193.33	    15.232
   4.920        204.17	    15.652
   4.940        195.83	    15.330
   4.960        168.33	    14.213
   4.980        183.33	    14.832
   5.000        192.50	    15.199
   5.020        171.67	    14.353
   5.040        178.33	    14.629
   5.060        174.17	    14.457
   5.080        171.67	    14.353
   5.100        184.17	    14.866
   5.120        185.00	    14.900
   5.140        190.83	    15.133
   5.160        178.33	    14.629
   5.180        179.17	    14.663
   5.200        172.50	    14.387
   5.220        175.83	    14.526
   5.240        178.33	    14.629
   5.260        180.83	    14.731
   5.280        177.50	    14.595
   5.300        181.67	    14.765
   5.320        170.00	    14.283
   5.340        157.50	    13.748
   5.360        190.00	    15.100
   5.380        184.17	    14.866
   5.400        155.83	    13.675
   5.420        154.17	    13.601
   5.440        172.50	    14.387
   5.460        158.33	    13.784
   5.480        170.00	    14.283
   5.500        172.50	    14.387
   5.520        169.17	    14.248
   5.540        167.50	    14.177
   5.560        165.83	    14.107
   5.580        180.00	    14.697
   5.600        173.33	    14.422
   5.620        170.00	    14.283
   5.640        184.17	    14.866
   5.660        167.50	    14.177
   5.680        157.50	    13.748
   5.700        156.67	    13.711
   5.720        154.17	    13.601
   5.740        168.33	    14.213
   5.760        173.33	    14.422
   5.780        150.83	    13.454
   5.800        194.17	    15.264
   5.820        188.33	    15.033
   5.840        162.50	    13.964
   5.860        170.83	    14.318
   5.880        179.17	    14.663
   5.900        193.33	    15.232
   5.920        168.33	    14.213
   5.940        178.33	    14.629
   5.960        177.50	    14.595
   5.980        192.50	    15.199
   6.000        191.67	    15.166
   6.020        215.83	    16.093
   6.040        189.17	    15.067
   6.060        192.50	    15.199
   6.080        242.50	    17.059
   6.100        218.33	    16.186
   6.120        207.50	    15.780
   6.140        207.50	    15.780
   6.160        195.83	    15.330
   6.180        192.50	    15.199
   6.200        211.67	    15.937
   6.220        192.50	    15.199
   6.240        210.83	    15.906
   6.260        210.83	    15.906
   6.280        223.33	    16.371
   6.300        224.17	    16.401
   6.320        216.67	    16.125
   6.340        207.50	    15.780
   6.360        212.50	    15.969
   6.380        205.00	    15.684
   6.400        193.33	    15.232
   6.420        185.00	    14.900
   6.440        163.33	    14.000
   6.460        165.00	    14.071
   6.480        155.83	    13.675
   6.500        138.33	    12.884
   6.520        132.50	    12.610
   6.540        141.67	    13.038
   6.560        150.83	    13.454
   6.580        128.33	    12.410
   6.600        144.17	    13.153
   6.620        153.33	    13.565
   6.640        143.33	    13.115
   6.660        114.17	    11.705
   6.680        153.33	    13.565
   6.700        149.17	    13.379
   6.720        129.17	    12.450
   6.740        140.83	    13.000
   6.760        134.17	    12.689
   6.780        170.00	    14.283
   6.800        117.50	    11.874
   6.820        131.67	    12.570
   6.840        148.33	    13.342
   6.860        109.17	    11.446
   6.880        119.17	    11.958
   6.900        128.33	    12.410
   6.920        126.67	    12.329
   6.940        140.00	    12.961
   6.960        135.00	    12.728
   6.980        130.00	    12.490
   7.000        145.00	    13.191
   7.020        104.17	    11.180
   7.040        116.67	    11.832
   7.060        116.67	    11.832
   7.080        103.33	    11.136
   7.100        135.83	    12.767
   7.120        124.17	    12.207
   7.140        134.17	    12.689
   7.160        113.33	    11.662
   7.180        128.33	    12.410
   7.200        121.67	    12.083
   7.220        141.67	    13.038
   7.240        126.67	    12.329
   7.260        128.33	    12.410
   7.280        140.00	    12.961
   7.300        125.83	    12.288
   7.320        121.67	    12.083
   7.340        123.33	    12.166
   7.360        146.67	    13.266
   7.380        133.33	    12.649
   7.400        125.00	    12.247
   7.420        116.67	    11.832
   7.440        120.83	    12.042
   7.460        106.67	    11.314
   7.480        105.83	    11.269
   7.500        121.67	    12.083
   7.520        110.83	    11.533
   7.540        128.33	    12.410
   7.560        116.67	    11.832
   7.580        114.17	    11.705
   7.600        109.17	    11.446
   7.620        105.00	    11.225
   7.640        135.83	    12.767
   7.660        121.67	    12.083
   7.680        126.67	    12.329
   7.700        109.17	    11.446
   7.720        125.83	    12.288
   7.740        113.33	    11.662
   7.760        112.50	    11.619
   7.780        131.67	    12.570
   7.800        117.50	    11.874
   7.820        116.67	    11.832
   7.840         96.67	    10.770
   7.860         95.83	    10.724
   7.880        106.67	    11.314
   7.900        108.33	    11.402
   7.920        134.17	    12.689
   7.940        125.00	    12.247
   7.960        105.83	    11.269
   7.980        100.00	    10.954
   8.000        134.17	    12.689
   8.020        110.00	    11.489
   8.040        104.17	    11.180
   8.060        125.83	    12.288
   8.080        135.83	    12.767
   8.100        120.00	    12.000
   8.120        129.17	    12.450
   8.140         95.83	    10.724
   8.160        121.67	    12.083
   8.180        115.83	    11.790
   8.200        130.00	    12.490
   8.220        117.50	    11.874
   8.240        119.17	    11.958
   8.260        125.83	    12.288
   8.280        127.50	    12.369
   8.300        116.67	    11.832
   8.320        135.00	    12.728
   8.340        125.83	    12.288
   8.360        126.67	    12.329
   8.380         99.17	    10.909
   8.400        145.83	    13.229
   8.420        125.00	    12.247
   8.440        140.00	    12.961
   8.460        130.00	    12.490
   8.480        108.33	    11.402
   8.500        145.83	    13.229
   8.520        135.83	    12.767
   8.540        136.67	    12.806
   8.560        166.67	    14.142
   8.580        153.33	    13.565
   8.600        144.17	    13.153
   8.620        146.67	    13.266
   8.640        168.33	    14.213
   8.660        162.50	    13.964
   8.680        162.50	    13.964
   8.700        182.50	    14.799
   8.720        194.17	    15.264
   8.740        167.50	    14.177
   8.760        212.50	    15.969
   8.780        233.33	    16.733
   8.800        250.83	    17.349
   8.820        227.50	    16.523
   8.840        264.17	    17.804
   8.860        265.83	    17.861
   8.880        303.33	    19.079
   8.900        340.83	    20.224
   8.920        415.83	    22.338
   8.940        455.00	    23.367
   8.960        521.67	    25.020
   8.980        522.50	    25.040
   9.000        515.83	    24.880
   9.020        466.67	    23.664
   9.040        355.83	    20.664
   9.060        274.17	    18.138
   9.080        205.83	    15.716
   9.100        170.00	    14.283
   9.120        170.83	    14.318
   9.140        140.83	    13.000
   9.160        135.00	    12.728
   9.180        124.17	    12.207
   9.200        113.33	    11.662
   9.220        123.33	    12.166
   9.240        131.67	    12.570
   9.260        119.17	    11.958
   9.280        115.00	    11.747
   9.300        127.50	    12.369
   9.320        102.50	    11.091
   9.340         93.33	    10.583
   9.360         90.00	    10.392
   9.380         98.33	    10.863
   9.400         85.00	    10.100
   9.420         97.50	    10.817
   9.440        100.83	    11.000
   9.460        100.83	    11.000
   9.480        115.83	    11.790
   9.500        120.00	    12.000
   9.520        125.83	    12.288
   9.540        116.67	    11.832
   9.560        112.50	    11.619
   9.580        104.17	    11.180
   9.600        108.33	    11.402
   9.620        108.33	    11.402
   9.640         95.00	    10.677
   9.660         98.33	    10.863
   9.680         77.50	     9.644
   9.700         86.67	    10.198
   9.720         78.33	     9.695
   9.740         92.50	    10.536
   9.760         79.17	     9.747
   9.780         98.33	    10.863
   9.800         85.83	    10.149
   9.820         89.17	    10.344
   9.840         97.50	    10.817
   9.860         80.00	     9.798
   9.880         95.00	    10.677
   9.900         88.33	    10.296
   9.920        100.00	    10.954
   9.940         91.67	    10.488
   9.960         92.50	    10.536
   9.980         80.00	     9.798
  10.000         85.00	    10.100
  10.020         70.00	     9.165
  10.040         82.50	     9.950
  10.060         80.83	     9.849
  10.080         75.83	     9.539
  10.100         80.00	     9.798
  10.120         94.17	    10.630
  10.140         84.17	    10.050
  10.160         65.83	     8.888
  10.180         85.83	    10.149
  10.200         95.00	    10.677
  10.220         85.83	    10.149
  10.240         75.00	     9.487
  10.260         77.50	     9.644
  10.280         80.83	     9.849
  10.300         79.17	     9.747
  10.320         85.83	    10.149
  10.340         60.00	     8.485
  10.360         60.83	     8.544
  10.380         78.33	     9.695
  10.400         89.17	    10.344
  10.420         95.83	    10.724
  10.440         67.50	     9.000
  10.460         75.83	     9.539
  10.480         78.33	     9.695
  10.500         70.83	     9.220
  10.520         89.17	    10.344
  10.540         95.83	    10.724
  10.560        100.83	    11.000
  10.580        125.83	    12.288
  10.600        120.00	    12.000
  10.620        142.50	    13.077
  10.640        140.83	    13.000
  10.660        150.83	    13.454
  10.680        118.33	    11.916
  10.700        130.00	    12.490
  10.720        146.67	    13.266
  10.740        150.83	    13.454
  10.760        126.67	    12.329
  10.780        107.50	    11.358
  10.800         78.33	     9.695
  10.820         66.67	     8.944
  10.840         73.33	     9.381
  10.860         71.67	     9.274
  10.880         74.17	     9.434
  10.900         58.33	     8.367
  10.920         66.67	     8.944
  10.940         70.83	     9.220
  10.960         87.50	    10.247
  10.980         68.33	     9.055
  11.000         64.17	     8.775
  11.020         69.17	     9.110
  11.040         78.33	     9.695
  11.060         64.17	     8.775
  11.080         82.50	     9.950
  11.100         56.67	     8.246
  11.120         84.17	    10.050
  11.140         64.17	     8.775
  11.160         64.17	     8.775
  11.180         80.00	     9.798
  11.200         60.83	     8.544
  11.220         83.33	    10.000
  11.240         59.17	     8.426
  11.260         70.83	     9.220
  11.280         76.67	     9.592
  11.300         66.67	     8.944
  11.320         65.00	     8.832
  11.340         65.00	     8.832
  11.360         75.00	     9.487
  11.380         70.83	     9.220
  11.400         59.17	     8.426
  11.420         75.00	     9.487
  11.440         68.33	     9.055
  11.460         74.17	     9.434
  11.480         65.83	     8.888
  11.500         65.83	     8.888
  11.520         65.00	     8.832
  11.540         79.17	     9.747
  11.560         74.17	     9.434
  11.580         70.00	     9.165
  11.600         53.33	     8.000
  11.620         57.50	     8.307
  11.640         64.17	     8.775
  11.660         57.50	     8.307
  11.680         90.83	    10.440
  11.700         70.00	     9.165
  11.720         59.17	     8.426
  11.740         65.00	     8.832
  11.760         74.17	     9.434
  11.780         89.17	    10.344
  11.800         70.83	     9.220
  11.820         85.83	    10.149
  11.840         71.67	     9.274
  11.860         74.17	     9.434
  11.880         57.50	     8.307
  11.900         60.00	     8.485
  11.920         60.83	     8.544
  11.940         75.83	     9.539
  11.960         81.67	     9.899
  11.980         67.50	     9.000
  12.000         78.33	     9.695
  12.020         76.67	     9.592
  12.040         85.83	    10.149
  12.060         85.00	    10.100
  12.080         90.83	    10.440
  12.100         86.67	    10.198
  12.120        104.17	    11.180
  12.140        113.33	    11.662
  12.160        125.00	    12.247
  12.180        132.50	    12.610
  12.200        155.00	    13.638
  12.220        227.50	    16.523
  12.240        256.67	    17.550
  12.260        339.17	    20.174
  12.280        420.83	    22.472
  12.300        418.33	    22.405
  12.320        410.83	    22.204
  12.340        327.50	    19.824
  12.360        266.67	    17.889
  12.380        215.83	    16.093
  12.400        183.33	    14.832
  12.420        181.67	    14.765
  12.440        205.83	    15.716
  12.460        215.83	    16.093
  12.480        200.83	    15.524
  12.500        190.00	    15.100
  12.520        251.67	    17.378
  12.540        277.50	    18.248
  12.560        295.83	    18.841
  12.580        367.50	    21.000
  12.600        365.83	    20.952
  12.620        375.83	    21.237
  12.640        323.33	    19.698
  12.660        225.00	    16.432
  12.680        170.00	    14.283
  12.700        134.17	    12.689
  12.720        114.17	    11.705
  12.740        107.50	    11.358
  12.760         75.83	     9.539
  12.780         79.17	     9.747
  12.800         74.17	     9.434
  12.820         64.17	     8.775
  12.840         77.50	     9.644
  12.860         75.83	     9.539
  12.880         57.50	     8.307
  12.900         53.33	     8.000
  12.920         61.67	     8.602
  12.940         58.33	     8.367
  12.960         68.33	     9.055
  12.980         63.33	     8.718
  13.000         55.83	     8.185
  13.020         52.50	     7.937
  13.040         71.67	     9.274
  13.060         52.50	     7.937
  13.080         60.83	     8.544
  13.100         55.83	     8.185
  13.120         62.50	     8.660
  13.140         61.67	     8.602
  13.160         67.50	     9.000
  13.180         68.33	     9.055
  13.200         52.50	     7.937
  13.220         61.67	     8.602
  13.240         49.17	     7.681
  13.260         59.17	     8.426
  13.280         61.67	     8.602
  13.300         55.83	     8.185
  13.320         56.67	     8.246
  13.340         61.67	     8.602
  13.360         65.83	     8.888
  13.380         52.50	     7.937
  13.400         58.33	     8.367
  13.420         59.17	     8.426
  13.440         56.67	     8.246
  13.460         54.17	     8.062
  13.480         65.00	     8.832
  13.500         69.17	     9.110
  13.520         61.67	     8.602
  13.540         45.00	     7.348
  13.560         44.17	     7.280
  13.580         67.50	     9.000
  13.600         51.67	     7.874
  13.620         67.50	     9.000
  13.640         53.33	     8.000
  13.660         58.33	     8.367
  13.680         47.50	     7.550
  13.700         61.67	     8.602
  13.720         57.50	     8.307
  13.740         58.33	     8.367
  13.760         57.50	     8.307
  13.780         65.00	     8.832
  13.800         52.50	     7.937
  13.820         48.33	     7.616
  13.840         58.33	     8.367
  13.860         52.50	     7.937
  13.880         79.17	     9.747
  13.900         77.50	     9.644
  13.920         76.67	     9.592
  13.940         95.83	    10.724
  13.960         80.00	     9.798
  13.980         74.17	     9.434
  14.000         73.33	     9.381
  14.020         63.33	     8.718
  14.040         75.00	     9.487
  14.060         57.50	     8.307
  14.080         72.50	     9.327
  14.100         46.67	     7.483
  14.120         46.67	     7.483
  14.140         81.67	     9.899
  14.160         50.83	     7.810
  14.180         65.00	     8.832
  14.200         61.67	     8.602
  14.220         47.50	     7.550
  14.240         48.33	     7.616
  14.260         62.50	     8.660
  14.280         47.50	     7.550
  14.300         50.00	     7.746
  14.320         52.50	     7.937
  14.340         40.00	     6.928
  14.360         47.50	     7.550
  14.380         42.50	     7.141
  14.400         47.50	     7.550
  14.420         49.17	     7.681
  14.440         50.83	     7.810
  14.460         55.00	     8.124
  14.480         47.50	     7.550
  14.500         42.50	     7.141
  14.520         43.33	     7.211
  14.540         42.50	     7.141
  14.560         48.33	     7.616
  14.580         50.00	     7.746
  14.600         64.17	     8.775
  14.620         42.50	     7.141
  14.640         54.17	     8.062
  14.660         53.33	     8.000
  14.680         45.00	     7.348
  14.700         51.67	     7.874
  14.720         48.33	     7.616
  14.740         50.83	     7.810
  14.760         46.67	     7.483
  14.780         42.50	     7.141
  14.800         50.83	     7.810
  14.820         44.17	     7.280
  14.840         55.83	     8.185
  14.860         47.50	     7.550
  14.880         45.83	     7.416
  14.900         48.33	     7.616
  14.920         51.67	     7.874
  14.940         40.83	     7.000
  14.960         62.50	     8.660
  14.980         55.00	     8.124
  15.000         35.83	     6.557
  15.020         62.50	     8.660
  15.040         65.83	     8.888
  15.060         55.00	     8.124
  15.080         46.67	     7.483
  15.100         67.50	     9.000
  15.120         37.50	     6.708
  15.140         60.83	     8.544
  15.160         75.00	     9.487
  15.180         59.17	     8.426
  15.200         39.17	     6.856
  15.220         39.17	     6.856
  15.240         45.83	     7.416
  15.260         45.83	     7.416
  15.280         47.50	     7.550
  15.300         52.50	     7.937
  15.320         41.67	     7.071
  15.340         52.50	     7.937
  15.360         51.67	     7.874
  15.380         36.67	     6.633
  15.400         48.33	     7.616
  15.420         45.00	     7.348
  15.440         41.67	     7.071
  15.460         45.00	     7.348
  15.480         41.67	     7.071
  15.500         48.33	     7.616
  15.520         41.67	     7.071
  15.540         40.00	     6.928
  15.560         45.00	     7.348
  15.580         44.17	     7.280
  15.600         48.33	     7.616
  15.620         45.83	     7.416
  15.640         41.67	     7.071
  15.660         35.83	     6.557
  15.680         35.00	     6.481
  15.700         37.50	     6.708
  15.720         50.00	     7.746
  15.740         26.67	     5.657
  15.760         45.83	     7.416
  15.780         43.33	     7.211
  15.800         58.33	     8.367
  15.820         38.33	     6.782
  15.840         45.83	     7.416
  15.860         49.17	     7.681
  15.880         55.83	     8.185
  15.900         39.17	     6.856
  15.920         52.50	     7.937
  15.940         53.33	     8.000
  15.960         44.17	     7.280
  15.980         60.83	     8.544
  16.000         40.00	     6.928
  16.020         43.33	     7.211
  16.040         46.67	     7.483
  16.060         43.33	     7.211
  16.080         43.33	     7.211
  16.100         35.83	     6.557
  16.120         54.17	     8.062
  16.140         37.50	     6.708
  16.160         36.67	     6.633
  16.180         30.00	     6.000
  16.200         38.33	     6.782
  16.220         43.33	     7.211
  16.240         47.50	     7.550
  16.260         43.33	     7.211
  16.280         44.17	     7.280
  16.300         37.50	     6.708
  16.320         40.00	     6.928
  16.340         41.67	     7.071
  16.360         35.83	     6.557
  16.380         45.83	     7.416
  16.400         35.83	     6.557
  16.420         43.33	     7.211
  16.440         44.17	     7.280
  16.460         44.17	     7.280
  16.480         40.83	     7.000
  16.500         29.17	     5.916
  16.520         36.67	     6.633
  16.540         35.83	     6.557
  16.560         42.50	     7.141
  16.580         50.00	     7.746
  16.600         45.00	     7.348
  16.620         40.83	     7.000
  16.640         38.33	     6.782
  16.660         40.83	     7.000
  16.680         31.67	     6.164
  16.700         40.83	     7.000
  16.720         49.17	     7.681
  16.740         32.50	     6.245
  16.760         37.50	     6.708
  16.780         35.00	     6.481
  16.800         45.83	     7.416
  16.820         45.83	     7.416
  16.840         42.50	     7.141
  16.860         35.00	     6.481
  16.880         50.00	     7.746
  16.900         49.17	     7.681
  16.920         41.67	     7.071
  16.940         35.83	     6.557
  16.960         41.67	     7.071
  16.980         31.67	     6.164
  17.000         47.50	     7.550
  17.020         37.50	     6.708
  17.040         53.33	     8.000
  17.060         43.33	     7.211
  17.080         41.67	     7.071
  17.100         38.33	     6.782
  17.120         43.33	     7.211
  17.140         36.67	     6.633
  17.160         44.17	     7.280
  17.180         46.67	     7.483
  17.200         42.50	     7.141
  17.220         43.33	     7.211
  17.240         33.33	     6.325
  17.260         40.83	     7.000
  17.280         48.33	     7.616
  17.300         44.17	     7.280
  17.320         45.83	     7.416
  17.340         35.00	     6.481
  17.360         42.50	     7.141
  17.380         38.33	     6.782
  17.400         55.83	     8.185
  17.420         57.50	     8.307
  17.440         44.17	     7.280
  17.460         55.00	     8.124
  17.480         40.00	     6.928
  17.500         46.67	     7.483
  17.520         49.17	     7.681
  17.540         40.00	     6.928
  17.560         43.33	     7.211
  17.580         43.33	     7.211
  17.600         45.83	     7.416
  17.620         43.33	     7.211
  17.640         47.50	     7.550
  17.660         48.33	     7.616
  17.680         52.50	     7.937
  17.700         62.50	     8.660
  17.720         50.83	     7.810
  17.740         63.33	     8.718
  17.760         55.00	     8.124
  17.780         74.17	     9.434
  17.800         79.17	     9.747
  17.820        100.83	    11.000
  17.840        135.83	    12.767
  17.860        135.83	    12.767
  17.880        183.33	    14.832
  17.900        233.33	    16.733
  17.920        249.17	    17.292
  17.940        252.50	    17.407
  17.960        200.83	    15.524
  17.980        182.50	    14.799
  18.000        133.33	    12.649
  18.020         93.33	    10.583
  18.040         86.67	    10.198
  18.060         69.17	     9.110
  18.080         72.50	     9.327
  18.100         68.33	     9.055
  18.120         43.33	     7.211
  18.140         66.67	     8.944
  18.160         60.83	     8.544
  18.180         55.00	     8.124
  18.200         48.33	     7.616
  18.220         52.50	     7.937
  18.240         53.33	     8.000
  18.260         47.50	     7.550
  18.280         46.67	     7.483
  18.300         48.33	     7.616
  18.320         44.17	     7.280
  18.340         44.17	     7.280
  18.360         49.17	     7.681
  18.380         32.50	     6.245
  18.400         49.17	     7.681
  18.420         50.00	     7.746
  18.440         35.00	     6.481
  18.460         39.17	     6.856
  18.480         47.50	     7.550
  18.500         39.17	     6.856
  18.520         52.50	     7.937
  18.540         53.33	     8.000
  18.560         60.00	     8.485
  18.580         74.17	     9.434
  18.600         57.50	     8.307
  18.620         60.00	     8.485
  18.640         65.00	     8.832
  18.660         85.83	    10.149
  18.680         62.50	     8.660
  18.700         93.33	    10.583
  18.720         95.83	    10.724
  18.740         96.67	    10.770
  18.760         77.50	     9.644
  18.780         79.17	     9.747
  18.800         82.50	     9.950
  18.820         90.83	    10.440
  18.840        137.50	    12.845
  18.860        131.67	    12.570
  18.880        179.17	    14.663
  18.900        142.50	    13.077
  18.920        174.17	    14.457
  18.940        151.67	    13.491
  18.960        121.67	    12.083
  18.980         88.33	    10.296
  19.000         80.00	     9.798
  19.020         75.83	     9.539
  19.040         68.33	     9.055
  19.060         53.33	     8.000
  19.080         52.50	     7.937
  19.100         55.00	     8.124
  19.120         47.50	     7.550
  19.140         51.67	     7.874
  19.160         68.33	     9.055
  19.180         45.83	     7.416
  19.200         45.00	     7.348
  19.220         39.17	     6.856
  19.240         54.17	     8.062
  19.260         48.33	     7.616
  19.280         59.17	     8.426
  19.300         50.83	     7.810
  19.320         44.17	     7.280
  19.340         43.33	     7.211
  19.360         54.17	     8.062
  19.380         65.00	     8.832
  19.400         60.00	     8.485
  19.420         50.00	     7.746
  19.440         67.50	     9.000
  19.460         50.83	     7.810
  19.480         45.83	     7.416
  19.500         55.83	     8.185
  19.520         55.00	     8.124
  19.540         53.33	     8.000
  19.560         60.00	     8.485
  19.580         51.67	     7.874
  19.600         41.67	     7.071
  19.620         40.83	     7.000
  19.640         51.67	     7.874
  19.660         45.83	     7.416
  19.680         54.17	     8.062
  19.700         49.17	     7.681
  19.720         61.67	     8.602
  19.740         58.33	     8.367
  19.760         64.17	     8.775
  19.780         66.67	     8.944
  19.800         83.33	    10.000
  19.820         93.33	    10.583
  19.840         91.67	    10.488
  19.860         90.00	    10.392
  19.880         78.33	     9.695
  19.900         95.00	    10.677
  19.920         83.33	    10.000
  19.940        100.00	    10.954
  19.960        100.83	    11.000
  19.980        109.17	    11.446
  20.000         85.83	    10.149
  20.020         80.83	     9.849
  20.040         81.67	     9.899
  20.060         69.17	     9.110
  20.080         63.33	     8.718
  20.100         55.83	     8.185
  20.120         65.00	     8.832
  20.140         48.33	     7.616
  20.160         55.00	     8.124
  20.180         55.00	     8.124
  20.200         52.50	     7.937
  20.220         53.33	     8.000
  20.240         60.83	     8.544
  20.260         45.83	     7.416
  20.280         53.33	     8.000
  20.300         57.50	     8.307
  20.320         45.83	     7.416
  20.340         66.67	     8.944
  20.360         42.50	     7.141
  20.380         50.00	     7.746
  20.400         47.50	     7.550
  20.420         50.83	     7.810
  20.440         39.17	     6.856
  20.460         38.33	     6.782
  20.480         34.17	     6.403
  20.500         45.00	     7.348
  20.520         39.17	     6.856
  20.540         42.50	     7.141
  20.560         44.17	     7.280
  20.580         56.67	     8.246
  20.600         43.33	     7.211
  20.620         44.17	     7.280
  20.640         49.17	     7.681
  20.660         50.00	     7.746
  20.680         55.83	     8.185
  20.700         50.83	     7.810
  20.720         73.33	     9.381
  20.740         45.83	     7.416
  20.760         63.33	     8.718
  20.780         62.50	     8.660
  20.800         57.50	     8.307
  20.820         54.17	     8.062
  20.840         49.17	     7.681
  20.860         65.83	     8.888
  20.880         87.50	    10.247
  20.900        129.17	    12.450
  20.920        180.00	    14.697
  20.940        198.33	    15.427
  20.960        307.50	    19.209
  20.980        325.83	    19.774
  21.000        333.33	    20.000
  21.020        242.50	    17.059
  21.040        209.17	    15.843
  21.060        187.50	    15.000
  21.080        143.33	    13.115
  21.100        115.83	    11.790
  21.120        145.83	    13.229
  21.140        125.00	    12.247
  21.160        125.00	    12.247
  21.180        101.67	    11.045
  21.200         77.50	     9.644
  21.220         65.83	     8.888
  21.240         64.17	     8.775
  21.260         58.33	     8.367
  21.280         41.67	     7.071
  21.300         39.17	     6.856
  21.320         44.17	     7.280
  21.340         55.83	     8.185
  21.360         45.83	     7.416
  21.380         43.33	     7.211
  21.400         50.83	     7.810
  21.420         55.00	     8.124
  21.440         51.67	     7.874
  21.460         42.50	     7.141
  21.480         37.50	     6.708
  21.500         39.17	     6.856
  21.520         37.50	     6.708
  21.540         54.17	     8.062
  21.560         58.33	     8.367
  21.580         51.67	     7.874
  21.600         46.67	     7.483
  21.620         49.17	     7.681
  21.640         48.33	     7.616
  21.660         55.83	     8.185
  21.680         58.33	     8.367
  21.700         45.00	     7.348
  21.720         52.50	     7.937
  21.740         48.33	     7.616
  21.760         48.33	     7.616
  21.780         54.17	     8.062
  21.800         46.67	     7.483
  21.820         45.00	     7.348
  21.840         41.67	     7.071
  21.860         52.50	     7.937
  21.880         58.33	     8.367
  21.900         53.33	     8.000
  21.920         50.00	     7.746
  21.940         58.33	     8.367
  21.960         50.83	     7.810
  21.980         53.33	     8.000
  22.000         57.50	     8.307
  22.020         67.50	     9.000
  22.040         75.00	     9.487
  22.060         90.83	    10.440
  22.080        113.33	    11.662
  22.100        155.83	    13.675
  22.120        250.83	    17.349
  22.140        303.33	    19.079
  22.160        282.50	    18.412
  22.180        266.67	    17.889
  22.200        224.17	    16.401
  22.220        175.00	    14.491
  22.240        116.67	    11.832
  22.260         86.67	    10.198
  22.280         74.17	     9.434
  22.300         51.67	     7.874
  22.320         54.17	     8.062
  22.340         55.00	     8.124
  22.360         51.67	     7.874
  22.380         41.67	     7.071
  22.400         58.33	     8.367
  22.420         61.67	     8.602
  22.440         50.83	     7.810
  22.460         62.50	     8.660
  22.480         60.00	     8.485
  22.500         50.00	     7.746
  22.520         65.00	     8.832
  22.540         61.67	     8.602
  22.560         60.00	     8.485
  22.580         70.00	     9.165
  22.600         43.33	     7.211
  22.620         55.83	     8.185
  22.640         66.67	     8.944
  22.660         61.67	     8.602
  22.680         45.83	     7.416
  22.700         56.67	     8.246
  22.720         45.00	     7.348
  22.740         60.83	     8.544
  22.760         48.33	     7.616
  22.780         55.83	     8.185
  22.800         50.00	     7.746
  22.820         53.33	     8.000
  22.840         41.67	     7.071
  22.860         58.33	     8.367
  22.880         48.33	     7.616
  22.900         61.67	     8.602
  22.920         65.00	     8.832
  22.940         87.50	    10.247
  22.960         85.00	    10.100
  22.980        104.17	    11.180
  23.000        104.17	    11.180
  23.020         99.17	    10.909
  23.040         84.17	    10.050
  23.060         91.67	    10.488
  23.080         84.17	    10.050
  23.100        114.17	    11.705
  23.120         92.50	    10.536
  23.140        117.50	    11.874
  23.160        124.17	    12.207
  23.180        105.00	    11.225
  23.200         79.17	     9.747
  23.220         78.33	     9.695
  23.240         78.33	     9.695
  23.260         70.00	     9.165
  23.280         61.67	     8.602
  23.300         64.17	     8.775
  23.320         45.83	     7.416
  23.340         52.50	     7.937
  23.360         56.67	     8.246
  23.380         60.00	     8.485
  23.400         60.83	     8.544
  23.420         61.67	     8.602
  23.440         50.83	     7.810
  23.460         50.83	     7.810
  23.480         60.00	     8.485
  23.500         55.83	     8.185
  23.520         71.67	     9.274
  23.540         85.00	    10.100
  23.560         62.50	     8.660
  23.580         98.33	    10.863
  23.600        131.67	    12.570
  23.620        127.50	    12.369
  23.640        152.50	    13.528
  23.660        176.67	    14.560
  23.680        179.17	    14.663
  23.700        174.17	    14.457
  23.720        143.33	    13.115
  23.740        135.00	    12.728
  23.760        130.00	    12.490
  23.780        100.00	    10.954
  23.800        100.00	    10.954
  23.820         90.83	    10.440
  23.840         86.67	    10.198
  23.860         85.83	    10.149
  23.880         88.33	    10.296
  23.900         91.67	    10.488
  23.920         88.33	    10.296
  23.940        108.33	    11.402
  23.960        103.33	    11.136
  23.980         90.00	    10.392
  24.000         74.17	     9.434
  24.020         80.00	     9.798
  24.040         80.83	     9.849
  24.060         92.50	    10.536
  24.080         95.83	    10.724
  24.100         71.67	     9.274
  24.120         80.83	     9.849
  24.140         92.50	    10.536
  24.160         90.00	    10.392
  24.180         66.67	     8.944
  24.200         80.83	     9.849
  24.220         90.83	    10.440
  24.240         88.33	    10.296
  24.260        114.17	    11.705
  24.280        142.50	    13.077
  24.300        115.83	    11.790
  24.320        142.50	    13.077
  24.340        160.00	    13.856
  24.360        148.33	    13.342
  24.380        187.50	    15.000
  24.400        161.67	    13.928
  24.420        156.67	    13.711
  24.440        145.83	    13.229
  24.460        136.67	    12.806
  24.480        120.00	    12.000
  24.500        109.17	    11.446
  24.520        105.00	    11.225
  24.540        104.17	    11.180
  24.560         91.67	    10.488
  24.580        102.50	    11.091
  24.600        130.83	    12.530
  24.620        151.67	    13.491
  24.640        185.83	    14.933
  24.660        215.00	    16.062
  24.680        275.00	    18.166
  24.700        280.83	    18.358
  24.720        313.33	    19.391
  24.740        347.50	    20.421
  24.760        301.67	    19.026
  24.780        295.83	    18.841
  24.800        262.50	    17.748
  24.820        231.67	    16.673
  24.840        185.83	    14.933
  24.860        180.83	    14.731
  24.880        159.17	    13.820
  24.900        154.17	    13.601
  24.920        149.17	    13.379
  24.940        125.83	    12.288
  24.960        135.83	    12.767
  24.980        123.33	    12.166
  25.000        108.33	    11.402
  25.020        130.00	    12.490
  25.040        115.83	    11.790
  25.060        111.67	    11.576
  25.080         92.50	    10.536
  25.100        125.00	    12.247
  25.120        125.83	    12.288
  25.140        136.67	    12.806
  25.160        173.33	    14.422
  25.180        189.17	    15.067
  25.200        229.17	    16.583
  25.220        235.00	    16.793
  25.240        282.50	    18.412
  25.260        318.33	    19.545
  25.280        329.17	    19.875
  25.300        276.67	    18.221
  25.320        261.67	    17.720
  25.340        220.83	    16.279
  25.360        185.00	    14.900
  25.380        151.67	    13.491
  25.400        132.50	    12.610
  25.420        126.67	    12.329
  25.440        131.67	    12.570
  25.460        132.50	    12.610
  25.480        134.17	    12.689
  25.500        133.33	    12.649
  25.520        190.83	    15.133
  25.540        181.67	    14.765
  25.560        170.83	    14.318
  25.580        185.83	    14.933
  25.600        199.17	    15.460
  25.620        196.67	    15.362
  25.640        225.83	    16.462
  25.660        207.50	    15.780
  25.680        208.33	    15.811
  25.700        169.17	    14.248
  25.720        187.50	    15.000
  25.740        189.17	    15.067
  25.760        178.33	    14.629
  25.780        138.33	    12.884
  25.800        131.67	    12.570
  25.820        111.67	    11.576
  25.840        102.50	    11.091
  25.860         92.50	    10.536
  25.880         85.83	    10.149
  25.900         84.17	    10.050
  25.920         74.17	     9.434
  25.940         80.00	     9.798
  25.960         81.67	     9.899
  25.980         90.00	    10.392
  26.000         67.50	     9.000
  26.020         76.67	     9.592
  26.040         69.17	     9.110
  26.060         80.83	     9.849
  26.080         82.50	     9.950
  26.100         88.33	    10.296
  26.120         79.17	     9.747
  26.140         75.83	     9.539
  26.160         84.17	    10.050
  26.180         72.50	     9.327
  26.200         84.17	    10.050
  26.220         75.83	     9.539
  26.240         81.67	     9.899
  26.260         90.00	    10.392
  26.280        101.67	    11.045
  26.300         79.17	     9.747
  26.320        103.33	    11.136
  26.340        105.83	    11.269
  26.360        122.50	    12.124
  26.380        130.83	    12.530
  26.400        130.83	    12.530
  26.420        145.83	    13.229
  26.440        151.67	    13.491
  26.460        174.17	    14.457
  26.480        168.33	    14.213
  26.500        205.00	    15.684
  26.520        247.50	    17.234
  26.540        233.33	    16.733
  26.560        222.50	    16.340
  26.580        257.50	    17.578
  26.600        258.33	    17.607
  26.620        263.33	    17.776
  26.640        325.00	    19.748
  26.660        393.33	    21.726
  26.680        470.83	    23.770
  26.700        686.67	    28.705
  26.720        970.00	    34.117
  26.740       1344.17	    40.162
  26.760       1580.00	    43.543
  26.780       1653.33	    44.542
  26.800       1376.67	    40.645
  26.820       1133.33	    36.878
  26.840       1038.33	    35.299
  26.860        804.17	    31.064
  26.880        622.50	    27.331
  26.900        533.33	    25.298
  26.920        563.33	    26.000
  26.940        669.17	    28.337
  26.960        668.33	    28.320
  26.980        734.17	    29.682
  27.000        670.00	    28.355
  27.020        612.50	    27.111
  27.040        524.17	    25.080
  27.060        418.33	    22.405
  27.080        356.67	    20.688
  27.100        323.33	    19.698
  27.120        244.17	    17.117
  27.140        229.17	    16.583
  27.160        181.67	    14.765
  27.180        215.83	    16.093
  27.200        165.00	    14.071
  27.220        190.83	    15.133
  27.240        201.67	    15.556
  27.260        213.33	    16.000
  27.280        230.83	    16.643
  27.300        275.83	    18.193
  27.320        257.50	    17.578
  27.340        263.33	    17.776
  27.360        235.00	    16.793
  27.380        205.83	    15.716
  27.400        182.50	    14.799
  27.420        157.50	    13.748
  27.440        133.33	    12.649
  27.460        118.33	    11.916
  27.480        107.50	    11.358
  27.500        121.67	    12.083
  27.520        110.00	    11.489
  27.540        120.83	    12.042
  27.560        153.33	    13.565
  27.580        175.00	    14.491
  27.600        219.17	    16.217
  27.620        219.17	    16.217
  27.640        191.67	    15.166
  27.660        168.33	    14.213
  27.680        172.50	    14.387
  27.700        161.67	    13.928
  27.720        138.33	    12.884
  27.740        125.83	    12.288
  27.760        109.17	    11.446
  27.780        159.17	    13.820
  27.800        200.00	    15.492
  27.820        281.67	    18.385
  27.840        285.83	    18.520
  27.860        352.50	    20.567
  27.880        335.83	    20.075
  27.900        341.67	    20.248
  27.920        335.00	    20.050
  27.940        383.33	    21.448
  27.960        343.33	    20.298
  27.980        452.50	    23.302
  28.000        520.83	    25.000
  28.020        580.83	    26.401
  28.040        603.33	    26.907
  28.060        524.17	    25.080
  28.080        501.67	    24.536
  28.100        458.33	    23.452
  28.120        351.67	    20.543
  28.140        311.67	    19.339
  28.160        236.67	    16.852
  28.180        214.17	    16.031
  28.200        195.00	    15.297
  28.220        184.17	    14.866
  28.240        185.83	    14.933
  28.260        174.17	    14.457
  28.280        147.50	    13.304
  28.300        149.17	    13.379
  28.320        126.67	    12.329
  28.340        135.83	    12.767
  28.360        123.33	    12.166
  28.380        120.83	    12.042
  28.400        135.00	    12.728
  28.420        155.83	    13.675
  28.440        159.17	    13.820
  28.460        147.50	    13.304
  28.480         98.33	    10.863
  28.500        121.67	    12.083
  28.520         90.00	    10.392
  28.540         95.00	    10.677
  28.560         78.33	     9.695
  28.580         64.17	     8.775
  28.600         82.50	     9.950
  28.620         85.00	    10.100
  28.640         89.17	    10.344
  28.660        105.00	    11.225
  28.680        135.00	    12.728
  28.700        126.67	    12.329
  28.720        157.50	    13.748
  28.740        151.67	    13.491
  28.760        130.83	    12.530
  28.780        126.67	    12.329
  28.800        132.50	    12.610
  28.820        104.17	    11.180
  28.840        112.50	    11.619
  28.860         89.17	    10.344
  28.880        106.67	    11.314
  28.900         91.67	    10.488
  28.920         80.83	     9.849
  28.940         74.17	     9.434
  28.960         85.00	    10.100
  28.980         69.17	     9.110
  29.000         55.83	     8.185
  29.020         61.67	     8.602
  29.040         54.17	     8.062
  29.060         51.67	     7.874
  29.080         53.33	     8.000
  29.100         55.83	     8.185
  29.120         46.67	     7.483
  29.140         48.33	     7.616
  29.160         49.17	     7.681
  29.180         53.33	     8.000
  29.200         42.50	     7.141
  29.220         64.17	     8.775
  29.240         47.50	     7.550
  29.260         56.67	     8.246
  29.280         47.50	     7.550
  29.300         44.17	     7.280
  29.320         55.00	     8.124
  29.340         52.50	     7.937
  29.360         45.83	     7.416
  29.380         46.67	     7.483
  29.400         52.50	     7.937
  29.420         46.67	     7.483
  29.440         46.67	     7.483
  29.460         46.67	     7.483
  29.480         40.00	     6.928
  29.500         47.50	     7.550
  29.520         54.17	     8.062
  29.540         65.00	     8.832
  29.560         45.00	     7.348
  29.580         52.50	     7.937
  29.600         50.83	     7.810
  29.620         50.00	     7.746
  29.640         49.17	     7.681
  29.660         51.67	     7.874
  29.680         55.00	     8.124
  29.700         47.50	     7.550
  29.720         49.17	     7.681
  29.740         56.67	     8.246
  29.760         68.33	     9.055
  29.780         83.33	    10.000
  29.800         81.67	     9.899
  29.820         87.50	    10.247
  29.840        100.83	    11.000
  29.860        110.83	    11.533
  29.880        122.50	    12.124
  29.900        122.50	    12.124
  29.920        172.50	    14.387
  29.940        175.83	    14.526
  29.960        186.67	    14.967
  29.980        195.83	    15.330
  30.000        206.67	    15.748
  30.020        183.33	    14.832
  30.040        184.17	    14.866
  30.060        158.33	    13.784
  30.080        168.33	    14.213
  30.100        136.67	    12.806
  30.120        145.00	    13.191
  30.140        125.83	    12.288
  30.160        109.17	    11.446
  30.180        103.33	    11.136
  30.200        110.83	    11.533
  30.220        121.67	    12.083
  30.240        137.50	    12.845
  30.260        129.17	    12.450
  30.280        119.17	    11.958
  30.300        130.00	    12.490
  30.320        117.50	    11.874
  30.340        142.50	    13.077
  30.360        135.83	    12.767
  30.380        110.83	    11.533
  30.400         86.67	    10.198
  30.420        102.50	    11.091
  30.440        101.67	    11.045
  30.460        114.17	    11.705
  30.480        102.50	    11.091
  30.500         99.17	    10.909
  30.520        118.33	    11.916
  30.540        105.00	    11.225
  30.560        110.00	    11.489
  30.580        133.33	    12.649
  30.600        146.67	    13.266
  30.620        143.33	    13.115
  30.640        110.00	    11.489
  30.660         97.50	    10.817
  30.680        107.50	    11.358
  30.700         99.17	    10.909
  30.720         90.83	    10.440
  30.740         65.00	     8.832
  30.760         72.50	     9.327
  30.780         68.33	     9.055
  30.800         54.17	     8.062
  30.820         70.83	     9.220
  30.840         70.83	     9.220
  30.860         56.67	     8.246
  30.880         75.00	     9.487
  30.900         91.67	    10.488
  30.920         65.83	     8.888
  30.940         89.17	    10.344
  30.960        129.17	    12.450
  30.980        119.17	    11.958
  31.000        111.67	    11.576
  31.020         90.83	    10.440
  31.040        110.00	    11.489
  31.060         93.33	    10.583
  31.080         75.00	     9.487
  31.100         92.50	    10.536
  31.120         81.67	     9.899
  31.140         64.17	     8.775
  31.160         80.00	     9.798
  31.180         61.67	     8.602
  31.200         92.50	    10.536
  31.220         82.50	     9.950
  31.240         95.00	    10.677
  31.260        104.17	    11.180
  31.280        110.00	    11.489
  31.300        125.83	    12.288
  31.320        135.83	    12.767
  31.340        146.67	    13.266
  31.360        145.00	    13.191
  31.380        193.33	    15.232
  31.400        139.17	    12.923
  31.420        124.17	    12.207
  31.440        147.50	    13.304
  31.460        114.17	    11.705
  31.480        104.17	    11.180
  31.500         95.83	    10.724
  31.520         79.17	     9.747
  31.540         96.67	    10.770
  31.560         85.83	    10.149
  31.580         90.00	    10.392
  31.600         81.67	     9.899
  31.620         85.83	    10.149
  31.640         84.17	    10.050
  31.660         95.00	    10.677
  31.680         76.67	     9.592
  31.700         92.50	    10.536
  31.720        101.67	    11.045
  31.740         95.83	    10.724
  31.760         66.67	     8.944
  31.780         64.17	     8.775
  31.800         70.83	     9.220
  31.820         59.17	     8.426
  31.840         60.00	     8.485
  31.860         55.00	     8.124
  31.880         58.33	     8.367
  31.900         49.17	     7.681
  31.920         59.17	     8.426
  31.940         64.17	     8.775
  31.960         51.67	     7.874
  31.980         51.67	     7.874
  32.000         64.17	     8.775
  32.020         75.83	     9.539
  32.040         81.67	     9.899
  32.060         70.00	     9.165
  32.080         70.00	     9.165
  32.100         83.33	    10.000
  32.120         83.33	    10.000
  32.140         90.83	    10.440
  32.160        113.33	    11.662
  32.180        112.50	    11.619
  32.200        128.33	    12.410
  32.220        110.83	    11.533
  32.240        115.83	    11.790
  32.260         96.67	    10.770
  32.280         76.67	     9.592
  32.300         73.33	     9.381
  32.320         70.83	     9.220
  32.340         75.00	     9.487
  32.360         78.33	     9.695
  32.380         70.83	     9.220
  32.400         80.83	     9.849
  32.420         69.17	     9.110
  32.440         65.83	     8.888
  32.460         58.33	     8.367
  32.480         62.50	     8.660
  32.500         48.33	     7.616
  32.520         50.00	     7.746
  32.540         43.33	     7.211
  32.560         49.17	     7.681
  32.580         34.17	     6.403
  32.600         34.17	     6.403
  32.620         34.17	     6.403
  32.640         40.83	     7.000
  32.660         39.17	     6.856
  32.680         40.83	     7.000
  32.700         39.17	     6.856
  32.720         38.33	     6.782
  32.740         39.17	     6.856
  32.760         30.83	     6.083
  32.780         44.17	     7.280
  32.800         42.50	     7.141
  32.820         40.00	     6.928
  32.840         47.50	     7.550
  32.860         40.00	     6.928
  32.880         45.83	     7.416
  32.900         56.67	     8.246
  32.920         39.17	     6.856
  32.940         51.67	     7.874
  32.960         54.17	     8.062
  32.980         46.67	     7.483
  33.000         41.67	     7.071
  33.020         42.50	     7.141
  33.040         47.50	     7.550
  33.060         50.83	     7.810
  33.080         41.67	     7.071
  33.100         52.50	     7.937
  33.120         77.50	     9.644
  33.140         91.67	    10.488
  33.160         85.00	    10.100
  33.180         80.00	     9.798
  33.200         83.33	    10.000
  33.220         54.17	     8.062
  33.240         67.50	     9.000
  33.260         65.00	     8.832
  33.280         55.00	     8.124
  33.300         57.50	     8.307
  33.320         35.00	     6.481
  33.340         51.67	     7.874
  33.360         37.50	     6.708
  33.380         41.67	     7.071
  33.400         42.50	     7.141
  33.420         46.67	     7.483
  33.440         51.67	     7.874
  33.460         34.17	     6.403
  33.480         65.83	     8.888
  33.500         48.33	     7.616
  33.520         50.83	     7.810
  33.540         55.00	     8.124
  33.560         46.67	     7.483
  33.580         50.83	     7.810
  33.600         61.67	     8.602
  33.620         45.83	     7.416
  33.640         45.83	     7.416
  33.660         47.50	     7.550
  33.680         55.00	     8.124
  33.700         60.00	     8.485
  33.720         47.50	     7.550
  33.740         41.67	     7.071
  33.760         40.83	     7.000
  33.780         41.67	     7.071
  33.800         40.83	     7.000
  33.820         50.83	     7.810
  33.840         42.50	     7.141
  33.860         36.67	     6.633
  33.880         44.17	     7.280
  33.900         44.17	     7.280
  33.920         37.50	     6.708
  33.940         54.17	     8.062
  33.960         48.33	     7.616
  33.980         50.83	     7.810
  34.000         61.67	     8.602
  34.020         44.17	     7.280
  34.040         75.00	     9.487
  34.060         62.50	     8.660
  34.080         65.83	     8.888
  34.100         69.17	     9.110
  34.120         57.50	     8.307
  34.140         71.67	     9.274
  34.160         78.33	     9.695
  34.180         64.17	     8.775
  34.200         75.00	     9.487
  34.220         69.17	     9.110
  34.240         60.00	     8.485
  34.260         69.17	     9.110
  34.280         69.17	     9.110
  34.300         55.83	     8.185
  34.320         51.67	     7.874
  34.340         55.83	     8.185
  34.360         51.67	     7.874
  34.380         66.67	     8.944
  34.400         48.33	     7.616
  34.420         54.17	     8.062
  34.440         67.50	     9.000
  34.460         64.17	     8.775
  34.480         70.83	     9.220
  34.500         64.17	     8.775
  34.520         73.33	     9.381
  34.540         78.33	     9.695
  34.560         90.83	    10.440
  34.580         95.00	    10.677
  34.600         93.33	    10.583
  34.620         78.33	     9.695
  34.640         93.33	    10.583
  34.660         93.33	    10.583
  34.680        104.17	    11.180
  34.700        116.67	    11.832
  34.720        104.17	    11.180
  34.740         81.67	     9.899
  34.760         97.50	    10.817
  34.780         84.17	    10.050
  34.800         94.17	    10.630
  34.820         86.67	    10.198
  34.840         95.00	    10.677
  34.860         85.00	    10.100
  34.880         82.50	     9.950
  34.900         79.17	     9.747
  34.920        105.00	    11.225
  34.940        116.67	    11.832
  34.960        100.00	    10.954
  34.980        119.17	    11.958
  35.000        104.17	    11.180
  35.020        126.67	    12.329
  35.040        123.33	    12.166
  35.060        147.50	    13.304
  35.080        148.33	    13.342
  35.100        153.33	    13.565
  35.120        156.67	    13.711
  35.140        149.17	    13.379
  35.160        142.50	    13.077
  35.180        129.17	    12.450
  35.200        140.00	    12.961
  35.220        110.00	    11.489
  35.240        108.33	    11.402
  35.260        111.67	    11.576
  35.280        104.17	    11.180
  35.300         87.50	    10.247
  35.320        108.33	    11.402
  35.340         90.83	    10.440
  35.360         89.17	    10.344
  35.380         91.67	    10.488
  35.400        110.83	    11.533
  35.420         98.33	    10.863
  35.440         81.67	     9.899
  35.460         79.17	     9.747
  35.480         93.33	    10.583
  35.500         81.67	     9.899
  35.520        113.33	    11.662
  35.540         99.17	    10.909
  35.560         88.33	    10.296
  35.580         81.67	     9.899
  35.600        115.83	    11.790
  35.620        108.33	    11.402
  35.640        120.83	    12.042
  35.660        120.83	    12.042
  35.680        140.00	    12.961
  35.700        115.00	    11.747
  35.720        107.50	    11.358
  35.740         95.83	    10.724
  35.760        102.50	    11.091
  35.780        106.67	    11.314
  35.800         96.67	    10.770
  35.820         75.00	     9.487
  35.840         92.50	    10.536
  35.860         69.17	     9.110
  35.880         77.50	     9.644
  35.900         73.33	     9.381
  35.920         70.83	     9.220
  35.940         69.17	     9.110
  35.960         80.83	     9.849
  35.980         65.00	     8.832
  36.000         60.83	     8.544
  36.020         60.00	     8.485
  36.040         65.00	     8.832
  36.060         59.17	     8.426
  36.080         90.83	    10.440
  36.100         85.83	    10.149
  36.120         96.67	    10.770
  36.140         96.67	    10.770
  36.160         76.67	     9.592
  36.180         90.00	    10.392
  36.200        109.17	    11.446
  36.220         96.67	    10.770
  36.240         86.67	    10.198
  36.260         80.00	     9.798
  36.280         74.17	     9.434
  36.300         71.67	     9.274
  36.320         61.67	     8.602
  36.340         60.83	     8.544
  36.360         53.33	     8.000
  36.380         41.67	     7.071
  36.400         48.33	     7.616
  36.420         45.83	     7.416
  36.440         59.17	     8.426
  36.460         47.50	     7.550
  36.480         40.83	     7.000
  36.500         59.17	     8.426
  36.520         63.33	     8.718
  36.540         60.00	     8.485
  36.560         89.17	    10.344
  36.580         91.67	    10.488
  36.600        121.67	    12.083
  36.620        130.00	    12.490
  36.640        135.83	    12.767
  36.660        155.83	    13.675
  36.680        164.17	    14.036
  36.700        125.00	    12.247
  36.720        125.00	    12.247
  36.740        145.00	    13.191
  36.760        131.67	    12.570
  36.780        111.67	    11.576
  36.800         97.50	    10.817
  36.820        103.33	    11.136
  36.840         94.17	    10.630
  36.860         83.33	    10.000
  36.880        102.50	    11.091
  36.900         83.33	    10.000
  36.920         80.83	     9.849
  36.940         67.50	     9.000
  36.960         70.00	     9.165
  36.980         64.17	     8.775
  37.000         61.67	     8.602
  37.020         58.33	     8.367
  37.040         45.83	     7.416
  37.060         65.83	     8.888
  37.080         56.67	     8.246
  37.100         55.83	     8.185
  37.120         50.00	     7.746
  37.140         57.50	     8.307
  37.160         54.17	     8.062
  37.180         55.83	     8.185
  37.200         56.67	     8.246
  37.220         50.83	     7.810
  37.240         65.00	     8.832
  37.260         72.50	     9.327
  37.280         58.33	     8.367
  37.300         60.83	     8.544
  37.320         67.50	     9.000
  37.340         64.17	     8.775
  37.360         53.33	     8.000
  37.380         55.83	     8.185
  37.400         69.17	     9.110
  37.420         70.83	     9.220
  37.440         66.67	     8.944
  37.460         65.83	     8.888
  37.480         61.67	     8.602
  37.500         74.17	     9.434
  37.520         83.33	    10.000
  37.540         68.33	     9.055
  37.560         80.83	     9.849
  37.580         82.50	     9.950
  37.600         75.83	     9.539
  37.620         75.83	     9.539
  37.640         90.83	    10.440
  37.660         82.50	     9.950
  37.680         86.67	    10.198
  37.700         80.00	     9.798
  37.720         79.17	     9.747
  37.740         99.17	    10.909
  37.760         92.50	    10.536
  37.780         85.83	    10.149
  37.800        100.83	    11.000
  37.820        106.67	    11.314
  37.840         88.33	    10.296
  37.860        101.67	    11.045
  37.880         85.83	    10.149
  37.900         89.17	    10.344
  37.920         80.00	     9.798
  37.940         80.00	     9.798
  37.960         66.67	     8.944
  37.980         66.67	     8.944
  38.000         56.67	     8.246
  38.020         45.83	     7.416
  38.040         47.50	     7.550
  38.060         40.00	     6.928
  38.080         34.17	     6.403
  38.100         41.67	     7.071
  38.120         29.17	     5.916
  38.140         40.00	     6.928
  38.160         45.83	     7.416
  38.180         43.33	     7.211
  38.200         30.00	     6.000
  38.220         39.17	     6.856
  38.240         35.83	     6.557
  38.260         37.50	     6.708
  38.280         40.00	     6.928
  38.300         41.67	     7.071
  38.320         38.33	     6.782
  38.340         41.67	     7.071
  38.360         40.83	     7.000
  38.380         48.33	     7.616
  38.400         34.17	     6.403
  38.420         36.67	     6.633
  38.440         34.17	     6.403
  38.460         30.83	     6.083
  38.480         36.67	     6.633
  38.500         36.67	     6.633
  38.520         42.50	     7.141
  38.540         39.17	     6.856
  38.560         40.83	     7.000
  38.580         27.50	     5.745
  38.600         32.50	     6.245
  38.620         39.17	     6.856
  38.640         43.33	     7.211
  38.660         39.17	     6.856
  38.680         45.83	     7.416
  38.700         52.50	     7.937
  38.720         51.67	     7.874
  38.740         54.17	     8.062
  38.760         53.33	     8.000
  38.780         60.83	     8.544
  38.800         54.17	     8.062
  38.820         59.17	     8.426
  38.840         46.67	     7.483
  38.860         45.00	     7.348
  38.880         45.83	     7.416
  38.900         50.83	     7.810
  38.920         71.67	     9.274
  38.940         70.00	     9.165
  38.960         52.50	     7.937
  38.980         55.00	     8.124
  39.000         47.50	     7.550
  39.020         60.00	     8.485
  39.040         54.17	     8.062
  39.060         39.17	     6.856
  39.080         31.67	     6.164
  39.100         47.50	     7.550
  39.120         30.00	     6.000
  39.140         38.33	     6.782
  39.160         37.50	     6.708
  39.180         40.83	     7.000
  39.200         40.83	     7.000
  39.220         40.83	     7.000
  39.240         29.17	     5.916
  39.260         45.83	     7.416
  39.280         53.33	     8.000
  39.300         41.67	     7.071
  39.320         34.17	     6.403
  39.340         44.17	     7.280
  39.360         32.50	     6.245
  39.380         40.00	     6.928
  39.400         40.83	     7.000
  39.420         30.83	     6.083
  39.440         44.17	     7.280
  39.460         45.83	     7.416
  39.480         49.17	     7.681
  39.500         49.17	     7.681
  39.520         66.67	     8.944
  39.540         84.17	    10.050
  39.560         85.00	    10.100
  39.580        120.00	    12.000
  39.600        106.67	    11.314
  39.620         82.50	     9.950
  39.640         65.00	     8.832
  39.660         75.00	     9.487
  39.680         89.17	    10.344
  39.700         70.00	     9.165
  39.720         77.50	     9.644
  39.740         74.17	     9.434
  39.760         76.67	     9.592
  39.780         72.50	     9.327
  39.800         68.33	     9.055
  39.820         70.00	     9.165
  39.840        111.67	    11.576
  39.860         90.83	    10.440
  39.880         69.17	     9.110
  39.900         60.00	     8.485
  39.920         59.17	     8.426
  39.940         50.83	     7.810
  39.960         66.67	     8.944
  39.980         50.83	     7.810
  40.000         45.00	     7.348
  40.020         43.33	     7.211
  40.040         45.00	     7.348
  40.060         53.33	     8.000
  40.080         49.17	     7.681
  40.100         51.67	     7.874
  40.120         55.00	     8.124
  40.140         50.00	     7.746
  40.160         38.33	     6.782
  40.180         47.50	     7.550
  40.200         50.00	     7.746
  40.220         44.17	     7.280
  40.240         40.00	     6.928
  40.260         48.33	     7.616
  40.280         45.83	     7.416
  40.300         45.00	     7.348
  40.320         43.33	     7.211
  40.340         54.17	     8.062
  40.360         65.00	     8.832
  40.380         75.00	     9.487
  40.400         79.17	     9.747
  40.420         71.67	     9.274
  40.440         65.00	     8.832
  40.460         67.50	     9.000
  40.480         72.50	     9.327
  40.500         62.50	     8.660
  40.520         61.67	     8.602
  40.540         60.83	     8.544
  40.560         46.67	     7.483
  40.580         35.00	     6.481
  40.600         42.50	     7.141
  40.620         46.67	     7.483
  40.640         40.83	     7.000
  40.660         44.17	     7.280
  40.680         37.50	     6.708
  40.700         35.00	     6.481
  40.720         31.67	     6.164
  40.740         37.50	     6.708
  40.760         29.17	     5.916
  40.780         30.00	     6.000
  40.800         38.33	     6.782
  40.820         46.67	     7.483
  40.840         35.00	     6.481
  40.860         36.67	     6.633
  40.880         43.33	     7.211
  40.900         50.00	     7.746
  40.920         37.50	     6.708
  40.940         38.33	     6.782
  40.960         37.50	     6.708
  40.980         51.67	     7.874
  41.000         46.67	     7.483
  41.020         42.50	     7.141
  41.040         36.67	     6.633
  41.060         45.00	     7.348
  41.080         41.67	     7.071
  41.100         30.00	     6.000
  41.120         44.17	     7.280
  41.140         45.83	     7.416
  41.160         40.00	     6.928
  41.180         35.00	     6.481
  41.200         41.67	     7.071
  41.220         40.00	     6.928
  41.240         44.17	     7.280
  41.260         43.33	     7.211
  41.280         34.17	     6.403
  41.300         49.17	     7.681
  41.320         36.67	     6.633
  41.340         75.00	     9.487
  41.360         57.50	     8.307
  41.380         58.33	     8.367
  41.400         53.33	     8.000
  41.420         62.50	     8.660
  41.440         50.83	     7.810
  41.460         60.00	     8.485
  41.480         66.67	     8.944
  41.500         65.00	     8.832
  41.520         63.33	     8.718
  41.540         44.17	     7.280
  41.560         43.33	     7.211
  41.580         53.33	     8.000
  41.600         45.00	     7.348
  41.620         49.17	     7.681
  41.640         48.33	     7.616
  41.660         45.00	     7.348
  41.680         44.17	     7.280
  41.700         37.50	     6.708
  41.720         51.67	     7.874
  41.740         64.17	     8.775
  41.760         65.00	     8.832
  41.780         60.83	     8.544
  41.800         80.00	     9.798
  41.820         80.83	     9.849
  41.840         92.50	    10.536
  41.860         90.00	    10.392
  41.880         87.50	    10.247
  41.900         76.67	     9.592
  41.920         78.33	     9.695
  41.940         60.83	     8.544
  41.960         79.17	     9.747
  41.980         80.83	     9.849
  42.000         57.50	     8.307
  42.020         70.00	     9.165
  42.040         77.50	     9.644
  42.060         55.83	     8.185
  42.080         60.00	     8.485
  42.100         70.00	     9.165
  42.120         81.67	     9.899
  42.140         60.00	     8.485
  42.160         70.83	     9.220
  42.180         48.33	     7.616
  42.200         52.50	     7.937
  42.220         51.67	     7.874
  42.240         53.33	     8.000
  42.260         65.83	     8.888
  42.280         55.83	     8.185
  42.300         54.17	     8.062
  42.320         44.17	     7.280
  42.340         42.50	     7.141
  42.360         74.17	     9.434
  42.380         60.00	     8.485
  42.400         55.00	     8.124
  42.420         70.00	     9.165
  42.440         87.50	    10.247
  42.460         79.17	     9.747
  42.480         80.83	     9.849
  42.500        111.67	    11.576
  42.520        122.50	    12.124
  42.540        150.00	    13.416
  42.560        153.33	    13.565
  42.580        130.00	    12.490
  42.600        130.83	    12.530
  42.620        115.00	    11.747
  42.640         98.33	    10.863
  42.660        110.83	    11.533
  42.680         80.00	     9.798
  42.700         85.83	    10.149
  42.720         83.33	    10.000
  42.740         75.00	     9.487
  42.760         55.83	     8.185
  42.780         67.50	     9.000
  42.800         59.17	     8.426
  42.820         50.83	     7.810
  42.840         54.17	     8.062
  42.860         50.83	     7.810
  42.880         63.33	     8.718
  42.900         46.67	     7.483
  42.920         55.83	     8.185
  42.940         59.17	     8.426
  42.960         47.50	     7.550
  42.980         58.33	     8.367
  43.000         45.83	     7.416
  43.020         50.00	     7.746
  43.040         48.33	     7.616
  43.060         49.17	     7.681
  43.080         37.50	     6.708
  43.100         42.50	     7.141
  43.120         50.00	     7.746
  43.140         56.67	     8.246
  43.160         40.00	     6.928
  43.180         37.50	     6.708
  43.200         39.17	     6.856
  43.220         31.67	     6.164
  43.240         32.50	     6.245
  43.260         35.00	     6.481
  43.280         21.67	     5.099
  43.300         37.50	     6.708
  43.320         30.00	     6.000
  43.340         38.33	     6.782
  43.360         36.67	     6.633
  43.380         40.00	     6.928
  43.400         33.33	     6.325
  43.420         29.17	     5.916
  43.440         30.83	     6.083
  43.460         35.83	     6.557
  43.480         28.33	     5.831
  43.500         35.83	     6.557
  43.520         35.00	     6.481
  43.540         35.00	     6.481
  43.560         35.00	     6.481
  43.580         34.17	     6.403
  43.600         40.83	     7.000
  43.620         40.00	     6.928
  43.640         42.50	     7.141
  43.660         40.00	     6.928
  43.680         47.50	     7.550
  43.700         40.83	     7.000
  43.720         42.50	     7.141
  43.740         36.67	     6.633
  43.760         38.33	     6.782
  43.780         37.50	     6.708
  43.800         33.33	     6.325
  43.820         37.50	     6.708
  43.840         38.33	     6.782
  43.860         35.00	     6.481
  43.880         53.33	     8.000
  43.900         46.67	     7.483
  43.920         53.33	     8.000
  43.940         45.00	     7.348
  43.960         47.50	     7.550
  43.980         41.67	     7.071
  44.000         32.50	     6.245
  44.020         48.33	     7.616
  44.040         38.33	     6.782
  44.060         53.33	     8.000
  44.080         28.33	     5.831
  44.100         40.83	     7.000
  44.120         41.67	     7.071
  44.140         32.50	     6.245
  44.160         42.50	     7.141
  44.180         43.33	     7.211
  44.200         31.67	     6.164
  44.220         44.17	     7.280
  44.240         38.33	     6.782
  44.260         40.83	     7.000
  44.280         33.33	     6.325
  44.300         54.17	     8.062
  44.320         34.17	     6.403
  44.340         45.83	     7.416
  44.360         44.17	     7.280
  44.380         48.33	     7.616
  44.400         51.67	     7.874
  44.420         39.17	     6.856
  44.440         33.33	     6.325
  44.460         25.83	     5.568
  44.480         39.17	     6.856
  44.500         30.00	     6.000
  44.520         40.00	     6.928
  44.540         35.83	     6.557
  44.560         40.00	     6.928
  44.580         27.50	     5.745
  44.600         35.00	     6.481
  44.620         22.50	     5.196
  44.640         30.83	     6.083
  44.660         25.83	     5.568
  44.680         43.33	     7.211
  44.700         52.50	     7.937
  44.720         30.83	     6.083
  44.740         38.33	     6.782
  44.760         40.00	     6.928
  44.780         40.00	     6.928
  44.800         40.83	     7.000
  44.820         54.17	     8.062
  44.840         38.33	     6.782
  44.860         43.33	     7.211
  44.880         55.83	     8.185
  44.900         54.17	     8.062
  44.920         55.83	     8.185
  44.940         42.50	     7.141
  44.960         65.83	     8.888
  44.980         66.67	     8.944
  45.000         68.33	     9.055
  45.020         66.67	     8.944
  45.040         56.67	     8.246
  45.060         56.67	     8.246
  45.080         78.33	     9.695
  45.100         76.67	     9.592
  45.120         76.67	     9.592
  45.140         80.00	     9.798
  45.160         69.17	     9.110
  45.180         67.50	     9.000
  45.200         67.50	     9.000
  45.220         84.17	    10.050
  45.240         87.50	    10.247
  45.260         77.50	     9.644
  45.280         71.67	     9.274
  45.300         74.17	     9.434
  45.320         83.33	    10.000
  45.340         88.33	    10.296
  45.360         76.67	     9.592
  45.380         83.33	    10.000
  45.400         83.33	    10.000
  45.420         82.50	     9.950
  45.440         95.83	    10.724
  45.460        102.50	    11.091
  45.480        113.33	    11.662
  45.500        127.50	    12.369
  45.520        142.50	    13.077
  45.540        151.67	    13.491
  45.560        187.50	    15.000
  45.580        195.00	    15.297
  45.600        190.83	    15.133
  45.620        218.33	    16.186
  45.640        269.17	    17.972
  45.660        250.00	    17.321
  45.680        264.17	    17.804
  45.700        207.50	    15.780
  45.720        205.00	    15.684
  45.740        195.00	    15.297
  45.760        219.17	    16.217
  45.780        150.00	    13.416
  45.800        154.17	    13.601
  45.820        121.67	    12.083
  45.840        131.67	    12.570
  45.860        138.33	    12.884
  45.880        160.83	    13.892
  45.900        132.50	    12.610
  45.920        130.00	    12.490
  45.940         78.33	     9.695
  45.960         97.50	    10.817
  45.980         57.50	     8.307
  46.000         85.00	    10.100
  46.020         90.00	    10.392
  46.040         67.50	     9.000
  46.060         71.67	     9.274
  46.080         81.67	     9.899
  46.100         75.00	     9.487
  46.120         65.00	     8.832
  46.140         54.17	     8.062
  46.160         52.50	     7.937
  46.180         70.83	     9.220
  46.200         52.50	     7.937
  46.220         73.33	     9.381
  46.240         57.50	     8.307
  46.260         47.50	     7.550
  46.280         49.17	     7.681
  46.300         53.33	     8.000
  46.320         47.50	     7.550
  46.340         55.00	     8.124
  46.360         40.83	     7.000
  46.380         46.67	     7.483
  46.400         40.83	     7.000
  46.420         35.00	     6.481
  46.440         33.33	     6.325
  46.460         36.67	     6.633
  46.480         34.17	     6.403
  46.500         38.33	     6.782
  46.520         36.67	     6.633
  46.540         41.67	     7.071
  46.560         37.50	     6.708
  46.580         28.33	     5.831
  46.600         46.67	     7.483
  46.620         40.00	     6.928
  46.640         39.17	     6.856
  46.660         35.83	     6.557
  46.680         33.33	     6.325
  46.700         39.17	     6.856
  46.720         46.67	     7.483
  46.740         38.33	     6.782
  46.760         34.17	     6.403
  46.780         32.50	     6.245
  46.800         25.83	     5.568
  46.820         35.83	     6.557
  46.840         40.83	     7.000
  46.860         30.83	     6.083
  46.880         31.67	     6.164
  46.900         33.33	     6.325
  46.920         31.67	     6.164
  46.940         42.50	     7.141
  46.960         32.50	     6.245
  46.980         32.50	     6.245
  47.000         27.50	     5.745
  47.020         40.83	     7.000
  47.040         29.17	     5.916
  47.060         31.67	     6.164
  47.080         35.00	     6.481
  47.100         46.67	     7.483
  47.120         38.33	     6.782
  47.140         44.17	     7.280
  47.160         43.33	     7.211
  47.180         52.50	     7.937
  47.200         55.00	     8.124
  47.220         67.50	     9.000
  47.240         70.00	     9.165
  47.260         84.17	    10.050
  47.280         80.00	     9.798
  47.300         79.17	     9.747
  47.320         80.00	     9.798
  47.340         75.00	     9.487
  47.360         56.67	     8.246
  47.380         62.50	     8.660
  47.400         45.83	     7.416
  47.420         61.67	     8.602
  47.440         46.67	     7.483
  47.460         50.83	     7.810
  47.480         37.50	     6.708
  47.500         35.83	     6.557
  47.520         37.50	     6.708
  47.540         27.50	     5.745
  47.560         30.00	     6.000
  47.580         31.67	     6.164
  47.600         36.67	     6.633
  47.620         31.67	     6.164
  47.640         46.67	     7.483
  47.660         39.17	     6.856
  47.680         40.00	     6.928
  47.700         28.33	     5.831
  47.720         33.33	     6.325
  47.740         41.67	     7.071
  47.760         36.67	     6.633
  47.780         35.83	     6.557
  47.800         25.00	     5.477
  47.820         31.67	     6.164
  47.840         28.33	     5.831
  47.860         26.67	     5.657
  47.880         36.67	     6.633
  47.900         35.00	     6.481
  47.920         30.00	     6.000
  47.940         30.00	     6.000
  47.960         35.83	     6.557
  47.980         24.17	     5.385
  48.000         43.33	     7.211
  48.020         50.83	     7.810
  48.040         54.17	     8.062
  48.060         57.50	     8.307
  48.080         44.17	     7.280
  48.100         54.17	     8.062
  48.120         47.50	     7.550
  48.140         40.00	     6.928
  48.160         41.67	     7.071
  48.180         47.50	     7.550
  48.200         55.00	     8.124
  48.220         66.67	     8.944
  48.240         65.00	     8.832
  48.260         58.33	     8.367
  48.280         70.83	     9.220
  48.300         67.50	     9.000
  48.320         49.17	     7.681
  48.340         70.00	     9.165
  48.360         58.33	     8.367
  48.380         78.33	     9.695
  48.400         60.00	     8.485
  48.420         65.83	     8.888
  48.440         58.33	     8.367
  48.460         52.50	     7.937
  48.480         55.00	     8.124
  48.500         55.00	     8.124
  48.520         41.67	     7.071
  48.540         46.67	     7.483
  48.560         49.17	     7.681
  48.580         49.17	     7.681
  48.600         45.00	     7.348
  48.620         35.83	     6.557
  48.640         48.33	     7.616
  48.660         43.33	     7.211
  48.680         41.67	     7.071
  48.700         40.00	     6.928
  48.720         45.83	     7.416
  48.740         27.50	     5.745
  48.760         39.17	     6.856
  48.780         33.33	     6.325
  48.800         39.17	     6.856
  48.820         49.17	     7.681
  48.840         55.83	     8.185
  48.860         45.00	     7.348
  48.880         41.67	     7.071
  48.900         41.67	     7.071
  48.920         35.00	     6.481
  48.940         43.33	     7.211
  48.960         44.17	     7.280
  48.980         40.83	     7.000
  49.000         37.50	     6.708
  49.020         44.17	     7.280
  49.040         31.67	     6.164
  49.060         41.67	     7.071
  49.080         39.17	     6.856
  49.100         40.00	     6.928
  49.120         45.83	     7.416
  49.140         38.33	     6.782
  49.160         42.50	     7.141
  49.180         39.17	     6.856
  49.200         30.00	     6.000
  49.220         30.00	     6.000
  49.240         47.50	     7.550
  49.260         34.17	     6.403
  49.280         72.50	     9.327
  49.300         60.83	     8.544
  49.320         70.83	     9.220
  49.340         62.50	     8.660
  49.360         45.00	     7.348
  49.380         49.17	     7.681
  49.400         55.00	     8.124
  49.420         44.17	     7.280
  49.440         61.67	     8.602
  49.460         50.00	     7.746
  49.480         59.17	     8.426
  49.500         45.00	     7.348
  49.520         35.00	     6.481
  49.540         44.17	     7.280
  49.560         40.00	     6.928
  49.580         40.83	     7.000
  49.600         43.33	     7.211
  49.620         35.83	     6.557
  49.640         37.50	     6.708
  49.660         43.33	     7.211
  49.680         35.00	     6.481
  49.700         41.67	     7.071
  49.720         46.67	     7.483
  49.740         45.83	     7.416
  49.760         35.83	     6.557
  49.780         38.33	     6.782
  49.800         49.17	     7.681
  49.820         42.50	     7.141
  49.840         57.50	     8.307
  49.860         57.50	     8.307
  49.880         51.67	     7.874
  49.900         69.17	     9.110
  49.920         53.33	     8.000
  49.940         63.33	     8.718
  49.960         51.67	     7.874
  49.980         54.17	     8.062
  50.000         75.00	     9.487
  50.020         77.50	     9.644
  50.040         80.00	     9.798
  50.060         81.67	     9.899
  50.080         86.67	    10.198
  50.100         70.00	     9.165
  50.120         63.33	     8.718
  50.140         70.83	     9.220
  50.160        117.50	    11.874
  50.180        144.17	    13.153
  50.200        219.17	    16.217
  50.220        200.83	    15.524
  50.240        252.50	    17.407
  50.260        254.17	    17.464
  50.280        218.33	    16.186
  50.300        155.83	    13.675
  50.320        150.00	    13.416
  50.340        150.00	    13.416
  50.360        155.00	    13.638
  50.380        167.50	    14.177
  50.400        146.67	    13.266
  50.420         93.33	    10.583
  50.440         89.17	    10.344
  50.460         79.17	     9.747
  50.480         58.33	     8.367
  50.500         50.83	     7.810
  50.520         68.33	     9.055
  50.540         54.17	     8.062
  50.560         55.00	     8.124
  50.580         47.50	     7.550
  50.600         48.33	     7.616
  50.620         54.17	     8.062
  50.640         57.50	     8.307
  50.660         70.00	     9.165
  50.680         78.33	     9.695
  50.700         96.67	    10.770
  50.720         91.67	    10.488
  50.740         71.67	     9.274
  50.760         74.17	     9.434
  50.780         81.67	     9.899
  50.800         65.83	     8.888
  50.820         64.17	     8.775
  50.840         82.50	     9.950
  50.860         56.67	     8.246
  50.880         66.67	     8.944
  50.900         66.67	     8.944
  50.920         45.83	     7.416
  50.940         51.67	     7.874
  50.960         55.83	     8.185
  50.980         52.50	     7.937
  51.000         45.00	     7.348
  51.020         48.33	     7.616
  51.040         40.83	     7.000
  51.060         45.00	     7.348
  51.080         35.83	     6.557
  51.100         31.67	     6.164
  51.120         35.83	     6.557
  51.140         46.67	     7.483
  51.160         41.67	     7.071
  51.180         59.17	     8.426
  51.200         93.33	    10.583
  51.220         96.67	    10.770
  51.240        102.50	    11.091
  51.260         81.67	     9.899
  51.280         70.00	     9.165
  51.300         42.50	     7.141
  51.320         56.67	     8.246
  51.340         75.00	     9.487
  51.360         94.17	    10.630
  51.380         78.33	     9.695
  51.400         75.00	     9.487
  51.420         45.00	     7.348
  51.440         57.50	     8.307
  51.460         45.83	     7.416
  51.480         42.50	     7.141
  51.500         54.17	     8.062
  51.520         40.00	     6.928
  51.540         44.17	     7.280
  51.560         43.33	     7.211
  51.580         39.17	     6.856
  51.600         49.17	     7.681
  51.620         37.50	     6.708
  51.640         30.83	     6.083
  51.660         36.67	     6.633
  51.680         30.00	     6.000
  51.700         31.67	     6.164
  51.720         40.00	     6.928
  51.740         35.00	     6.481
  51.760         36.67	     6.633
  51.780         29.17	     5.916
  51.800         33.33	     6.325
  51.820         25.83	     5.568
  51.840         23.33	     5.292
  51.860         29.17	     5.916
  51.880         35.00	     6.481
  51.900         29.17	     5.916
  51.920         37.50	     6.708
  51.940         29.17	     5.916
  51.960         29.17	     5.916
  51.980         32.50	     6.245
  52.000         24.17	     5.385
  52.020         18.33	     4.690
  52.040         39.17	     6.856
  52.060         35.00	     6.481
  52.080         30.00	     6.000
  52.100         28.33	     5.831
  52.120         32.50	     6.245
  52.140         26.67	     5.657
  52.160         34.17	     6.403
  52.180         35.83	     6.557
  52.200         30.00	     6.000
  52.220         41.67	     7.071
  52.240         47.50	     7.550
  52.260         53.33	     8.000
  52.280         55.83	     8.185
  52.300         66.67	     8.944
  52.320         57.50	     8.307
  52.340         37.50	     6.708
  52.360         44.17	     7.280
  52.380         45.00	     7.348
  52.400         58.33	     8.367
  52.420         46.67	     7.483
  52.440         47.50	     7.550
  52.460         49.17	     7.681
  52.480         51.67	     7.874
  52.500         40.00	     6.928
  52.520         64.17	     8.775
  52.540         60.00	     8.485
  52.560         60.83	     8.544
  52.580         70.83	     9.220
  52.600         65.83	     8.888
  52.620         61.67	     8.602
  52.640         60.00	     8.485
  52.660         42.50	     7.141
  52.680         45.00	     7.348
  52.700         45.83	     7.416
  52.720         45.00	     7.348
  52.740         40.83	     7.000
  52.760         36.67	     6.633
  52.780         45.83	     7.416
  52.800         50.00	     7.746
  52.820         48.33	     7.616
  52.840         39.17	     6.856
  52.860         45.83	     7.416
  52.880         47.50	     7.550
  52.900         45.00	     7.348
  52.920         39.17	     6.856
  52.940         47.50	     7.550
  52.960         49.17	     7.681
  52.980         51.67	     7.874
  53.000         50.83	     7.810
  53.020         41.67	     7.071
  53.040         43.33	     7.211
  53.060         50.83	     7.810
  53.080         40.00	     6.928
  53.100         44.17	     7.280
  53.120         52.50	     7.937
  53.140         39.17	     6.856
  53.160         39.17	     6.856
  53.180         50.00	     7.746
  53.200         54.17	     8.062
  53.220         52.50	     7.937
  53.240         38.33	     6.782
  53.260         52.50	     7.937
  53.280         61.67	     8.602
  53.300         45.00	     7.348
  53.320         61.67	     8.602
  53.340         52.50	     7.937
  53.360         50.83	     7.810
  53.380         70.00	     9.165
  53.400         64.17	     8.775
  53.420         60.83	     8.544
  53.440         52.50	     7.937
  53.460         52.50	     7.937
  53.480         42.50	     7.141
  53.500         46.67	     7.483
  53.520         38.33	     6.782
  53.540         44.17	     7.280
  53.560         55.83	     8.185
  53.580         49.17	     7.681
  53.600         36.67	     6.633
  53.620         52.50	     7.937
  53.640         30.83	     6.083
  53.660         33.33	     6.325
  53.680         38.33	     6.782
  53.700         27.50	     5.745
  53.720         35.00	     6.481
  53.740         45.83	     7.416
  53.760         45.00	     7.348
  53.780         30.00	     6.000
  53.800         35.00	     6.481
  53.820         24.17	     5.385
  53.840         35.83	     6.557
  53.860         33.33	     6.325
  53.880         36.67	     6.633
  53.900         30.83	     6.083
  53.920         31.67	     6.164
  53.940         39.17	     6.856
  53.960         42.50	     7.141
  53.980         36.67	     6.633
  54.000         35.83	     6.557
  54.020         33.33	     6.325
  54.040         30.00	     6.000
  54.060         39.17	     6.856
  54.080         28.33	     5.831
  54.100         26.67	     5.657
  54.120         34.17	     6.403
  54.140         37.50	     6.708
  54.160         31.67	     6.164
  54.180         26.67	     5.657
  54.200         40.00	     6.928
  54.220         36.67	     6.633
  54.240         30.83	     6.083
  54.260         48.33	     7.616
  54.280         31.67	     6.164
  54.300         41.67	     7.071
  54.320         49.17	     7.681
  54.340         35.83	     6.557
  54.360         42.50	     7.141
  54.380         55.00	     8.124
  54.400         39.17	     6.856
  54.420         53.33	     8.000
  54.440         55.83	     8.185
  54.460         52.50	     7.937
  54.480         46.67	     7.483
  54.500         50.00	     7.746
  54.520         45.83	     7.416
  54.540         58.33	     8.367
  54.560         51.67	     7.874
  54.580         51.67	     7.874
  54.600         47.50	     7.550
  54.620         60.83	     8.544
  54.640         49.17	     7.681
  54.660         55.00	     8.124
  54.680         50.00	     7.746
  54.700         60.00	     8.485
  54.720         65.00	     8.832
  54.740         56.67	     8.246
  54.760         45.00	     7.348
  54.780         50.00	     7.746
  54.800         61.67	     8.602
  54.820         63.33	     8.718
  54.840         57.50	     8.307
  54.860         57.50	     8.307
  54.880         55.83	     8.185
  54.900         75.00	     9.487
  54.920         89.17	    10.344
  54.940         99.17	    10.909
  54.960         87.50	    10.247
  54.980         78.33	     9.695
  55.000         99.17	    10.909
  55.020         65.83	     8.888
  55.040         75.83	     9.539
  55.060         70.83	     9.220
  55.080         76.67	     9.592
  55.100         70.00	     9.165
  55.120         82.50	     9.950
  55.140         73.33	     9.381
  55.160         74.17	     9.434
  55.180         60.83	     8.544
  55.200         63.33	     8.718
  55.220         54.17	     8.062
  55.240         53.33	     8.000
  55.260         63.33	     8.718
  55.280         59.17	     8.426
  55.300         62.50	     8.660
  55.320         70.00	     9.165
  55.340         69.17	     9.110
  55.360         65.83	     8.888
  55.380         80.83	     9.849
  55.400         78.33	     9.695
  55.420         85.00	    10.100
  55.440         92.50	    10.536
  55.460         86.67	    10.198
  55.480         71.67	     9.274
  55.500        100.00	    10.954
  55.520         93.33	    10.583
  55.540        110.00	    11.489
  55.560        116.67	    11.832
  55.580         82.50	     9.950
  55.600         67.50	     9.000
  55.620         76.67	     9.592
  55.640         72.50	     9.327
  55.660         89.17	    10.344
  55.680         80.00	     9.798
  55.700         85.83	    10.149
  55.720         65.00	     8.832
  55.740         71.67	     9.274
  55.760         69.17	     9.110
  55.780         65.83	     8.888
  55.800         76.67	     9.592
  55.820         80.83	     9.849
  55.840         84.17	    10.050
  55.860         82.50	     9.950
  55.880         84.17	    10.050
  55.900        110.00	    11.489
  55.920        109.17	    11.446
  55.940        101.67	    11.045
  55.960         87.50	    10.247
  55.980         99.17	    10.909
  56.000         80.83	     9.849
  56.020         69.17	     9.110
  56.040         80.83	     9.849
  56.060         72.50	     9.327
  56.080         70.83	     9.220
  56.100         70.83	     9.220
  56.120         64.17	     8.775
  56.140         60.00	     8.485
  56.160         70.83	     9.220
  56.180         72.50	     9.327
  56.200         53.33	     8.000
  56.220         47.50	     7.550
  56.240         45.00	     7.348
  56.260         43.33	     7.211
  56.280         60.00	     8.485
  56.300         41.67	     7.071
  56.320         45.00	     7.348
  56.340         46.67	     7.483
  56.360         53.33	     8.000
  56.380         45.00	     7.348
  56.400         38.33	     6.782
  56.420         44.17	     7.280
  56.440         36.67	     6.633
  56.460         39.17	     6.856
  56.480         35.83	     6.557
  56.500         44.17	     7.280
  56.520         37.50	     6.708
  56.540         35.00	     6.481
  56.560         41.67	     7.071
  56.580         38.33	     6.782
  56.600         32.50	     6.245
  56.620         35.00	     6.481
  56.640         35.83	     6.557
  56.660         30.00	     6.000
  56.680         35.83	     6.557
  56.700         33.33	     6.325
  56.720         35.00	     6.481
  56.740         37.50	     6.708
  56.760         35.00	     6.481
  56.780         36.67	     6.633
  56.800         47.50	     7.550
  56.820         42.50	     7.141
  56.840         34.17	     6.403
  56.860         38.33	     6.782
  56.880         46.67	     7.483
  56.900         36.67	     6.633
  56.920         35.00	     6.481
  56.940         41.67	     7.071
  56.960         34.17	     6.403
  56.980         28.33	     5.831
  57.000         33.33	     6.325
  57.020         30.00	     6.000
  57.040         30.00	     6.000
  57.060         41.67	     7.071
  57.080         47.50	     7.550
  57.100         37.50	     6.708
  57.120         37.50	     6.708
  57.140         27.50	     5.745
  57.160         34.17	     6.403
  57.180         45.83	     7.416
  57.200         37.50	     6.708
  57.220         35.83	     6.557
  57.240         38.33	     6.782
  57.260         30.00	     6.000
  57.280         40.00	     6.928
  57.300         42.50	     7.141
  57.320         38.33	     6.782
  57.340         35.00	     6.481
  57.360         45.83	     7.416
  57.380         28.33	     5.831
  57.400         38.33	     6.782
  57.420         30.83	     6.083
  57.440         40.00	     6.928
  57.460         30.83	     6.083
  57.480         49.17	     7.681
  57.500         34.17	     6.403
  57.520         33.33	     6.325
  57.540         35.83	     6.557
  57.560         48.33	     7.616
  57.580         33.33	     6.325
  57.600         39.17	     6.856
  57.620         48.33	     7.616
  57.640         40.00	     6.928
  57.660         38.33	     6.782
  57.680         40.83	     7.000
  57.700         40.83	     7.000
  57.720         35.83	     6.557
  57.740         45.83	     7.416
  57.760         45.83	     7.416
  57.780         43.33	     7.211
  57.800         43.33	     7.211
  57.820         41.67	     7.071
  57.840         44.17	     7.280
  57.860         40.00	     6.928
  57.880         37.50	     6.708
  57.900         42.50	     7.141
  57.920         45.83	     7.416
  57.940         35.00	     6.481
  57.960         40.00	     6.928
  57.980         32.50	     6.245
  58.000         50.00	     7.746
  58.020         35.83	     6.557
  58.040         38.33	     6.782
  58.060         35.00	     6.481
  58.080         35.00	     6.481
  58.100         38.33	     6.782
  58.120         37.50	     6.708
  58.140         36.67	     6.633
  58.160         45.00	     7.348
  58.180         38.33	     6.782
  58.200         34.17	     6.403
  58.220         37.50	     6.708
  58.240         42.50	     7.141
  58.260         41.67	     7.071
  58.280         30.00	     6.000
  58.300         38.33	     6.782
  58.320         36.67	     6.633
  58.340         31.67	     6.164
  58.360         49.17	     7.681
  58.380         40.83	     7.000
  58.400         38.33	     6.782
  58.420         40.00	     6.928
  58.440         39.17	     6.856
  58.460         35.83	     6.557
  58.480         35.83	     6.557
  58.500         35.83	     6.557
  58.520         44.17	     7.280
  58.540         42.50	     7.141
  58.560         40.83	     7.000
  58.580         50.83	     7.810
  58.600         40.83	     7.000
  58.620         40.00	     6.928
  58.640         44.17	     7.280
  58.660         37.50	     6.708
  58.680         52.50	     7.937
  58.700         60.00	     8.485
  58.720         49.17	     7.681
  58.740         50.00	     7.746
  58.760         49.17	     7.681
  58.780         66.67	     8.944
  58.800         55.00	     8.124
  58.820         51.67	     7.874
  58.840         60.83	     8.544
  58.860         49.17	     7.681
  58.880         60.00	     8.485
  58.900         53.33	     8.000
  58.920         55.83	     8.185
  58.940         46.67	     7.483
  58.960         50.00	     7.746
  58.980         60.83	     8.544
  59.000         55.83	     8.185
  59.020         58.33	     8.367
  59.040         51.67	     7.874
  59.060         56.67	     8.246
  59.080         51.67	     7.874
  59.100         64.17	     8.775
  59.120         53.33	     8.000
  59.140         59.17	     8.426
  59.160         53.33	     8.000
  59.180         54.17	     8.062
  59.200         50.83	     7.810
  59.220         49.17	     7.681
  59.240         64.17	     8.775
  59.260         58.33	     8.367
  59.280         61.67	     8.602
  59.300         72.50	     9.327
  59.320         61.67	     8.602
  59.340         44.17	     7.280
  59.360         46.67	     7.483
  59.380         68.33	     9.055
  59.400         51.67	     7.874
  59.420         50.83	     7.810
  59.440         52.50	     7.937
  59.460         47.50	     7.550
  59.480         60.00	     8.485
  59.500         55.83	     8.185
  59.520         50.83	     7.810
  59.540         53.33	     8.000
  59.560         39.17	     6.856
  59.580         41.67	     7.071
  59.600         49.17	     7.681
  59.620         43.33	     7.211
  59.640         45.83	     7.416
  59.660         44.17	     7.280
  59.680         35.00	     6.481
  59.700         51.67	     7.874
  59.720         43.33	     7.211
  59.740         52.50	     7.937
  59.760         50.00	     7.746
  59.780         49.17	     7.681
  59.800         50.83	     7.810
  59.820         49.17	     7.681
  59.840         42.50	     7.141
  59.860         50.83	     7.810
  59.880         55.83	     8.185
  59.900         64.17	     8.775
  59.920         64.17	     8.775
  59.940         65.00	     8.832
  59.960         70.83	     9.220
  59.980         92.50	    10.536
  60.000        130.00	    12.490
  60.020        168.33	    14.213
  60.040        189.17	    15.067
  60.060        210.00	    15.875
  60.080        201.67	    15.556
  60.100        143.33	    13.115
  60.120        117.50	    11.874
  60.140        111.67	    11.576
  60.160        106.67	    11.314
  60.180         95.83	    10.724
  60.200        137.50	    12.845
  60.220        141.67	    13.038
  60.240        129.17	    12.450
  60.260        110.00	    11.489
  60.280         86.67	    10.198
  60.300         75.00	     9.487
  60.320         64.17	     8.775
  60.340         58.33	     8.367
  60.360         55.00	     8.124
  60.380         51.67	     7.874
  60.400         50.83	     7.810
  60.420         51.67	     7.874
  60.440         55.00	     8.124
  60.460         55.83	     8.185
  60.480         53.33	     8.000
  60.500         50.83	     7.810
  60.520         46.67	     7.483
  60.540         55.83	     8.185
  60.560         51.67	     7.874
  60.580         64.17	     8.775
  60.600         49.17	     7.681
  60.620         59.17	     8.426
  60.640         67.50	     9.000
  60.660         50.00	     7.746
  60.680         46.67	     7.483
  60.700         59.17	     8.426
  60.720         54.17	     8.062
  60.740         68.33	     9.055
  60.760         56.67	     8.246
  60.780         56.67	     8.246
  60.800         52.50	     7.937
  60.820         67.50	     9.000
  60.840         61.67	     8.602
  60.860         69.17	     9.110
  60.880         85.83	    10.149
  60.900         68.33	     9.055
  60.920         63.33	     8.718
  60.940         64.17	     8.775
  60.960         70.00	     9.165
  60.980         73.33	     9.381
  61.000         56.67	     8.246
  61.020         80.83	     9.849
  61.040         72.50	     9.327
  61.060         51.67	     7.874
  61.080         63.33	     8.718
  61.100         50.00	     7.746
  61.120         64.17	     8.775
  61.140         62.50	     8.660
  61.160         67.50	     9.000
  61.180         64.17	     8.775
  61.200         56.67	     8.246
  61.220         64.17	     8.775
  61.240         45.83	     7.416
  61.260         41.67	     7.071
  61.280         55.83	     8.185
  61.300         60.83	     8.544
  61.320         52.50	     7.937
  61.340         56.67	     8.246
  61.360         43.33	     7.211
  61.380         45.83	     7.416
  61.400         48.33	     7.616
  61.420         50.83	     7.810
  61.440         60.83	     8.544
  61.460         55.83	     8.185
  61.480         52.50	     7.937
  61.500         63.33	     8.718
  61.520         70.00	     9.165
  61.540         73.33	     9.381
  61.560         70.83	     9.220
  61.580         90.83	    10.440
  61.600         65.00	     8.832
  61.620         78.33	     9.695
  61.640         91.67	    10.488
  61.660         70.00	     9.165
  61.680         69.17	     9.110
  61.700         56.67	     8.246
  61.720         53.33	     8.000
  61.740         59.17	     8.426
  61.760         67.50	     9.000
  61.780         75.83	     9.539
  61.800         72.50	     9.327
  61.820         75.83	     9.539
  61.840         60.00	     8.485
  61.860         77.50	     9.644
  61.880         74.17	     9.434
  61.900         60.83	     8.544
  61.920         53.33	     8.000
  61.940         51.67	     7.874
  61.960         63.33	     8.718
  61.980         55.83	     8.185
  62.000         55.00	     8.124
  62.020         66.67	     8.944
  62.040         55.00	     8.124
  62.060         60.83	     8.544
  62.080         61.67	     8.602
  62.100         50.00	     7.746
  62.120         57.50	     8.307
  62.140         46.67	     7.483
  62.160         42.50	     7.141
  62.180         56.67	     8.246
  62.200         59.17	     8.426
  62.220         40.83	     7.000
  62.240         41.67	     7.071
  62.260         43.33	     7.211
  62.280         44.17	     7.280
  62.300         45.83	     7.416
  62.320         49.17	     7.681
  62.340         35.83	     6.557
  62.360         48.33	     7.616
  62.380         40.00	     6.928
  62.400         36.67	     6.633
  62.420         40.00	     6.928
  62.440         42.50	     7.141
  62.460         28.33	     5.831
  62.480         40.83	     7.000
  62.500         37.50	     6.708
  62.520         34.17	     6.403
  62.540         35.00	     6.481
  62.560         46.67	     7.483
  62.580         35.83	     6.557
  62.600         34.17	     6.403
  62.620         35.83	     6.557
  62.640         37.50	     6.708
  62.660         45.83	     7.416
  62.680         44.17	     7.280
  62.700         40.83	     7.000
  62.720         32.50	     6.245
  62.740         44.17	     7.280
  62.760         37.50	     6.708
  62.780         47.50	     7.550
  62.800         36.67	     6.633
  62.820         48.33	     7.616
  62.840         44.17	     7.280
  62.860         34.17	     6.403
  62.880         40.00	     6.928
  62.900         44.17	     7.280
  62.920         43.33	     7.211
  62.940         45.00	     7.348
  62.960         40.00	     6.928
  62.980         40.83	     7.000
  63.000         40.00	     6.928
  63.020         33.33	     6.325
  63.040         40.83	     7.000
  63.060         41.67	     7.071
  63.080         38.33	     6.782
  63.100         40.00	     6.928
  63.120         40.83	     7.000
  63.140         35.00	     6.481
  63.160         36.67	     6.633
  63.180         35.83	     6.557
  63.200         40.00	     6.928
  63.220         35.00	     6.481
  63.240         45.83	     7.416
  63.260         34.17	     6.403
  63.280         30.00	     6.000
  63.300         43.33	     7.211
  63.320         36.67	     6.633
  63.340         38.33	     6.782
  63.360         45.83	     7.416
  63.380         41.67	     7.071
  63.400         45.00	     7.348
  63.420         46.67	     7.483
  63.440         44.17	     7.280
  63.460         48.33	     7.616
  63.480         45.00	     7.348
  63.500         40.83	     7.000
  63.520         47.50	     7.550
  63.540         50.83	     7.810
  63.560         47.50	     7.550
  63.580         56.67	     8.246
  63.600         40.00	     6.928
  63.620         55.00	     8.124
  63.640         52.50	     7.937
  63.660         42.50	     7.141
  63.680         38.33	     6.782
  63.700         40.83	     7.000
  63.720         46.67	     7.483
  63.740         55.83	     8.185
  63.760         56.67	     8.246
  63.780         57.50	     8.307
  63.800         55.00	     8.124
  63.820         55.00	     8.124
  63.840         54.17	     8.062
  63.860         39.17	     6.856
  63.880         53.33	     8.000
  63.900         59.17	     8.426
  63.920         41.67	     7.071
  63.940         58.33	     8.367
  63.960         59.17	     8.426
  63.980         59.17	     8.426
  64.000         50.83	     7.810
  64.020         51.67	     7.874
  64.040         49.17	     7.681
  64.060         41.67	     7.071
  64.080         60.83	     8.544
  64.100         84.17	    10.050
  64.120         65.83	     8.888
  64.140         62.50	     8.660
  64.160         74.17	     9.434
  64.180         64.17	     8.775
  64.200         48.33	     7.616
  64.220         63.33	     8.718
  64.240         51.67	     7.874
  64.260         65.00	     8.832
  64.280         66.67	     8.944
  64.300         72.50	     9.327
  64.320         66.67	     8.944
  64.340         55.83	     8.185
  64.360         50.83	     7.810
  64.380         46.67	     7.483
  64.400         45.00	     7.348
  64.420         49.17	     7.681
  64.440         55.00	     8.124
  64.460         50.00	     7.746
  64.480         42.50	     7.141
  64.500         44.17	     7.280
  64.520         40.83	     7.000
  64.540         45.00	     7.348
  64.560         40.83	     7.000
  64.580         37.50	     6.708
  64.600         40.00	     6.928
  64.620         46.67	     7.483
  64.640         38.33	     6.782
  64.660         39.17	     6.856
  64.680         47.50	     7.550
  64.700         50.00	     7.746
  64.720         50.00	     7.746
  64.740         38.33	     6.782
  64.760         55.00	     8.124
  64.780         35.83	     6.557
  64.800         46.67	     7.483
  64.820         60.00	     8.485
  64.840         45.83	     7.416
  64.860         40.00	     6.928
  64.880         52.50	     7.937
  64.900         55.83	     8.185
  64.920         53.33	     8.000
  64.940         54.17	     8.062
  64.960         40.00	     6.928
  64.980         41.67	     7.071
  65.000         43.33	     7.211
