
Filename:
	C:\Program Files\Thermo Electron\WinXRD\Datafiles\F_HERMAN\GEO\GG_18_SFT.raw

File Created:
	October 14, 2020 - 02:05 AM

Specimen Id:
	GG_18_SFT

Specimen Name:
	

Specimen Description:
	

Comment:
Scan Type: 2Theta Scan
Start Angle: 3 deg.
Stop Angle: 65 deg.
Num Points: 3101
Step Size: 0.02 deg.
Scan Rate: 1.000000
Scan Mode: Continuous
Wavelength: 1.540562
\Kalpha1: 1.540562	\Kalpha2: 1.544390	\Kbeta: 1.392218

Optics:
		Detector:
			 Type: Fixed Slits
		Tube: 
			 Type: Fixed Slits


Datas:
 Pos [deg]       Rate [CPS]      ESD [-]

Range 1 ---> Iteration 1
   3.000        378.33	    21.307
   3.020        379.17	    21.331
   3.040        394.17	    21.749
   3.060        395.00	    21.772
   3.080        393.33	    21.726
   3.100        371.67	    21.119
   3.120        414.17	    22.293
   3.140        376.67	    21.260
   3.160        350.83	    20.518
   3.180        345.00	    20.347
   3.200        375.00	    21.213
   3.220        358.33	    20.736
   3.240        348.33	    20.445
   3.260        356.67	    20.688
   3.280        337.50	    20.125
   3.300        333.33	    20.000
   3.320        361.67	    20.833
   3.340        394.17	    21.749
   3.360        360.83	    20.809
   3.380        331.67	    19.950
   3.400        345.83	    20.372
   3.420        346.67	    20.396
   3.440        331.67	    19.950
   3.460        334.17	    20.025
   3.480        341.67	    20.248
   3.500        343.33	    20.298
   3.520        336.67	    20.100
   3.540        325.00	    19.748
   3.560        335.00	    20.050
   3.580        324.17	    19.723
   3.600        338.33	    20.149
   3.620        325.83	    19.774
   3.640        315.83	    19.468
   3.660        304.17	    19.105
   3.680        294.17	    18.788
   3.700        303.33	    19.079
   3.720        295.00	    18.815
   3.740        308.33	    19.235
   3.760        309.17	    19.261
   3.780        286.67	    18.547
   3.800        296.67	    18.868
   3.820        324.17	    19.723
   3.840        316.67	    19.494
   3.860        283.33	    18.439
   3.880        317.50	    19.519
   3.900        300.00	    18.974
   3.920        285.00	    18.493
   3.940        271.67	    18.055
   3.960        287.50	    18.574
   3.980        279.17	    18.303
   4.000        265.83	    17.861
   4.020        252.50	    17.407
   4.040        257.50	    17.578
   4.060        301.67	    19.026
   4.080        247.50	    17.234
   4.100        276.67	    18.221
   4.120        248.33	    17.263
   4.140        270.00	    18.000
   4.160        278.33	    18.276
   4.180        288.33	    18.601
   4.200        252.50	    17.407
   4.220        261.67	    17.720
   4.240        265.83	    17.861
   4.260        242.50	    17.059
   4.280        255.83	    17.521
   4.300        246.67	    17.205
   4.320        270.83	    18.028
   4.340        233.33	    16.733
   4.360        263.33	    17.776
   4.380        254.17	    17.464
   4.400        247.50	    17.234
   4.420        251.67	    17.378
   4.440        239.17	    16.941
   4.460        253.33	    17.436
   4.480        260.83	    17.692
   4.500        235.00	    16.793
   4.520        232.50	    16.703
   4.540        234.17	    16.763
   4.560        235.83	    16.823
   4.580        250.83	    17.349
   4.600        226.67	    16.492
   4.620        239.17	    16.941
   4.640        232.50	    16.703
   4.660        198.33	    15.427
   4.680        222.50	    16.340
   4.700        234.17	    16.763
   4.720        217.50	    16.155
   4.740        227.50	    16.523
   4.760        210.83	    15.906
   4.780        245.00	    17.146
   4.800        255.83	    17.521
   4.820        219.17	    16.217
   4.840        226.67	    16.492
   4.860        234.17	    16.763
   4.880        227.50	    16.523
   4.900        208.33	    15.811
   4.920        229.17	    16.583
   4.940        212.50	    15.969
   4.960        209.17	    15.843
   4.980        210.83	    15.906
   5.000        233.33	    16.733
   5.020        222.50	    16.340
   5.040        200.00	    15.492
   5.060        194.17	    15.264
   5.080        230.00	    16.613
   5.100        230.83	    16.643
   5.120        180.83	    14.731
   5.140        190.00	    15.100
   5.160        219.17	    16.217
   5.180        208.33	    15.811
   5.200        174.17	    14.457
   5.220        210.00	    15.875
   5.240        202.50	    15.588
   5.260        197.50	    15.395
   5.280        205.00	    15.684
   5.300        215.00	    16.062
   5.320        205.83	    15.716
   5.340        210.83	    15.906
   5.360        190.00	    15.100
   5.380        223.33	    16.371
   5.400        209.17	    15.843
   5.420        210.83	    15.906
   5.440        209.17	    15.843
   5.460        190.00	    15.100
   5.480        188.33	    15.033
   5.500        206.67	    15.748
   5.520        217.50	    16.155
   5.540        205.00	    15.684
   5.560        191.67	    15.166
   5.580        193.33	    15.232
   5.600        182.50	    14.799
   5.620        180.00	    14.697
   5.640        175.83	    14.526
   5.660        189.17	    15.067
   5.680        197.50	    15.395
   5.700        194.17	    15.264
   5.720        197.50	    15.395
   5.740        171.67	    14.353
   5.760        205.00	    15.684
   5.780        187.50	    15.000
   5.800        211.67	    15.937
   5.820        216.67	    16.125
   5.840        230.83	    16.643
   5.860        214.17	    16.031
   5.880        229.17	    16.583
   5.900        211.67	    15.937
   5.920        220.00	    16.248
   5.940        209.17	    15.843
   5.960        230.00	    16.613
   5.980        252.50	    17.407
   6.000        261.67	    17.720
   6.020        265.83	    17.861
   6.040        272.50	    18.083
   6.060        277.50	    18.248
   6.080        307.50	    19.209
   6.100        266.67	    17.889
   6.120        285.83	    18.520
   6.140        274.17	    18.138
   6.160        260.83	    17.692
   6.180        279.17	    18.303
   6.200        231.67	    16.673
   6.220        273.33	    18.111
   6.240        255.00	    17.493
   6.260        283.33	    18.439
   6.280        287.50	    18.574
   6.300        319.17	    19.570
   6.320        285.83	    18.520
   6.340        305.00	    19.131
   6.360        265.00	    17.833
   6.380        229.17	    16.583
   6.400        203.33	    15.620
   6.420        186.67	    14.967
   6.440        200.00	    15.492
   6.460        160.00	    13.856
   6.480        199.17	    15.460
   6.500        179.17	    14.663
   6.520        173.33	    14.422
   6.540        191.67	    15.166
   6.560        180.00	    14.697
   6.580        161.67	    13.928
   6.600        189.17	    15.067
   6.620        179.17	    14.663
   6.640        160.00	    13.856
   6.660        170.00	    14.283
   6.680        168.33	    14.213
   6.700        175.00	    14.491
   6.720        165.00	    14.071
   6.740        145.83	    13.229
   6.760        157.50	    13.748
   6.780        163.33	    14.000
   6.800        157.50	    13.748
   6.820        170.00	    14.283
   6.840        157.50	    13.748
   6.860        155.00	    13.638
   6.880        170.00	    14.283
   6.900        151.67	    13.491
   6.920        171.67	    14.353
   6.940        151.67	    13.491
   6.960        186.67	    14.967
   6.980        152.50	    13.528
   7.000        155.00	    13.638
   7.020        161.67	    13.928
   7.040        170.83	    14.318
   7.060        143.33	    13.115
   7.080        153.33	    13.565
   7.100        154.17	    13.601
   7.120        143.33	    13.115
   7.140        152.50	    13.528
   7.160        160.00	    13.856
   7.180        146.67	    13.266
   7.200        147.50	    13.304
   7.220        155.00	    13.638
   7.240        148.33	    13.342
   7.260        139.17	    12.923
   7.280        132.50	    12.610
   7.300        148.33	    13.342
   7.320        147.50	    13.304
   7.340        133.33	    12.649
   7.360        165.83	    14.107
   7.380        168.33	    14.213
   7.400        156.67	    13.711
   7.420        135.83	    12.767
   7.440        154.17	    13.601
   7.460        159.17	    13.820
   7.480        152.50	    13.528
   7.500        150.83	    13.454
   7.520        147.50	    13.304
   7.540        155.00	    13.638
   7.560        171.67	    14.353
   7.580        127.50	    12.369
   7.600        142.50	    13.077
   7.620        150.00	    13.416
   7.640        120.83	    12.042
   7.660        126.67	    12.329
   7.680        158.33	    13.784
   7.700        164.17	    14.036
   7.720        145.83	    13.229
   7.740        164.17	    14.036
   7.760        149.17	    13.379
   7.780        146.67	    13.266
   7.800        150.00	    13.416
   7.820        151.67	    13.491
   7.840        135.00	    12.728
   7.860        130.83	    12.530
   7.880        148.33	    13.342
   7.900        148.33	    13.342
   7.920        158.33	    13.784
   7.940        145.00	    13.191
   7.960        151.67	    13.491
   7.980        130.83	    12.530
   8.000        145.00	    13.191
   8.020        141.67	    13.038
   8.040        138.33	    12.884
   8.060        147.50	    13.304
   8.080        143.33	    13.115
   8.100        162.50	    13.964
   8.120        186.67	    14.967
   8.140        154.17	    13.601
   8.160        156.67	    13.711
   8.180        145.83	    13.229
   8.200        145.83	    13.229
   8.220        152.50	    13.528
   8.240        142.50	    13.077
   8.260        174.17	    14.457
   8.280        175.83	    14.526
   8.300        172.50	    14.387
   8.320        166.67	    14.142
   8.340        196.67	    15.362
   8.360        188.33	    15.033
   8.380        180.83	    14.731
   8.400        177.50	    14.595
   8.420        196.67	    15.362
   8.440        204.17	    15.652
   8.460        185.83	    14.933
   8.480        195.00	    15.297
   8.500        219.17	    16.217
   8.520        221.67	    16.310
   8.540        187.50	    15.000
   8.560        223.33	    16.371
   8.580        250.00	    17.321
   8.600        235.00	    16.793
   8.620        244.17	    17.117
   8.640        244.17	    17.117
   8.660        274.17	    18.138
   8.680        281.67	    18.385
   8.700        282.50	    18.412
   8.720        328.33	    19.849
   8.740        319.17	    19.570
   8.760        345.00	    20.347
   8.780        380.00	    21.354
   8.800        412.50	    22.249
   8.820        477.50	    23.937
   8.840        490.83	    24.269
   8.860        522.50	    25.040
   8.880        633.33	    27.568
   8.900        783.33	    30.659
   8.920        823.33	    31.432
   8.940        995.83	    34.569
   8.960        965.00	    34.029
   8.980        795.83	    30.903
   9.000        624.17	    27.368
   9.020        415.00	    22.316
   9.040        319.17	    19.570
   9.060        271.67	    18.055
   9.080        235.83	    16.823
   9.100        202.50	    15.588
   9.120        204.17	    15.652
   9.140        167.50	    14.177
   9.160        159.17	    13.820
   9.180        155.83	    13.675
   9.200        170.00	    14.283
   9.220        157.50	    13.748
   9.240        177.50	    14.595
   9.260        135.83	    12.767
   9.280        150.00	    13.416
   9.300        128.33	    12.410
   9.320        154.17	    13.601
   9.340        151.67	    13.491
   9.360        129.17	    12.450
   9.380        127.50	    12.369
   9.400        141.67	    13.038
   9.420        140.00	    12.961
   9.440        130.00	    12.490
   9.460        134.17	    12.689
   9.480        175.00	    14.491
   9.500        153.33	    13.565
   9.520        163.33	    14.000
   9.540        165.83	    14.107
   9.560        154.17	    13.601
   9.580        123.33	    12.166
   9.600        120.00	    12.000
   9.620        114.17	    11.705
   9.640        104.17	    11.180
   9.660        122.50	    12.124
   9.680        100.00	    10.954
   9.700         95.83	    10.724
   9.720         97.50	    10.817
   9.740        104.17	    11.180
   9.760         91.67	    10.488
   9.780        106.67	    11.314
   9.800        122.50	    12.124
   9.820        115.00	    11.747
   9.840         97.50	    10.817
   9.860        119.17	    11.958
   9.880        107.50	    11.358
   9.900        110.83	    11.533
   9.920        101.67	    11.045
   9.940        101.67	    11.045
   9.960        110.00	    11.489
   9.980        102.50	    11.091
  10.000         94.17	    10.630
  10.020        100.83	    11.000
  10.040         98.33	    10.863
  10.060         88.33	    10.296
  10.080         77.50	     9.644
  10.100         80.83	     9.849
  10.120         86.67	    10.198
  10.140         88.33	    10.296
  10.160        102.50	    11.091
  10.180         75.83	     9.539
  10.200         86.67	    10.198
  10.220         90.00	    10.392
  10.240         94.17	    10.630
  10.260         88.33	    10.296
  10.280         91.67	    10.488
  10.300         97.50	    10.817
  10.320         91.67	    10.488
  10.340         81.67	     9.899
  10.360         80.83	     9.849
  10.380         85.00	    10.100
  10.400         90.83	    10.440
  10.420         94.17	    10.630
  10.440        100.83	    11.000
  10.460         96.67	    10.770
  10.480        119.17	    11.958
  10.500         81.67	     9.899
  10.520         98.33	    10.863
  10.540        122.50	    12.124
  10.560        140.00	    12.961
  10.580        138.33	    12.884
  10.600        156.67	    13.711
  10.620        167.50	    14.177
  10.640        143.33	    13.115
  10.660        138.33	    12.884
  10.680        119.17	    11.958
  10.700        110.83	    11.533
  10.720         90.00	    10.392
  10.740         70.00	     9.165
  10.760         90.83	    10.440
  10.780         83.33	    10.000
  10.800         85.83	    10.149
  10.820         81.67	     9.899
  10.840         60.00	     8.485
  10.860         75.83	     9.539
  10.880         85.83	    10.149
  10.900         87.50	    10.247
  10.920         77.50	     9.644
  10.940         85.00	    10.100
  10.960         79.17	     9.747
  10.980         70.83	     9.220
  11.000         80.83	     9.849
  11.020         74.17	     9.434
  11.040         77.50	     9.644
  11.060         97.50	    10.817
  11.080         90.00	    10.392
  11.100         96.67	    10.770
  11.120         83.33	    10.000
  11.140         72.50	     9.327
  11.160        101.67	    11.045
  11.180         75.00	     9.487
  11.200         69.17	     9.110
  11.220         75.83	     9.539
  11.240         79.17	     9.747
  11.260         65.83	     8.888
  11.280         80.83	     9.849
  11.300         73.33	     9.381
  11.320         92.50	    10.536
  11.340         71.67	     9.274
  11.360         81.67	     9.899
  11.380         80.00	     9.798
  11.400         84.17	    10.050
  11.420         78.33	     9.695
  11.440         73.33	     9.381
  11.460         76.67	     9.592
  11.480         80.00	     9.798
  11.500         89.17	    10.344
  11.520         82.50	     9.950
  11.540         68.33	     9.055
  11.560         70.83	     9.220
  11.580         85.83	    10.149
  11.600         95.00	    10.677
  11.620         80.83	     9.849
  11.640         80.83	     9.849
  11.660         86.67	    10.198
  11.680         80.83	     9.849
  11.700         86.67	    10.198
  11.720         96.67	    10.770
  11.740         75.83	     9.539
  11.760         87.50	    10.247
  11.780         71.67	     9.274
  11.800        101.67	    11.045
  11.820         80.83	     9.849
  11.840         95.00	    10.677
  11.860         80.00	     9.798
  11.880         96.67	    10.770
  11.900         79.17	     9.747
  11.920         97.50	    10.817
  11.940         92.50	    10.536
  11.960         86.67	    10.198
  11.980        105.00	    11.225
  12.000        102.50	    11.091
  12.020        107.50	    11.358
  12.040        120.83	    12.042
  12.060        117.50	    11.874
  12.080        139.17	    12.923
  12.100        145.00	    13.191
  12.120        155.83	    13.675
  12.140        170.00	    14.283
  12.160        193.33	    15.232
  12.180        286.67	    18.547
  12.200        317.50	    19.519
  12.220        422.50	    22.517
  12.240        610.83	    27.074
  12.260        676.67	    28.496
  12.280        688.33	    28.740
  12.300        550.00	    25.690
  12.320        416.67	    22.361
  12.340        355.83	    20.664
  12.360        253.33	    17.436
  12.380        284.17	    18.466
  12.400        280.00	    18.330
  12.420        285.00	    18.493
  12.440        295.83	    18.841
  12.460        285.00	    18.493
  12.480        295.00	    18.815
  12.500        364.17	    20.905
  12.520        451.67	    23.281
  12.540        490.83	    24.269
  12.560        547.50	    25.632
  12.580        558.33	    25.884
  12.600        503.33	    24.576
  12.620        415.00	    22.316
  12.640        267.50	    17.916
  12.660        199.17	    15.460
  12.680        150.83	    13.454
  12.700        141.67	    13.038
  12.720        116.67	    11.832
  12.740        103.33	    11.136
  12.760        110.83	    11.533
  12.780         99.17	    10.909
  12.800         94.17	    10.630
  12.820         75.00	     9.487
  12.840         85.00	    10.100
  12.860         86.67	    10.198
  12.880         75.00	     9.487
  12.900         89.17	    10.344
  12.920         70.00	     9.165
  12.940         76.67	     9.592
  12.960         60.83	     8.544
  12.980         83.33	    10.000
  13.000         71.67	     9.274
  13.020         72.50	     9.327
  13.040         69.17	     9.110
  13.060         63.33	     8.718
  13.080         55.83	     8.185
  13.100         60.83	     8.544
  13.120         61.67	     8.602
  13.140         83.33	    10.000
  13.160         78.33	     9.695
  13.180         69.17	     9.110
  13.200         80.83	     9.849
  13.220         74.17	     9.434
  13.240         65.00	     8.832
  13.260         68.33	     9.055
  13.280         70.00	     9.165
  13.300         70.83	     9.220
  13.320         64.17	     8.775
  13.340         78.33	     9.695
  13.360         69.17	     9.110
  13.380         67.50	     9.000
  13.400         74.17	     9.434
  13.420         79.17	     9.747
  13.440         70.83	     9.220
  13.460         67.50	     9.000
  13.480         65.00	     8.832
  13.500         65.00	     8.832
  13.520         80.00	     9.798
  13.540         74.17	     9.434
  13.560         76.67	     9.592
  13.580         61.67	     8.602
  13.600         67.50	     9.000
  13.620         73.33	     9.381
  13.640         63.33	     8.718
  13.660         80.00	     9.798
  13.680         84.17	    10.050
  13.700         62.50	     8.660
  13.720         84.17	    10.050
  13.740         75.83	     9.539
  13.760         76.67	     9.592
  13.780         78.33	     9.695
  13.800         75.83	     9.539
  13.820         65.83	     8.888
  13.840         67.50	     9.000
  13.860         86.67	    10.198
  13.880         99.17	    10.909
  13.900        116.67	    11.832
  13.920        100.83	    11.000
  13.940        110.00	    11.489
  13.960         99.17	    10.909
  13.980         95.83	    10.724
  14.000         75.83	     9.539
  14.020         62.50	     8.660
  14.040         68.33	     9.055
  14.060         61.67	     8.602
  14.080         75.00	     9.487
  14.100         69.17	     9.110
  14.120         51.67	     7.874
  14.140         55.83	     8.185
  14.160         55.00	     8.124
  14.180         66.67	     8.944
  14.200         61.67	     8.602
  14.220         51.67	     7.874
  14.240         54.17	     8.062
  14.260         62.50	     8.660
  14.280         70.00	     9.165
  14.300         56.67	     8.246
  14.320         58.33	     8.367
  14.340         53.33	     8.000
  14.360         64.17	     8.775
  14.380         61.67	     8.602
  14.400         48.33	     7.616
  14.420         54.17	     8.062
  14.440         60.00	     8.485
  14.460         47.50	     7.550
  14.480         52.50	     7.937
  14.500         51.67	     7.874
  14.520         64.17	     8.775
  14.540         46.67	     7.483
  14.560         59.17	     8.426
  14.580         56.67	     8.246
  14.600         51.67	     7.874
  14.620         50.83	     7.810
  14.640         53.33	     8.000
  14.660         46.67	     7.483
  14.680         49.17	     7.681
  14.700         57.50	     8.307
  14.720         60.00	     8.485
  14.740         51.67	     7.874
  14.760         54.17	     8.062
  14.780         45.83	     7.416
  14.800         39.17	     6.856
  14.820         62.50	     8.660
  14.840         58.33	     8.367
  14.860         58.33	     8.367
  14.880         52.50	     7.937
  14.900         43.33	     7.211
  14.920         51.67	     7.874
  14.940         58.33	     8.367
  14.960         53.33	     8.000
  14.980         60.83	     8.544
  15.000         65.83	     8.888
  15.020         75.83	     9.539
  15.040         74.17	     9.434
  15.060         70.00	     9.165
  15.080         76.67	     9.592
  15.100         65.83	     8.888
  15.120         75.83	     9.539
  15.140         64.17	     8.775
  15.160         69.17	     9.110
  15.180         48.33	     7.616
  15.200         47.50	     7.550
  15.220         70.83	     9.220
  15.240         64.17	     8.775
  15.260         62.50	     8.660
  15.280         44.17	     7.280
  15.300         51.67	     7.874
  15.320         59.17	     8.426
  15.340         59.17	     8.426
  15.360         44.17	     7.280
  15.380         51.67	     7.874
  15.400         45.83	     7.416
  15.420         56.67	     8.246
  15.440         55.83	     8.185
  15.460         60.83	     8.544
  15.480         53.33	     8.000
  15.500         50.83	     7.810
  15.520         50.83	     7.810
  15.540         58.33	     8.367
  15.560         41.67	     7.071
  15.580         44.17	     7.280
  15.600         50.83	     7.810
  15.620         61.67	     8.602
  15.640         55.83	     8.185
  15.660         45.00	     7.348
  15.680         44.17	     7.280
  15.700         54.17	     8.062
  15.720         44.17	     7.280
  15.740         54.17	     8.062
  15.760         57.50	     8.307
  15.780         51.67	     7.874
  15.800         57.50	     8.307
  15.820         52.50	     7.937
  15.840         57.50	     8.307
  15.860         47.50	     7.550
  15.880         59.17	     8.426
  15.900         38.33	     6.782
  15.920         58.33	     8.367
  15.940         61.67	     8.602
  15.960         60.83	     8.544
  15.980         67.50	     9.000
  16.000         38.33	     6.782
  16.020         42.50	     7.141
  16.040         30.00	     6.000
  16.060         53.33	     8.000
  16.080         55.83	     8.185
  16.100         43.33	     7.211
  16.120         47.50	     7.550
  16.140         48.33	     7.616
  16.160         59.17	     8.426
  16.180         49.17	     7.681
  16.200         44.17	     7.280
  16.220         43.33	     7.211
  16.240         48.33	     7.616
  16.260         46.67	     7.483
  16.280         42.50	     7.141
  16.300         62.50	     8.660
  16.320         42.50	     7.141
  16.340         52.50	     7.937
  16.360         51.67	     7.874
  16.380         45.00	     7.348
  16.400         47.50	     7.550
  16.420         54.17	     8.062
  16.440         38.33	     6.782
  16.460         50.00	     7.746
  16.480         57.50	     8.307
  16.500         40.83	     7.000
  16.520         58.33	     8.367
  16.540         52.50	     7.937
  16.560         48.33	     7.616
  16.580         58.33	     8.367
  16.600         40.83	     7.000
  16.620         46.67	     7.483
  16.640         40.83	     7.000
  16.660         48.33	     7.616
  16.680         45.83	     7.416
  16.700         37.50	     6.708
  16.720         36.67	     6.633
  16.740         37.50	     6.708
  16.760         55.83	     8.185
  16.780         50.00	     7.746
  16.800         46.67	     7.483
  16.820         38.33	     6.782
  16.840         59.17	     8.426
  16.860         44.17	     7.280
  16.880         50.00	     7.746
  16.900         48.33	     7.616
  16.920         44.17	     7.280
  16.940         56.67	     8.246
  16.960         55.83	     8.185
  16.980         48.33	     7.616
  17.000         35.00	     6.481
  17.020         58.33	     8.367
  17.040         65.00	     8.832
  17.060         45.83	     7.416
  17.080         50.83	     7.810
  17.100         62.50	     8.660
  17.120         45.00	     7.348
  17.140         44.17	     7.280
  17.160         64.17	     8.775
  17.180         48.33	     7.616
  17.200         50.00	     7.746
  17.220         40.83	     7.000
  17.240         50.83	     7.810
  17.260         55.83	     8.185
  17.280         62.50	     8.660
  17.300         43.33	     7.211
  17.320         43.33	     7.211
  17.340         50.83	     7.810
  17.360         44.17	     7.280
  17.380         37.50	     6.708
  17.400         59.17	     8.426
  17.420         49.17	     7.681
  17.440         50.83	     7.810
  17.460         52.50	     7.937
  17.480         62.50	     8.660
  17.500         59.17	     8.426
  17.520         57.50	     8.307
  17.540         51.67	     7.874
  17.560         59.17	     8.426
  17.580         62.50	     8.660
  17.600         70.83	     9.220
  17.620         64.17	     8.775
  17.640         67.50	     9.000
  17.660         55.00	     8.124
  17.680         68.33	     9.055
  17.700         82.50	     9.950
  17.720         75.83	     9.539
  17.740        120.83	    12.042
  17.760        134.17	    12.689
  17.780        135.00	    12.728
  17.800        202.50	    15.588
  17.820        250.83	    17.349
  17.840        309.17	    19.261
  17.860        346.67	    20.396
  17.880        415.83	    22.338
  17.900        385.00	    21.494
  17.920        359.17	    20.761
  17.940        291.67	    18.708
  17.960        201.67	    15.556
  17.980        130.83	    12.530
  18.000         98.33	    10.863
  18.020         85.83	    10.149
  18.040         90.00	    10.392
  18.060         78.33	     9.695
  18.080         81.67	     9.899
  18.100         70.00	     9.165
  18.120         68.33	     9.055
  18.140         69.17	     9.110
  18.160         60.00	     8.485
  18.180         57.50	     8.307
  18.200         75.83	     9.539
  18.220         69.17	     9.110
  18.240         56.67	     8.246
  18.260         60.83	     8.544
  18.280         48.33	     7.616
  18.300         44.17	     7.280
  18.320         66.67	     8.944
  18.340         50.83	     7.810
  18.360         57.50	     8.307
  18.380         60.83	     8.544
  18.400         50.83	     7.810
  18.420         65.83	     8.888
  18.440         55.00	     8.124
  18.460         54.17	     8.062
  18.480         66.67	     8.944
  18.500         64.17	     8.775
  18.520         79.17	     9.747
  18.540         83.33	    10.000
  18.560         90.83	    10.440
  18.580         84.17	    10.050
  18.600        101.67	    11.045
  18.620        107.50	    11.358
  18.640        101.67	    11.045
  18.660        108.33	    11.402
  18.680        101.67	    11.045
  18.700         89.17	    10.344
  18.720         96.67	    10.770
  18.740         90.00	    10.392
  18.760        103.33	    11.136
  18.780        132.50	    12.610
  18.800        135.00	    12.728
  18.820        190.00	    15.100
  18.840        225.00	    16.432
  18.860        220.83	    16.279
  18.880        255.83	    17.521
  18.900        199.17	    15.460
  18.920        188.33	    15.033
  18.940        139.17	    12.923
  18.960         87.50	    10.247
  18.980         85.83	    10.149
  19.000         68.33	     9.055
  19.020         68.33	     9.055
  19.040         61.67	     8.602
  19.060         73.33	     9.381
  19.080         85.83	    10.149
  19.100         55.00	     8.124
  19.120         66.67	     8.944
  19.140         59.17	     8.426
  19.160         47.50	     7.550
  19.180         55.00	     8.124
  19.200         62.50	     8.660
  19.220         63.33	     8.718
  19.240         61.67	     8.602
  19.260         52.50	     7.937
  19.280         65.00	     8.832
  19.300         73.33	     9.381
  19.320         76.67	     9.592
  19.340         66.67	     8.944
  19.360         67.50	     9.000
  19.380         61.67	     8.602
  19.400         63.33	     8.718
  19.420         80.83	     9.849
  19.440         64.17	     8.775
  19.460         65.00	     8.832
  19.480         60.83	     8.544
  19.500         60.00	     8.485
  19.520         65.00	     8.832
  19.540         56.67	     8.246
  19.560         56.67	     8.246
  19.580         70.83	     9.220
  19.600         65.83	     8.888
  19.620         48.33	     7.616
  19.640         60.83	     8.544
  19.660         71.67	     9.274
  19.680         70.00	     9.165
  19.700         75.83	     9.539
  19.720         79.17	     9.747
  19.740         98.33	    10.863
  19.760         94.17	    10.630
  19.780         89.17	    10.344
  19.800         98.33	    10.863
  19.820        101.67	    11.045
  19.840         89.17	    10.344
  19.860        131.67	    12.570
  19.880        107.50	    11.358
  19.900        106.67	    11.314
  19.920        121.67	    12.083
  19.940        114.17	    11.705
  19.960        110.00	    11.489
  19.980         99.17	    10.909
  20.000         90.83	    10.440
  20.020         86.67	    10.198
  20.040         74.17	     9.434
  20.060         69.17	     9.110
  20.080         80.00	     9.798
  20.100         68.33	     9.055
  20.120         51.67	     7.874
  20.140         73.33	     9.381
  20.160         59.17	     8.426
  20.180         58.33	     8.367
  20.200         77.50	     9.644
  20.220         60.00	     8.485
  20.240         69.17	     9.110
  20.260         56.67	     8.246
  20.280         60.00	     8.485
  20.300         53.33	     8.000
  20.320         62.50	     8.660
  20.340         55.00	     8.124
  20.360         47.50	     7.550
  20.380         58.33	     8.367
  20.400         50.83	     7.810
  20.420         71.67	     9.274
  20.440         55.83	     8.185
  20.460         54.17	     8.062
  20.480         48.33	     7.616
  20.500         58.33	     8.367
  20.520         57.50	     8.307
  20.540         55.00	     8.124
  20.560         63.33	     8.718
  20.580         67.50	     9.000
  20.600         50.83	     7.810
  20.620         60.83	     8.544
  20.640         55.83	     8.185
  20.660         79.17	     9.747
  20.680         64.17	     8.775
  20.700         65.00	     8.832
  20.720         59.17	     8.426
  20.740         63.33	     8.718
  20.760         72.50	     9.327
  20.780         65.00	     8.832
  20.800         66.67	     8.944
  20.820         85.00	    10.100
  20.840        114.17	    11.705
  20.860        134.17	    12.689
  20.880        190.00	    15.100
  20.900        242.50	    17.059
  20.920        327.50	    19.824
  20.940        320.00	    19.596
  20.960        307.50	    19.209
  20.980        249.17	    17.292
  21.000        174.17	    14.457
  21.020        156.67	    13.711
  21.040        149.17	    13.379
  21.060        137.50	    12.845
  21.080        145.83	    13.229
  21.100        138.33	    12.884
  21.120        103.33	    11.136
  21.140        107.50	    11.358
  21.160         80.83	     9.849
  21.180         75.00	     9.487
  21.200         78.33	     9.695
  21.220         77.50	     9.644
  21.240         63.33	     8.718
  21.260         56.67	     8.246
  21.280         63.33	     8.718
  21.300         49.17	     7.681
  21.320         66.67	     8.944
  21.340         60.83	     8.544
  21.360         56.67	     8.246
  21.380         45.83	     7.416
  21.400         48.33	     7.616
  21.420         50.83	     7.810
  21.440         61.67	     8.602
  21.460         50.00	     7.746
  21.480         49.17	     7.681
  21.500         56.67	     8.246
  21.520         53.33	     8.000
  21.540         40.00	     6.928
  21.560         52.50	     7.937
  21.580         59.17	     8.426
  21.600         55.83	     8.185
  21.620         81.67	     9.899
  21.640         72.50	     9.327
  21.660         65.00	     8.832
  21.680         66.67	     8.944
  21.700         67.50	     9.000
  21.720         49.17	     7.681
  21.740         74.17	     9.434
  21.760         57.50	     8.307
  21.780         63.33	     8.718
  21.800         46.67	     7.483
  21.820         56.67	     8.246
  21.840         60.00	     8.485
  21.860         52.50	     7.937
  21.880         67.50	     9.000
  21.900         55.83	     8.185
  21.920         69.17	     9.110
  21.940         63.33	     8.718
  21.960         62.50	     8.660
  21.980         66.67	     8.944
  22.000         75.00	     9.487
  22.020        120.83	    12.042
  22.040        144.17	    13.153
  22.060        185.00	    14.900
  22.080        246.67	    17.205
  22.100        315.00	    19.442
  22.120        365.00	    20.928
  22.140        347.50	    20.421
  22.160        257.50	    17.578
  22.180        225.83	    16.462
  22.200        158.33	    13.784
  22.220        108.33	    11.402
  22.240         87.50	    10.247
  22.260         70.00	     9.165
  22.280         52.50	     7.937
  22.300         71.67	     9.274
  22.320         66.67	     8.944
  22.340         61.67	     8.602
  22.360         70.83	     9.220
  22.380         78.33	     9.695
  22.400         90.83	    10.440
  22.420         63.33	     8.718
  22.440         60.83	     8.544
  22.460         73.33	     9.381
  22.480         80.83	     9.849
  22.500         86.67	    10.198
  22.520         82.50	     9.950
  22.540         71.67	     9.274
  22.560         80.83	     9.849
  22.580         84.17	    10.050
  22.600         89.17	    10.344
  22.620         90.83	    10.440
  22.640         74.17	     9.434
  22.660         63.33	     8.718
  22.680         69.17	     9.110
  22.700         59.17	     8.426
  22.720         50.00	     7.746
  22.740         61.67	     8.602
  22.760         56.67	     8.246
  22.780         68.33	     9.055
  22.800         59.17	     8.426
  22.820         65.00	     8.832
  22.840         60.00	     8.485
  22.860         68.33	     9.055
  22.880         89.17	    10.344
  22.900         80.00	     9.798
  22.920         99.17	    10.909
  22.940        110.83	    11.533
  22.960        110.00	    11.489
  22.980        143.33	    13.115
  23.000        108.33	    11.402
  23.020        114.17	    11.705
  23.040        101.67	    11.045
  23.060        116.67	    11.832
  23.080        120.00	    12.000
  23.100        129.17	    12.450
  23.120        134.17	    12.689
  23.140        148.33	    13.342
  23.160        109.17	    11.446
  23.180         95.83	    10.724
  23.200         85.00	    10.100
  23.220         88.33	    10.296
  23.240         67.50	     9.000
  23.260         62.50	     8.660
  23.280         70.00	     9.165
  23.300         55.83	     8.185
  23.320         63.33	     8.718
  23.340         70.83	     9.220
  23.360         75.83	     9.539
  23.380         66.67	     8.944
  23.400         63.33	     8.718
  23.420         74.17	     9.434
  23.440         81.67	     9.899
  23.460         76.67	     9.592
  23.480         85.83	    10.149
  23.500         90.83	    10.440
  23.520         99.17	    10.909
  23.540        146.67	    13.266
  23.560        166.67	    14.142
  23.580        260.83	    17.692
  23.600        280.83	    18.358
  23.620        274.17	    18.138
  23.640        277.50	    18.248
  23.660        239.17	    16.941
  23.680        207.50	    15.780
  23.700        190.00	    15.100
  23.720        155.83	    13.675
  23.740        113.33	    11.662
  23.760        123.33	    12.166
  23.780         90.00	    10.392
  23.800        115.83	    11.790
  23.820        122.50	    12.124
  23.840        117.50	    11.874
  23.860        119.17	    11.958
  23.880        110.00	    11.489
  23.900        120.00	    12.000
  23.920        111.67	    11.576
  23.940        102.50	    11.091
  23.960        116.67	    11.832
  23.980        108.33	    11.402
  24.000         92.50	    10.536
  24.020         93.33	    10.583
  24.040        103.33	    11.136
  24.060        115.00	    11.747
  24.080         80.83	     9.849
  24.100        118.33	    11.916
  24.120         90.83	    10.440
  24.140         92.50	    10.536
  24.160         95.83	    10.724
  24.180        120.83	    12.042
  24.200        141.67	    13.038
  24.220        175.00	    14.491
  24.240        156.67	    13.711
  24.260        182.50	    14.799
  24.280        173.33	    14.422
  24.300        173.33	    14.422
  24.320        168.33	    14.213
  24.340        190.83	    15.133
  24.360        185.00	    14.900
  24.380        217.50	    16.155
  24.400        202.50	    15.588
  24.420        170.00	    14.283
  24.440        142.50	    13.077
  24.460        135.00	    12.728
  24.480        118.33	    11.916
  24.500        117.50	    11.874
  24.520        124.17	    12.207
  24.540        135.83	    12.767
  24.560        171.67	    14.353
  24.580        210.00	    15.875
  24.600        260.83	    17.692
  24.620        377.50	    21.284
  24.640        395.83	    21.794
  24.660        386.67	    21.541
  24.680        452.50	    23.302
  24.700        495.83	    24.393
  24.720        440.83	    23.000
  24.740        378.33	    21.307
  24.760        347.50	    20.421
  24.780        309.17	    19.261
  24.800        261.67	    17.720
  24.820        247.50	    17.234
  24.840        232.50	    16.703
  24.860        200.83	    15.524
  24.880        198.33	    15.427
  24.900        165.83	    14.107
  24.920        184.17	    14.866
  24.940        174.17	    14.457
  24.960        166.67	    14.142
  24.980        143.33	    13.115
  25.000        143.33	    13.115
  25.020        134.17	    12.689
  25.040        150.83	    13.454
  25.060        149.17	    13.379
  25.080        180.00	    14.697
  25.100        170.83	    14.318
  25.120        191.67	    15.166
  25.140        238.33	    16.912
  25.160        285.83	    18.520
  25.180        366.67	    20.976
  25.200        385.00	    21.494
  25.220        413.33	    22.271
  25.240        460.00	    23.495
  25.260        414.17	    22.293
  25.280        369.17	    21.048
  25.300        309.17	    19.261
  25.320        232.50	    16.703
  25.340        180.83	    14.731
  25.360        169.17	    14.248
  25.380        150.00	    13.416
  25.400        140.00	    12.961
  25.420        135.00	    12.728
  25.440        174.17	    14.457
  25.460        191.67	    15.166
  25.480        186.67	    14.967
  25.500        192.50	    15.199
  25.520        233.33	    16.733
  25.540        207.50	    15.780
  25.560        236.67	    16.852
  25.580        228.33	    16.553
  25.600        229.17	    16.583
  25.620        230.83	    16.643
  25.640        227.50	    16.523
  25.660        228.33	    16.553
  25.680        209.17	    15.843
  25.700        196.67	    15.362
  25.720        215.00	    16.062
  25.740        164.17	    14.036
  25.760        161.67	    13.928
  25.780        145.83	    13.229
  25.800        126.67	    12.329
  25.820        124.17	    12.207
  25.840        110.83	    11.533
  25.860        100.00	    10.954
  25.880        105.00	    11.225
  25.900        101.67	    11.045
  25.920         95.00	    10.677
  25.940         99.17	    10.909
  25.960         97.50	    10.817
  25.980        105.83	    11.269
  26.000        105.00	    11.225
  26.020        107.50	    11.358
  26.040        102.50	    11.091
  26.060         82.50	     9.950
  26.080        100.00	    10.954
  26.100         82.50	     9.950
  26.120        105.83	    11.269
  26.140        100.83	    11.000
  26.160         98.33	    10.863
  26.180        120.00	    12.000
  26.200        140.00	    12.961
  26.220        125.00	    12.247
  26.240        139.17	    12.923
  26.260        119.17	    11.958
  26.280        153.33	    13.565
  26.300        173.33	    14.422
  26.320        160.83	    13.892
  26.340        172.50	    14.387
  26.360        190.83	    15.133
  26.380        216.67	    16.125
  26.400        201.67	    15.556
  26.420        228.33	    16.553
  26.440        260.00	    17.664
  26.460        310.00	    19.287
  26.480        335.83	    20.075
  26.500        364.17	    20.905
  26.520        357.50	    20.712
  26.540        362.50	    20.857
  26.560        385.00	    21.494
  26.580        363.33	    20.881
  26.600        387.50	    21.564
  26.620        468.33	    23.707
  26.640        602.50	    26.889
  26.660        963.33	    34.000
  26.680       1350.83	    40.262
  26.700       1901.67	    47.770
  26.720       1954.17	    48.425
  26.740       1610.00	    43.955
  26.760       1377.50	    40.657
  26.780       1315.00	    39.724
  26.800        990.00	    34.467
  26.820        786.67	    30.725
  26.840        701.67	    29.017
  26.860        777.50	    30.545
  26.880        886.67	    32.619
  26.900        968.33	    34.088
  26.920       1055.00	    35.581
  26.940       1028.33	    35.128
  26.960        946.67	    33.705
  26.980        895.00	    32.772
  27.000        781.67	    30.627
  27.020        586.67	    26.533
  27.040        457.50	    23.431
  27.060        390.00	    21.633
  27.080        302.50	    19.053
  27.100        289.17	    18.628
  27.120        231.67	    16.673
  27.140        236.67	    16.852
  27.160        233.33	    16.733
  27.180        170.00	    14.283
  27.200        175.83	    14.526
  27.220        156.67	    13.711
  27.240        156.67	    13.711
  27.260        120.00	    12.000
  27.280        145.00	    13.191
  27.300        121.67	    12.083
  27.320        124.17	    12.207
  27.340        117.50	    11.874
  27.360        133.33	    12.649
  27.380        119.17	    11.958
  27.400        150.00	    13.416
  27.420        129.17	    12.450
  27.440        121.67	    12.083
  27.460        125.83	    12.288
  27.480        161.67	    13.928
  27.500        170.00	    14.283
  27.520        185.83	    14.933
  27.540        228.33	    16.553
  27.560        301.67	    19.026
  27.580        298.33	    18.921
  27.600        313.33	    19.391
  27.620        261.67	    17.720
  27.640        208.33	    15.811
  27.660        208.33	    15.811
  27.680        182.50	    14.799
  27.700        153.33	    13.565
  27.720        175.83	    14.526
  27.740        181.67	    14.765
  27.760        269.17	    17.972
  27.780        367.50	    21.000
  27.800        364.17	    20.905
  27.820        373.33	    21.166
  27.840        371.67	    21.119
  27.860        398.33	    21.863
  27.880        430.83	    22.738
  27.900        403.33	    22.000
  27.920        447.50	    23.173
  27.940        568.33	    26.115
  27.960        650.00	    27.928
  27.980        691.67	    28.810
  28.000        700.83	    29.000
  28.020        659.17	    28.125
  28.040        626.67	    27.423
  28.060        556.67	    25.846
  28.080        447.50	    23.173
  28.100        317.50	    19.519
  28.120        280.83	    18.358
  28.140        263.33	    17.776
  28.160        208.33	    15.811
  28.180        221.67	    16.310
  28.200        232.50	    16.703
  28.220        199.17	    15.460
  28.240        230.00	    16.613
  28.260        175.00	    14.491
  28.280        198.33	    15.427
  28.300        167.50	    14.177
  28.320        165.00	    14.071
  28.340        166.67	    14.142
  28.360        194.17	    15.264
  28.380        206.67	    15.748
  28.400        149.17	    13.379
  28.420        180.00	    14.697
  28.440        155.00	    13.638
  28.460        150.00	    13.416
  28.480        100.83	    11.000
  28.500        101.67	    11.045
  28.520         91.67	    10.488
  28.540        103.33	    11.136
  28.560        103.33	    11.136
  28.580        123.33	    12.166
  28.600        125.00	    12.247
  28.620        155.83	    13.675
  28.640        173.33	    14.422
  28.660        194.17	    15.264
  28.680        170.83	    14.318
  28.700        186.67	    14.967
  28.720        191.67	    15.166
  28.740        166.67	    14.142
  28.760        168.33	    14.213
  28.780        168.33	    14.213
  28.800        146.67	    13.266
  28.820        120.83	    12.042
  28.840        138.33	    12.884
  28.860        131.67	    12.570
  28.880        138.33	    12.884
  28.900        109.17	    11.446
  28.920         81.67	     9.899
  28.940         80.00	     9.798
  28.960         71.67	     9.274
  28.980         67.50	     9.000
  29.000         64.17	     8.775
  29.020         56.67	     8.246
  29.040         76.67	     9.592
  29.060         68.33	     9.055
  29.080         61.67	     8.602
  29.100         55.83	     8.185
  29.120         55.83	     8.185
  29.140         71.67	     9.274
  29.160         73.33	     9.381
  29.180         70.83	     9.220
  29.200         61.67	     8.602
  29.220         52.50	     7.937
  29.240         59.17	     8.426
  29.260         61.67	     8.602
  29.280         59.17	     8.426
  29.300         56.67	     8.246
  29.320         58.33	     8.367
  29.340         63.33	     8.718
  29.360         64.17	     8.775
  29.380         52.50	     7.937
  29.400         75.83	     9.539
  29.420         57.50	     8.307
  29.440         57.50	     8.307
  29.460         60.00	     8.485
  29.480         64.17	     8.775
  29.500         52.50	     7.937
  29.520         60.00	     8.485
  29.540         64.17	     8.775
  29.560         55.83	     8.185
  29.580         58.33	     8.367
  29.600         75.00	     9.487
  29.620         62.50	     8.660
  29.640         53.33	     8.000
  29.660         60.83	     8.544
  29.680         85.00	    10.100
  29.700         70.00	     9.165
  29.720         79.17	     9.747
  29.740         81.67	     9.899
  29.760        110.83	    11.533
  29.780         85.00	    10.100
  29.800        104.17	    11.180
  29.820        111.67	    11.576
  29.840        126.67	    12.329
  29.860        160.83	    13.892
  29.880        190.83	    15.133
  29.900        199.17	    15.460
  29.920        236.67	    16.852
  29.940        241.67	    17.029
  29.960        233.33	    16.733
  29.980        226.67	    16.492
  30.000        195.83	    15.330
  30.020        213.33	    16.000
  30.040        168.33	    14.213
  30.060        181.67	    14.765
  30.080        127.50	    12.369
  30.100        144.17	    13.153
  30.120        130.00	    12.490
  30.140        137.50	    12.845
  30.160        149.17	    13.379
  30.180        138.33	    12.884
  30.200        129.17	    12.450
  30.220        123.33	    12.166
  30.240        121.67	    12.083
  30.260        155.00	    13.638
  30.280        154.17	    13.601
  30.300        129.17	    12.450
  30.320        127.50	    12.369
  30.340        121.67	    12.083
  30.360        113.33	    11.662
  30.380        124.17	    12.207
  30.400        110.83	    11.533
  30.420        112.50	    11.619
  30.440        120.83	    12.042
  30.460        120.83	    12.042
  30.480        120.83	    12.042
  30.500        148.33	    13.342
  30.520        162.50	    13.964
  30.540        150.00	    13.416
  30.560        144.17	    13.153
  30.580        147.50	    13.304
  30.600        131.67	    12.570
  30.620        120.83	    12.042
  30.640        108.33	    11.402
  30.660         89.17	    10.344
  30.680        105.83	    11.269
  30.700         84.17	    10.050
  30.720         75.83	     9.539
  30.740         63.33	     8.718
  30.760         65.00	     8.832
  30.780         71.67	     9.274
  30.800         76.67	     9.592
  30.820         95.00	    10.677
  30.840         81.67	     9.899
  30.860         90.00	    10.392
  30.880        125.83	    12.288
  30.900        137.50	    12.845
  30.920        111.67	    11.576
  30.940        129.17	    12.450
  30.960        124.17	    12.207
  30.980        108.33	    11.402
  31.000        117.50	    11.874
  31.020         90.83	    10.440
  31.040        102.50	    11.091
  31.060         98.33	    10.863
  31.080         81.67	     9.899
  31.100         95.83	    10.724
  31.120        100.00	    10.954
  31.140        105.83	    11.269
  31.160        105.00	    11.225
  31.180        108.33	    11.402
  31.200        131.67	    12.570
  31.220        113.33	    11.662
  31.240        142.50	    13.077
  31.260        165.00	    14.071
  31.280        195.83	    15.330
  31.300        191.67	    15.166
  31.320        200.00	    15.492
  31.340        192.50	    15.199
  31.360        183.33	    14.832
  31.380        187.50	    15.000
  31.400        162.50	    13.964
  31.420        127.50	    12.369
  31.440        119.17	    11.958
  31.460        117.50	    11.874
  31.480        124.17	    12.207
  31.500        100.00	    10.954
  31.520         91.67	    10.488
  31.540         90.83	    10.440
  31.560         85.00	    10.100
  31.580         94.17	    10.630
  31.600        120.83	    12.042
  31.620        112.50	    11.619
  31.640        117.50	    11.874
  31.660        129.17	    12.450
  31.680        107.50	    11.358
  31.700        100.00	    10.954
  31.720         92.50	    10.536
  31.740         90.00	    10.392
  31.760         81.67	     9.899
  31.780         66.67	     8.944
  31.800         72.50	     9.327
  31.820         65.83	     8.888
  31.840         69.17	     9.110
  31.860         77.50	     9.644
  31.880         65.83	     8.888
  31.900         77.50	     9.644
  31.920         64.17	     8.775
  31.940         85.83	    10.149
  31.960         85.00	    10.100
  31.980         90.83	    10.440
  32.000         78.33	     9.695
  32.020         94.17	    10.630
  32.040         95.83	    10.724
  32.060         95.83	    10.724
  32.080        131.67	    12.570
  32.100        115.83	    11.790
  32.120        128.33	    12.410
  32.140        127.50	    12.369
  32.160        107.50	    11.358
  32.180        143.33	    13.115
  32.200        125.00	    12.247
  32.220        115.00	    11.747
  32.240        132.50	    12.610
  32.260         98.33	    10.863
  32.280         88.33	    10.296
  32.300        100.00	    10.954
  32.320         97.50	    10.817
  32.340         84.17	    10.050
  32.360         80.83	     9.849
  32.380         67.50	     9.000
  32.400         66.67	     8.944
  32.420         73.33	     9.381
  32.440         74.17	     9.434
  32.460         67.50	     9.000
  32.480         61.67	     8.602
  32.500         55.00	     8.124
  32.520         55.00	     8.124
  32.540         52.50	     7.937
  32.560         47.50	     7.550
  32.580         49.17	     7.681
  32.600         51.67	     7.874
  32.620         50.00	     7.746
  32.640         42.50	     7.141
  32.660         45.83	     7.416
  32.680         46.67	     7.483
  32.700         41.67	     7.071
  32.720         40.00	     6.928
  32.740         56.67	     8.246
  32.760         54.17	     8.062
  32.780         59.17	     8.426
  32.800         47.50	     7.550
  32.820         49.17	     7.681
  32.840         50.00	     7.746
  32.860         43.33	     7.211
  32.880         55.00	     8.124
  32.900         45.83	     7.416
  32.920         35.83	     6.557
  32.940         46.67	     7.483
  32.960         40.00	     6.928
  32.980         48.33	     7.616
  33.000         53.33	     8.000
  33.020         54.17	     8.062
  33.040         65.83	     8.888
  33.060         54.17	     8.062
  33.080         62.50	     8.660
  33.100         72.50	     9.327
  33.120         84.17	    10.050
  33.140        108.33	    11.402
  33.160         83.33	    10.000
  33.180         71.67	     9.274
  33.200         61.67	     8.602
  33.220         66.67	     8.944
  33.240         73.33	     9.381
  33.260         61.67	     8.602
  33.280         60.00	     8.485
  33.300         40.83	     7.000
  33.320         55.83	     8.185
  33.340         52.50	     7.937
  33.360         48.33	     7.616
  33.380         35.83	     6.557
  33.400         50.00	     7.746
  33.420         52.50	     7.937
  33.440         49.17	     7.681
  33.460         61.67	     8.602
  33.480         60.83	     8.544
  33.500         53.33	     8.000
  33.520         48.33	     7.616
  33.540         65.83	     8.888
  33.560         55.83	     8.185
  33.580         46.67	     7.483
  33.600         62.50	     8.660
  33.620         60.00	     8.485
  33.640         56.67	     8.246
  33.660         44.17	     7.280
  33.680         47.50	     7.550
  33.700         64.17	     8.775
  33.720         39.17	     6.856
  33.740         44.17	     7.280
  33.760         52.50	     7.937
  33.780         54.17	     8.062
  33.800         54.17	     8.062
  33.820         36.67	     6.633
  33.840         49.17	     7.681
  33.860         55.00	     8.124
  33.880         52.50	     7.937
  33.900         55.00	     8.124
  33.920         65.83	     8.888
  33.940         68.33	     9.055
  33.960         65.83	     8.888
  33.980         62.50	     8.660
  34.000         85.00	    10.100
  34.020         77.50	     9.644
  34.040         72.50	     9.327
  34.060         86.67	    10.198
  34.080         62.50	     8.660
  34.100         81.67	     9.899
  34.120         70.83	     9.220
  34.140         76.67	     9.592
  34.160         90.83	    10.440
  34.180         81.67	     9.899
  34.200         72.50	     9.327
  34.220         70.00	     9.165
  34.240         71.67	     9.274
  34.260         55.00	     8.124
  34.280         62.50	     8.660
  34.300         59.17	     8.426
  34.320         70.00	     9.165
  34.340         60.83	     8.544
  34.360         65.00	     8.832
  34.380         82.50	     9.950
  34.400         62.50	     8.660
  34.420         75.83	     9.539
  34.440         88.33	    10.296
  34.460         80.83	     9.849
  34.480         98.33	    10.863
  34.500         97.50	    10.817
  34.520        105.00	    11.225
  34.540        102.50	    11.091
  34.560        115.00	    11.747
  34.580        123.33	    12.166
  34.600        118.33	    11.916
  34.620        140.00	    12.961
  34.640        110.83	    11.533
  34.660        135.00	    12.728
  34.680        130.83	    12.530
  34.700        120.00	    12.000
  34.720        105.83	    11.269
  34.740        107.50	    11.358
  34.760         96.67	    10.770
  34.780        104.17	    11.180
  34.800         93.33	    10.583
  34.820         92.50	    10.536
  34.840        105.00	    11.225
  34.860        110.00	    11.489
  34.880        118.33	    11.916
  34.900        123.33	    12.166
  34.920        152.50	    13.528
  34.940        148.33	    13.342
  34.960        155.00	    13.638
  34.980        156.67	    13.711
  35.000        160.00	    13.856
  35.020        175.00	    14.491
  35.040        173.33	    14.422
  35.060        210.83	    15.906
  35.080        190.00	    15.100
  35.100        181.67	    14.765
  35.120        174.17	    14.457
  35.140        143.33	    13.115
  35.160        151.67	    13.491
  35.180        141.67	    13.038
  35.200        123.33	    12.166
  35.220        117.50	    11.874
  35.240        109.17	    11.446
  35.260        117.50	    11.874
  35.280        105.83	    11.269
  35.300         90.00	    10.392
  35.320         97.50	    10.817
  35.340         70.83	     9.220
  35.360         76.67	     9.592
  35.380        107.50	    11.358
  35.400         95.83	    10.724
  35.420         85.00	    10.100
  35.440         99.17	    10.909
  35.460        100.00	    10.954
  35.480        102.50	    11.091
  35.500        124.17	    12.207
  35.520        116.67	    11.832
  35.540        125.00	    12.247
  35.560        130.00	    12.490
  35.580        145.83	    13.229
  35.600        123.33	    12.166
  35.620        144.17	    13.153
  35.640        162.50	    13.964
  35.660        133.33	    12.649
  35.680        130.00	    12.490
  35.700        122.50	    12.124
  35.720        130.83	    12.530
  35.740        103.33	    11.136
  35.760        108.33	    11.402
  35.780         93.33	    10.583
  35.800         85.83	    10.149
  35.820        100.83	    11.000
  35.840         79.17	     9.747
  35.860         77.50	     9.644
  35.880         88.33	    10.296
  35.900         90.83	    10.440
  35.920         90.83	    10.440
  35.940         88.33	    10.296
  35.960         69.17	     9.110
  35.980         95.00	    10.677
  36.000         89.17	    10.344
  36.020         85.83	    10.149
  36.040         99.17	    10.909
  36.060        113.33	    11.662
  36.080        115.00	    11.747
  36.100        111.67	    11.576
  36.120        119.17	    11.958
  36.140        125.00	    12.247
  36.160        111.67	    11.576
  36.180        110.00	    11.489
  36.200        126.67	    12.329
  36.220        100.83	    11.000
  36.240         98.33	    10.863
  36.260        100.83	    11.000
  36.280         82.50	     9.950
  36.300         86.67	    10.198
  36.320         57.50	     8.307
  36.340         66.67	     8.944
  36.360         66.67	     8.944
  36.380         59.17	     8.426
  36.400         66.67	     8.944
  36.420         61.67	     8.602
  36.440         72.50	     9.327
  36.460         82.50	     9.950
  36.480         74.17	     9.434
  36.500         77.50	     9.644
  36.520         94.17	    10.630
  36.540        103.33	    11.136
  36.560        105.83	    11.269
  36.580        144.17	    13.153
  36.600        181.67	    14.765
  36.620        197.50	    15.395
  36.640        175.00	    14.491
  36.660        145.83	    13.229
  36.680        135.83	    12.767
  36.700        148.33	    13.342
  36.720        141.67	    13.038
  36.740        110.00	    11.489
  36.760        101.67	    11.045
  36.780        106.67	    11.314
  36.800        110.00	    11.489
  36.820        100.83	    11.000
  36.840         94.17	    10.630
  36.860         92.50	    10.536
  36.880         96.67	    10.770
  36.900         59.17	     8.426
  36.920         82.50	     9.950
  36.940         62.50	     8.660
  36.960         73.33	     9.381
  36.980         66.67	     8.944
  37.000         57.50	     8.307
  37.020         69.17	     9.110
  37.040         70.00	     9.165
  37.060         80.83	     9.849
  37.080         57.50	     8.307
  37.100         60.00	     8.485
  37.120         50.00	     7.746
  37.140         65.83	     8.888
  37.160         73.33	     9.381
  37.180         63.33	     8.718
  37.200         64.17	     8.775
  37.220         64.17	     8.775
  37.240         56.67	     8.246
  37.260         67.50	     9.000
  37.280         93.33	    10.583
  37.300         67.50	     9.000
  37.320         74.17	     9.434
  37.340         75.00	     9.487
  37.360         80.00	     9.798
  37.380         80.00	     9.798
  37.400         78.33	     9.695
  37.420         80.00	     9.798
  37.440         95.00	    10.677
  37.460         80.83	     9.849
  37.480         99.17	    10.909
  37.500         91.67	    10.488
  37.520         84.17	    10.050
  37.540         92.50	    10.536
  37.560         94.17	    10.630
  37.580         95.83	    10.724
  37.600         87.50	    10.247
  37.620         75.00	     9.487
  37.640         85.00	    10.100
  37.660         86.67	    10.198
  37.680         95.00	    10.677
  37.700        100.83	    11.000
  37.720        106.67	    11.314
  37.740        117.50	    11.874
  37.760        121.67	    12.083
  37.780        105.00	    11.225
  37.800        102.50	    11.091
  37.820         86.67	    10.198
  37.840        106.67	    11.314
  37.860         83.33	    10.000
  37.880         60.00	     8.485
  37.900         76.67	     9.592
  37.920         69.17	     9.110
  37.940         58.33	     8.367
  37.960         73.33	     9.381
  37.980         60.00	     8.485
  38.000         55.83	     8.185
  38.020         42.50	     7.141
  38.040         43.33	     7.211
  38.060         39.17	     6.856
  38.080         35.83	     6.557
  38.100         38.33	     6.782
  38.120         35.83	     6.557
  38.140         40.00	     6.928
  38.160         35.00	     6.481
  38.180         34.17	     6.403
  38.200         35.83	     6.557
  38.220         30.83	     6.083
  38.240         38.33	     6.782
  38.260         38.33	     6.782
  38.280         44.17	     7.280
  38.300         35.00	     6.481
  38.320         42.50	     7.141
  38.340         39.17	     6.856
  38.360         29.17	     5.916
  38.380         27.50	     5.745
  38.400         29.17	     5.916
  38.420         27.50	     5.745
  38.440         34.17	     6.403
  38.460         35.83	     6.557
  38.480         41.67	     7.071
  38.500         45.83	     7.416
  38.520         50.00	     7.746
  38.540         40.83	     7.000
  38.560         57.50	     8.307
  38.580         42.50	     7.141
  38.600         50.83	     7.810
  38.620         47.50	     7.550
  38.640         40.00	     6.928
  38.660         53.33	     8.000
  38.680         55.00	     8.124
  38.700         57.50	     8.307
  38.720         58.33	     8.367
  38.740         60.83	     8.544
  38.760         55.00	     8.124
  38.780         53.33	     8.000
  38.800         56.67	     8.246
  38.820         76.67	     9.592
  38.840         65.83	     8.888
  38.860         80.00	     9.798
  38.880         70.00	     9.165
  38.900         65.00	     8.832
  38.920         74.17	     9.434
  38.940         56.67	     8.246
  38.960         71.67	     9.274
  38.980         49.17	     7.681
  39.000         59.17	     8.426
  39.020         54.17	     8.062
  39.040         38.33	     6.782
  39.060         33.33	     6.325
  39.080         50.00	     7.746
  39.100         44.17	     7.280
  39.120         37.50	     6.708
  39.140         37.50	     6.708
  39.160         40.00	     6.928
  39.180         41.67	     7.071
  39.200         47.50	     7.550
  39.220         60.00	     8.485
  39.240         53.33	     8.000
  39.260         64.17	     8.775
  39.280         50.83	     7.810
  39.300         40.83	     7.000
  39.320         55.00	     8.124
  39.340         65.83	     8.888
  39.360         40.00	     6.928
  39.380         47.50	     7.550
  39.400         43.33	     7.211
  39.420         47.50	     7.550
  39.440         45.83	     7.416
  39.460         57.50	     8.307
  39.480         75.83	     9.539
  39.500         97.50	    10.817
  39.520        132.50	    12.610
  39.540        147.50	    13.304
  39.560        129.17	    12.450
  39.580         87.50	    10.247
  39.600         82.50	     9.950
  39.620         91.67	    10.488
  39.640        111.67	    11.576
  39.660         97.50	    10.817
  39.680         58.33	     8.367
  39.700         65.83	     8.888
  39.720         69.17	     9.110
  39.740         72.50	     9.327
  39.760         66.67	     8.944
  39.780         60.83	     8.544
  39.800         55.00	     8.124
  39.820         70.83	     9.220
  39.840         72.50	     9.327
  39.860         57.50	     8.307
  39.880         65.83	     8.888
  39.900         70.83	     9.220
  39.920         49.17	     7.681
  39.940         50.83	     7.810
  39.960         60.00	     8.485
  39.980         47.50	     7.550
  40.000         51.67	     7.874
  40.020         59.17	     8.426
  40.040         50.83	     7.810
  40.060         56.67	     8.246
  40.080         56.67	     8.246
  40.100         57.50	     8.307
  40.120         34.17	     6.403
  40.140         43.33	     7.211
  40.160         51.67	     7.874
  40.180         62.50	     8.660
  40.200         57.50	     8.307
  40.220         50.00	     7.746
  40.240         54.17	     8.062
  40.260         70.00	     9.165
  40.280         39.17	     6.856
  40.300         75.00	     9.487
  40.320         61.67	     8.602
  40.340         88.33	    10.296
  40.360         92.50	    10.536
  40.380        102.50	    11.091
  40.400         71.67	     9.274
  40.420         67.50	     9.000
  40.440         67.50	     9.000
  40.460         58.33	     8.367
  40.480         62.50	     8.660
  40.500         67.50	     9.000
  40.520         55.00	     8.124
  40.540         57.50	     8.307
  40.560         45.00	     7.348
  40.580         47.50	     7.550
  40.600         50.00	     7.746
  40.620         45.83	     7.416
  40.640         45.83	     7.416
  40.660         45.00	     7.348
  40.680         39.17	     6.856
  40.700         46.67	     7.483
  40.720         35.83	     6.557
  40.740         41.67	     7.071
  40.760         45.83	     7.416
  40.780         57.50	     8.307
  40.800         55.83	     8.185
  40.820         46.67	     7.483
  40.840         41.67	     7.071
  40.860         47.50	     7.550
  40.880         58.33	     8.367
  40.900         54.17	     8.062
  40.920         39.17	     6.856
  40.940         53.33	     8.000
  40.960         48.33	     7.616
  40.980         51.67	     7.874
  41.000         45.00	     7.348
  41.020         44.17	     7.280
  41.040         46.67	     7.483
  41.060         50.00	     7.746
  41.080         35.00	     6.481
  41.100         42.50	     7.141
  41.120         58.33	     8.367
  41.140         44.17	     7.280
  41.160         41.67	     7.071
  41.180         48.33	     7.616
  41.200         35.00	     6.481
  41.220         52.50	     7.937
  41.240         61.67	     8.602
  41.260         47.50	     7.550
  41.280         59.17	     8.426
  41.300         47.50	     7.550
  41.320         68.33	     9.055
  41.340         61.67	     8.602
  41.360         65.00	     8.832
  41.380         57.50	     8.307
  41.400         71.67	     9.274
  41.420         60.83	     8.544
  41.440         56.67	     8.246
  41.460         47.50	     7.550
  41.480         63.33	     8.718
  41.500         51.67	     7.874
  41.520         47.50	     7.550
  41.540         68.33	     9.055
  41.560         58.33	     8.367
  41.580         63.33	     8.718
  41.600         52.50	     7.937
  41.620         58.33	     8.367
  41.640         54.17	     8.062
  41.660         71.67	     9.274
  41.680         60.83	     8.544
  41.700         67.50	     9.000
  41.720         72.50	     9.327
  41.740         80.83	     9.849
  41.760         82.50	     9.950
  41.780        105.83	    11.269
  41.800         88.33	    10.296
  41.820        123.33	    12.166
  41.840         82.50	     9.950
  41.860         70.83	     9.220
  41.880         85.83	    10.149
  41.900         90.83	    10.440
  41.920         90.83	    10.440
  41.940         78.33	     9.695
  41.960         68.33	     9.055
  41.980         76.67	     9.592
  42.000         70.00	     9.165
  42.020         72.50	     9.327
  42.040         85.00	    10.100
  42.060         68.33	     9.055
  42.080         70.83	     9.220
  42.100         84.17	    10.050
  42.120         67.50	     9.000
  42.140         80.00	     9.798
  42.160         58.33	     8.367
  42.180         69.17	     9.110
  42.200         63.33	     8.718
  42.220         61.67	     8.602
  42.240         61.67	     8.602
  42.260         62.50	     8.660
  42.280         53.33	     8.000
  42.300         80.83	     9.849
  42.320         63.33	     8.718
  42.340         65.83	     8.888
  42.360         77.50	     9.644
  42.380         65.83	     8.888
  42.400         88.33	    10.296
  42.420         96.67	    10.770
  42.440        105.83	    11.269
  42.460        114.17	    11.705
  42.480        161.67	    13.928
  42.500        185.00	    14.900
  42.520        195.00	    15.297
  42.540        163.33	    14.000
  42.560        145.00	    13.191
  42.580        107.50	    11.358
  42.600        127.50	    12.369
  42.620        125.00	    12.247
  42.640        114.17	    11.705
  42.660        100.00	    10.954
  42.680         88.33	    10.296
  42.700         70.00	     9.165
  42.720         70.00	     9.165
  42.740         59.17	     8.426
  42.760         70.00	     9.165
  42.780         81.67	     9.899
  42.800         53.33	     8.000
  42.820         62.50	     8.660
  42.840         74.17	     9.434
  42.860         62.50	     8.660
  42.880         46.67	     7.483
  42.900         41.67	     7.071
  42.920         56.67	     8.246
  42.940         51.67	     7.874
  42.960         37.50	     6.708
  42.980         54.17	     8.062
  43.000         48.33	     7.616
  43.020         46.67	     7.483
  43.040         55.83	     8.185
  43.060         51.67	     7.874
  43.080         52.50	     7.937
  43.100         48.33	     7.616
  43.120         58.33	     8.367
  43.140         50.00	     7.746
  43.160         42.50	     7.141
  43.180         48.33	     7.616
  43.200         35.83	     6.557
  43.220         49.17	     7.681
  43.240         41.67	     7.071
  43.260         38.33	     6.782
  43.280         48.33	     7.616
  43.300         35.00	     6.481
  43.320         43.33	     7.211
  43.340         35.83	     6.557
  43.360         30.83	     6.083
  43.380         39.17	     6.856
  43.400         35.83	     6.557
  43.420         33.33	     6.325
  43.440         35.83	     6.557
  43.460         31.67	     6.164
  43.480         40.00	     6.928
  43.500         45.00	     7.348
  43.520         34.17	     6.403
  43.540         43.33	     7.211
  43.560         60.83	     8.544
  43.580         48.33	     7.616
  43.600         50.83	     7.810
  43.620         43.33	     7.211
  43.640         60.00	     8.485
  43.660         41.67	     7.071
  43.680         49.17	     7.681
  43.700         60.83	     8.544
  43.720         60.83	     8.544
  43.740         46.67	     7.483
  43.760         54.17	     8.062
  43.780         38.33	     6.782
  43.800         39.17	     6.856
  43.820         42.50	     7.141
  43.840         36.67	     6.633
  43.860         46.67	     7.483
  43.880         49.17	     7.681
  43.900         50.00	     7.746
  43.920         34.17	     6.403
  43.940         34.17	     6.403
  43.960         43.33	     7.211
  43.980         45.00	     7.348
  44.000         45.00	     7.348
  44.020         36.67	     6.633
  44.040         45.83	     7.416
  44.060         46.67	     7.483
  44.080         48.33	     7.616
  44.100         33.33	     6.325
  44.120         59.17	     8.426
  44.140         50.00	     7.746
  44.160         56.67	     8.246
  44.180         39.17	     6.856
  44.200         52.50	     7.937
  44.220         52.50	     7.937
  44.240         46.67	     7.483
  44.260         44.17	     7.280
  44.280         47.50	     7.550
  44.300         50.83	     7.810
  44.320         47.50	     7.550
  44.340         50.83	     7.810
  44.360         46.67	     7.483
  44.380         58.33	     8.367
  44.400         35.83	     6.557
  44.420         45.83	     7.416
  44.440         50.00	     7.746
  44.460         40.83	     7.000
  44.480         44.17	     7.280
  44.500         35.00	     6.481
  44.520         47.50	     7.550
  44.540         46.67	     7.483
  44.560         39.17	     6.856
  44.580         45.00	     7.348
  44.600         40.83	     7.000
  44.620         57.50	     8.307
  44.640         57.50	     8.307
  44.660         52.50	     7.937
  44.680         55.00	     8.124
  44.700         50.83	     7.810
  44.720         50.83	     7.810
  44.740         45.83	     7.416
  44.760         45.83	     7.416
  44.780         59.17	     8.426
  44.800         62.50	     8.660
  44.820         70.00	     9.165
  44.840         64.17	     8.775
  44.860         64.17	     8.775
  44.880         66.67	     8.944
  44.900         74.17	     9.434
  44.920         80.00	     9.798
  44.940         79.17	     9.747
  44.960         73.33	     9.381
  44.980         76.67	     9.592
  45.000         77.50	     9.644
  45.020         78.33	     9.695
  45.040         80.00	     9.798
  45.060         90.00	    10.392
  45.080         80.83	     9.849
  45.100         74.17	     9.434
  45.120         85.83	    10.149
  45.140         86.67	    10.198
  45.160         80.00	     9.798
  45.180         70.83	     9.220
  45.200         80.83	     9.849
  45.220         82.50	     9.950
  45.240         90.83	    10.440
  45.260         82.50	     9.950
  45.280         80.00	     9.798
  45.300         87.50	    10.247
  45.320         99.17	    10.909
  45.340        105.83	    11.269
  45.360        120.83	    12.042
  45.380        101.67	    11.045
  45.400        121.67	    12.083
  45.420        130.00	    12.490
  45.440        145.00	    13.191
  45.460        168.33	    14.213
  45.480        190.00	    15.100
  45.500        242.50	    17.059
  45.520        256.67	    17.550
  45.540        260.00	    17.664
  45.560        311.67	    19.339
  45.580        319.17	    19.570
  45.600        286.67	    18.547
  45.620        294.17	    18.788
  45.640        294.17	    18.788
  45.660        318.33	    19.545
  45.680        313.33	    19.391
  45.700        275.83	    18.193
  45.720        265.83	    17.861
  45.740        243.33	    17.088
  45.760        200.00	    15.492
  45.780        197.50	    15.395
  45.800        185.00	    14.900
  45.820        182.50	    14.799
  45.840        180.83	    14.731
  45.860        183.33	    14.832
  45.880        173.33	    14.422
  45.900        125.83	    12.288
  45.920         94.17	    10.630
  45.940        102.50	    11.091
  45.960        113.33	    11.662
  45.980        122.50	    12.124
  46.000        116.67	    11.832
  46.020         89.17	    10.344
  46.040         80.83	     9.849
  46.060         82.50	     9.950
  46.080         79.17	     9.747
  46.100         75.00	     9.487
  46.120         75.00	     9.487
  46.140         75.00	     9.487
  46.160         69.17	     9.110
  46.180         66.67	     8.944
  46.200         58.33	     8.367
  46.220         63.33	     8.718
  46.240         65.00	     8.832
  46.260         56.67	     8.246
  46.280         54.17	     8.062
  46.300         51.67	     7.874
  46.320         50.00	     7.746
  46.340         56.67	     8.246
  46.360         43.33	     7.211
  46.380         45.83	     7.416
  46.400         55.83	     8.185
  46.420         39.17	     6.856
  46.440         42.50	     7.141
  46.460         29.17	     5.916
  46.480         28.33	     5.831
  46.500         37.50	     6.708
  46.520         47.50	     7.550
  46.540         38.33	     6.782
  46.560         35.83	     6.557
  46.580         43.33	     7.211
  46.600         36.67	     6.633
  46.620         44.17	     7.280
  46.640         35.83	     6.557
  46.660         43.33	     7.211
  46.680         45.00	     7.348
  46.700         35.00	     6.481
  46.720         40.00	     6.928
  46.740         55.00	     8.124
  46.760         53.33	     8.000
  46.780         31.67	     6.164
  46.800         40.00	     6.928
  46.820         31.67	     6.164
  46.840         43.33	     7.211
  46.860         43.33	     7.211
  46.880         29.17	     5.916
  46.900         38.33	     6.782
  46.920         33.33	     6.325
  46.940         35.83	     6.557
  46.960         38.33	     6.782
  46.980         30.83	     6.083
  47.000         39.17	     6.856
  47.020         40.00	     6.928
  47.040         32.50	     6.245
  47.060         44.17	     7.280
  47.080         49.17	     7.681
  47.100         45.00	     7.348
  47.120         52.50	     7.937
  47.140         54.17	     8.062
  47.160         60.00	     8.485
  47.180         55.83	     8.185
  47.200         60.83	     8.544
  47.220         55.83	     8.185
  47.240         57.50	     8.307
  47.260         65.00	     8.832
  47.280         48.33	     7.616
  47.300         46.67	     7.483
  47.320         53.33	     8.000
  47.340         56.67	     8.246
  47.360         49.17	     7.681
  47.380         42.50	     7.141
  47.400         40.00	     6.928
  47.420         30.83	     6.083
  47.440         38.33	     6.782
  47.460         40.83	     7.000
  47.480         43.33	     7.211
  47.500         45.83	     7.416
  47.520         38.33	     6.782
  47.540         38.33	     6.782
  47.560         36.67	     6.633
  47.580         44.17	     7.280
  47.600         40.83	     7.000
  47.620         40.00	     6.928
  47.640         30.00	     6.000
  47.660         45.00	     7.348
  47.680         40.83	     7.000
  47.700         31.67	     6.164
  47.720         45.00	     7.348
  47.740         33.33	     6.325
  47.760         35.00	     6.481
  47.780         36.67	     6.633
  47.800         40.83	     7.000
  47.820         40.83	     7.000
  47.840         31.67	     6.164
  47.860         35.00	     6.481
  47.880         36.67	     6.633
  47.900         29.17	     5.916
  47.920         33.33	     6.325
  47.940         40.00	     6.928
  47.960         56.67	     8.246
  47.980         40.00	     6.928
  48.000         66.67	     8.944
  48.020         73.33	     9.381
  48.040         65.00	     8.832
  48.060         54.17	     8.062
  48.080         58.33	     8.367
  48.100         70.83	     9.220
  48.120         63.33	     8.718
  48.140         82.50	     9.950
  48.160         68.33	     9.055
  48.180         79.17	     9.747
  48.200         67.50	     9.000
  48.220         79.17	     9.747
  48.240         86.67	    10.198
  48.260         70.83	     9.220
  48.280         64.17	     8.775
  48.300         62.50	     8.660
  48.320         50.83	     7.810
  48.340         75.00	     9.487
  48.360         65.83	     8.888
  48.380         64.17	     8.775
  48.400         61.67	     8.602
  48.420         47.50	     7.550
  48.440         59.17	     8.426
  48.460         60.00	     8.485
  48.480         46.67	     7.483
  48.500         58.33	     8.367
  48.520         38.33	     6.782
  48.540         51.67	     7.874
  48.560         40.83	     7.000
  48.580         31.67	     6.164
  48.600         54.17	     8.062
  48.620         50.00	     7.746
  48.640         58.33	     8.367
  48.660         40.00	     6.928
  48.680         56.67	     8.246
  48.700         51.67	     7.874
  48.720         50.83	     7.810
  48.740         47.50	     7.550
  48.760         59.17	     8.426
  48.780         29.17	     5.916
  48.800         35.83	     6.557
  48.820         45.83	     7.416
  48.840         53.33	     8.000
  48.860         40.83	     7.000
  48.880         45.83	     7.416
  48.900         40.00	     6.928
  48.920         38.33	     6.782
  48.940         36.67	     6.633
  48.960         41.67	     7.071
  48.980         45.83	     7.416
  49.000         30.83	     6.083
  49.020         41.67	     7.071
  49.040         39.17	     6.856
  49.060         51.67	     7.874
  49.080         48.33	     7.616
  49.100         40.00	     6.928
  49.120         46.67	     7.483
  49.140         40.00	     6.928
  49.160         47.50	     7.550
  49.180         54.17	     8.062
  49.200         49.17	     7.681
  49.220         55.83	     8.185
  49.240         96.67	    10.770
  49.260         83.33	    10.000
  49.280        124.17	    12.207
  49.300         78.33	     9.695
  49.320         51.67	     7.874
  49.340         51.67	     7.874
  49.360         55.00	     8.124
  49.380         57.50	     8.307
  49.400         51.67	     7.874
  49.420         60.83	     8.544
  49.440         47.50	     7.550
  49.460         46.67	     7.483
  49.480         50.00	     7.746
  49.500         47.50	     7.550
  49.520         48.33	     7.616
  49.540         42.50	     7.141
  49.560         43.33	     7.211
  49.580         50.00	     7.746
  49.600         60.83	     8.544
  49.620         50.00	     7.746
  49.640         45.83	     7.416
  49.660         53.33	     8.000
  49.680         48.33	     7.616
  49.700         50.83	     7.810
  49.720         42.50	     7.141
  49.740         48.33	     7.616
  49.760         55.83	     8.185
  49.780         68.33	     9.055
  49.800         58.33	     8.367
  49.820         72.50	     9.327
  49.840         63.33	     8.718
  49.860         54.17	     8.062
  49.880         77.50	     9.644
  49.900         65.00	     8.832
  49.920         65.83	     8.888
  49.940         70.00	     9.165
  49.960         91.67	    10.488
  49.980         88.33	    10.296
  50.000         96.67	    10.770
  50.020         79.17	     9.747
  50.040        100.00	    10.954
  50.060         95.83	    10.724
  50.080         83.33	    10.000
  50.100        104.17	    11.180
  50.120        116.67	    11.832
  50.140        155.00	    13.638
  50.160        211.67	    15.937
  50.180        294.17	    18.788
  50.200        345.00	    20.347
  50.220        275.00	    18.166
  50.240        165.00	    14.071
  50.260        125.83	    12.288
  50.280        118.33	    11.916
  50.300        148.33	    13.342
  50.320        160.00	    13.856
  50.340        190.83	    15.133
  50.360        152.50	    13.528
  50.380        122.50	    12.124
  50.400         80.83	     9.849
  50.420         70.83	     9.220
  50.440         61.67	     8.602
  50.460         53.33	     8.000
  50.480         45.83	     7.416
  50.500         56.67	     8.246
  50.520         49.17	     7.681
  50.540         57.50	     8.307
  50.560         55.83	     8.185
  50.580         57.50	     8.307
  50.600         60.00	     8.485
  50.620         65.00	     8.832
  50.640         95.00	    10.677
  50.660        102.50	    11.091
  50.680         98.33	    10.863
  50.700         70.83	     9.220
  50.720         83.33	    10.000
  50.740         70.83	     9.220
  50.760         77.50	     9.644
  50.780         71.67	     9.274
  50.800         75.83	     9.539
  50.820         69.17	     9.110
  50.840         62.50	     8.660
  50.860         68.33	     9.055
  50.880         55.83	     8.185
  50.900         39.17	     6.856
  50.920         50.00	     7.746
  50.940         44.17	     7.280
  50.960         44.17	     7.280
  50.980         37.50	     6.708
  51.000         35.83	     6.557
  51.020         41.67	     7.071
  51.040         41.67	     7.071
  51.060         38.33	     6.782
  51.080         41.67	     7.071
  51.100         25.83	     5.568
  51.120         45.83	     7.416
  51.140         45.83	     7.416
  51.160         80.83	     9.849
  51.180         99.17	    10.909
  51.200         94.17	    10.630
  51.220         99.17	    10.909
  51.240         76.67	     9.592
  51.260         55.00	     8.124
  51.280         65.00	     8.832
  51.300         87.50	    10.247
  51.320         75.00	     9.487
  51.340         71.67	     9.274
  51.360         75.00	     9.487
  51.380         52.50	     7.937
  51.400         56.67	     8.246
  51.420         54.17	     8.062
  51.440         57.50	     8.307
  51.460         39.17	     6.856
  51.480         44.17	     7.280
  51.500         55.00	     8.124
  51.520         33.33	     6.325
  51.540         31.67	     6.164
  51.560         32.50	     6.245
  51.580         27.50	     5.745
  51.600         32.50	     6.245
  51.620         34.17	     6.403
  51.640         41.67	     7.071
  51.660         34.17	     6.403
  51.680         34.17	     6.403
  51.700         33.33	     6.325
  51.720         35.83	     6.557
  51.740         36.67	     6.633
  51.760         26.67	     5.657
  51.780         29.17	     5.916
  51.800         39.17	     6.856
  51.820         34.17	     6.403
  51.840         27.50	     5.745
  51.860         35.00	     6.481
  51.880         26.67	     5.657
  51.900         36.67	     6.633
  51.920         25.00	     5.477
  51.940         26.67	     5.657
  51.960         31.67	     6.164
  51.980         30.83	     6.083
  52.000         33.33	     6.325
  52.020         41.67	     7.071
  52.040         34.17	     6.403
  52.060         30.83	     6.083
  52.080         34.17	     6.403
  52.100         43.33	     7.211
  52.120         30.83	     6.083
  52.140         41.67	     7.071
  52.160         45.00	     7.348
  52.180         46.67	     7.483
  52.200         47.50	     7.550
  52.220         41.67	     7.071
  52.240         41.67	     7.071
  52.260         45.00	     7.348
  52.280         45.83	     7.416
  52.300         45.83	     7.416
  52.320         40.00	     6.928
  52.340         47.50	     7.550
  52.360         44.17	     7.280
  52.380         55.00	     8.124
  52.400         52.50	     7.937
  52.420         49.17	     7.681
  52.440         54.17	     8.062
  52.460         50.00	     7.746
  52.480         55.83	     8.185
  52.500         54.17	     8.062
  52.520         55.83	     8.185
  52.540         45.83	     7.416
  52.560         60.83	     8.544
  52.580         68.33	     9.055
  52.600         63.33	     8.718
  52.620         58.33	     8.367
  52.640         51.67	     7.874
  52.660         37.50	     6.708
  52.680         33.33	     6.325
  52.700         61.67	     8.602
  52.720         60.00	     8.485
  52.740         57.50	     8.307
  52.760         41.67	     7.071
  52.780         52.50	     7.937
  52.800         51.67	     7.874
  52.820         55.83	     8.185
  52.840         60.83	     8.544
  52.860         53.33	     8.000
  52.880         36.67	     6.633
  52.900         52.50	     7.937
  52.920         69.17	     9.110
  52.940         55.83	     8.185
  52.960         49.17	     7.681
  52.980         70.00	     9.165
  53.000         46.67	     7.483
  53.020         50.83	     7.810
  53.040         53.33	     8.000
  53.060         49.17	     7.681
  53.080         60.83	     8.544
  53.100         55.00	     8.124
  53.120         53.33	     8.000
  53.140         38.33	     6.782
  53.160         55.00	     8.124
  53.180         52.50	     7.937
  53.200         63.33	     8.718
  53.220         66.67	     8.944
  53.240         55.83	     8.185
  53.260         46.67	     7.483
  53.280         68.33	     9.055
  53.300         65.83	     8.888
  53.320         62.50	     8.660
  53.340         63.33	     8.718
  53.360         52.50	     7.937
  53.380         58.33	     8.367
  53.400         57.50	     8.307
  53.420         62.50	     8.660
  53.440         61.67	     8.602
  53.460         66.67	     8.944
  53.480         38.33	     6.782
  53.500         46.67	     7.483
  53.520         44.17	     7.280
  53.540         40.00	     6.928
  53.560         37.50	     6.708
  53.580         52.50	     7.937
  53.600         51.67	     7.874
  53.620         48.33	     7.616
  53.640         45.00	     7.348
  53.660         31.67	     6.164
  53.680         38.33	     6.782
  53.700         43.33	     7.211
  53.720         50.00	     7.746
  53.740         35.00	     6.481
  53.760         37.50	     6.708
  53.780         49.17	     7.681
  53.800         34.17	     6.403
  53.820         44.17	     7.280
  53.840         43.33	     7.211
  53.860         43.33	     7.211
  53.880         36.67	     6.633
  53.900         32.50	     6.245
  53.920         42.50	     7.141
  53.940         50.00	     7.746
  53.960         35.83	     6.557
  53.980         50.83	     7.810
  54.000         50.83	     7.810
  54.020         45.00	     7.348
  54.040         31.67	     6.164
  54.060         36.67	     6.633
  54.080         42.50	     7.141
  54.100         43.33	     7.211
  54.120         37.50	     6.708
  54.140         44.17	     7.280
  54.160         40.00	     6.928
  54.180         45.83	     7.416
  54.200         46.67	     7.483
  54.220         34.17	     6.403
  54.240         48.33	     7.616
  54.260         38.33	     6.782
  54.280         36.67	     6.633
  54.300         42.50	     7.141
  54.320         57.50	     8.307
  54.340         48.33	     7.616
  54.360         45.00	     7.348
  54.380         47.50	     7.550
  54.400         49.17	     7.681
  54.420         65.00	     8.832
  54.440         55.83	     8.185
  54.460         47.50	     7.550
  54.480         48.33	     7.616
  54.500         35.00	     6.481
  54.520         80.83	     9.849
  54.540         58.33	     8.367
  54.560         66.67	     8.944
  54.580         59.17	     8.426
  54.600         56.67	     8.246
  54.620         62.50	     8.660
  54.640         78.33	     9.695
  54.660         62.50	     8.660
  54.680         57.50	     8.307
  54.700         59.17	     8.426
  54.720         71.67	     9.274
  54.740         65.00	     8.832
  54.760         66.67	     8.944
  54.780         60.83	     8.544
  54.800         76.67	     9.592
  54.820         70.00	     9.165
  54.840         79.17	     9.747
  54.860         70.83	     9.220
  54.880         87.50	    10.247
  54.900        118.33	    11.916
  54.920        111.67	    11.576
  54.940        123.33	    12.166
  54.960         85.83	    10.149
  54.980         90.00	    10.392
  55.000         80.00	     9.798
  55.020         77.50	     9.644
  55.040         73.33	     9.381
  55.060         95.00	    10.677
  55.080        114.17	    11.705
  55.100        106.67	    11.314
  55.120         85.83	    10.149
  55.140         62.50	     8.660
  55.160         69.17	     9.110
  55.180         59.17	     8.426
  55.200         67.50	     9.000
  55.220         85.00	    10.100
  55.240         64.17	     8.775
  55.260         77.50	     9.644
  55.280         72.50	     9.327
  55.300         85.00	    10.100
  55.320         80.00	     9.798
  55.340         85.83	    10.149
  55.360         80.00	     9.798
  55.380        102.50	    11.091
  55.400         83.33	    10.000
  55.420         85.00	    10.100
  55.440         75.83	     9.539
  55.460         76.67	     9.592
  55.480         76.67	     9.592
  55.500         71.67	     9.274
  55.520         62.50	     8.660
  55.540         70.83	     9.220
  55.560         61.67	     8.602
  55.580         53.33	     8.000
  55.600         59.17	     8.426
  55.620         78.33	     9.695
  55.640         75.83	     9.539
  55.660         62.50	     8.660
  55.680         70.83	     9.220
  55.700         74.17	     9.434
  55.720         71.67	     9.274
  55.740         94.17	    10.630
  55.760         92.50	    10.536
  55.780         95.00	    10.677
  55.800         98.33	    10.863
  55.820        122.50	    12.124
  55.840        109.17	    11.446
  55.860        113.33	    11.662
  55.880        121.67	    12.083
  55.900        122.50	    12.124
  55.920        105.83	    11.269
  55.940         98.33	    10.863
  55.960         98.33	    10.863
  55.980        109.17	    11.446
  56.000         92.50	    10.536
  56.020         78.33	     9.695
  56.040         97.50	    10.817
  56.060         70.00	     9.165
  56.080         70.83	     9.220
  56.100         67.50	     9.000
  56.120         61.67	     8.602
  56.140         60.00	     8.485
  56.160         66.67	     8.944
  56.180         80.00	     9.798
  56.200         88.33	    10.296
  56.220         98.33	    10.863
  56.240        111.67	    11.576
  56.260         70.00	     9.165
  56.280         60.83	     8.544
  56.300         50.00	     7.746
  56.320         53.33	     8.000
  56.340         52.50	     7.937
  56.360         85.00	    10.100
  56.380         65.00	     8.832
  56.400         77.50	     9.644
  56.420         48.33	     7.616
  56.440         50.00	     7.746
  56.460         43.33	     7.211
  56.480         45.83	     7.416
  56.500         43.33	     7.211
  56.520         44.17	     7.280
  56.540         46.67	     7.483
  56.560         44.17	     7.280
  56.580         50.00	     7.746
  56.600         45.83	     7.416
  56.620         35.83	     6.557
  56.640         46.67	     7.483
  56.660         47.50	     7.550
  56.680         40.83	     7.000
  56.700         43.33	     7.211
  56.720         35.83	     6.557
  56.740         30.83	     6.083
  56.760         47.50	     7.550
  56.780         35.00	     6.481
  56.800         46.67	     7.483
  56.820         42.50	     7.141
  56.840         36.67	     6.633
  56.860         60.83	     8.544
  56.880         35.83	     6.557
  56.900         40.00	     6.928
  56.920         32.50	     6.245
  56.940         40.00	     6.928
  56.960         47.50	     7.550
  56.980         35.83	     6.557
  57.000         42.50	     7.141
  57.020         46.67	     7.483
  57.040         37.50	     6.708
  57.060         39.17	     6.856
  57.080         47.50	     7.550
  57.100         34.17	     6.403
  57.120         43.33	     7.211
  57.140         45.83	     7.416
  57.160         40.83	     7.000
  57.180         35.00	     6.481
  57.200         33.33	     6.325
  57.220         34.17	     6.403
  57.240         45.83	     7.416
  57.260         37.50	     6.708
  57.280         41.67	     7.071
  57.300         40.83	     7.000
  57.320         35.83	     6.557
  57.340         39.17	     6.856
  57.360         32.50	     6.245
  57.380         44.17	     7.280
  57.400         39.17	     6.856
  57.420         45.00	     7.348
  57.440         45.00	     7.348
  57.460         38.33	     6.782
  57.480         31.67	     6.164
  57.500         40.00	     6.928
  57.520         37.50	     6.708
  57.540         45.00	     7.348
  57.560         38.33	     6.782
  57.580         41.67	     7.071
  57.600         44.17	     7.280
  57.620         45.00	     7.348
  57.640         29.17	     5.916
  57.660         36.67	     6.633
  57.680         40.83	     7.000
  57.700         40.83	     7.000
  57.720         42.50	     7.141
  57.740         58.33	     8.367
  57.760         44.17	     7.280
  57.780         44.17	     7.280
  57.800         40.83	     7.000
  57.820         35.00	     6.481
  57.840         45.83	     7.416
  57.860         40.83	     7.000
  57.880         34.17	     6.403
  57.900         33.33	     6.325
  57.920         49.17	     7.681
  57.940         35.00	     6.481
  57.960         37.50	     6.708
  57.980         40.00	     6.928
  58.000         44.17	     7.280
  58.020         35.83	     6.557
  58.040         33.33	     6.325
  58.060         40.83	     7.000
  58.080         51.67	     7.874
  58.100         43.33	     7.211
  58.120         34.17	     6.403
  58.140         35.00	     6.481
  58.160         37.50	     6.708
  58.180         37.50	     6.708
  58.200         37.50	     6.708
  58.220         37.50	     6.708
  58.240         35.83	     6.557
  58.260         35.83	     6.557
  58.280         35.00	     6.481
  58.300         45.83	     7.416
  58.320         43.33	     7.211
  58.340         43.33	     7.211
  58.360         37.50	     6.708
  58.380         44.17	     7.280
  58.400         49.17	     7.681
  58.420         52.50	     7.937
  58.440         51.67	     7.874
  58.460         38.33	     6.782
  58.480         39.17	     6.856
  58.500         42.50	     7.141
  58.520         40.00	     6.928
  58.540         52.50	     7.937
  58.560         57.50	     8.307
  58.580         60.00	     8.485
  58.600         43.33	     7.211
  58.620         47.50	     7.550
  58.640         44.17	     7.280
  58.660         49.17	     7.681
  58.680         58.33	     8.367
  58.700         75.83	     9.539
  58.720         55.00	     8.124
  58.740         73.33	     9.381
  58.760         58.33	     8.367
  58.780         65.83	     8.888
  58.800         67.50	     9.000
  58.820         75.83	     9.539
  58.840         50.00	     7.746
  58.860         64.17	     8.775
  58.880         64.17	     8.775
  58.900         60.00	     8.485
  58.920         59.17	     8.426
  58.940         62.50	     8.660
  58.960         51.67	     7.874
  58.980         49.17	     7.681
  59.000         70.83	     9.220
  59.020         64.17	     8.775
  59.040         72.50	     9.327
  59.060         60.00	     8.485
  59.080         66.67	     8.944
  59.100         55.83	     8.185
  59.120         65.00	     8.832
  59.140         59.17	     8.426
  59.160         69.17	     9.110
  59.180         75.83	     9.539
  59.200         84.17	    10.050
  59.220         67.50	     9.000
  59.240         75.83	     9.539
  59.260         75.83	     9.539
  59.280         70.83	     9.220
  59.300         80.83	     9.849
  59.320         65.00	     8.832
  59.340         61.67	     8.602
  59.360         62.50	     8.660
  59.380         63.33	     8.718
  59.400         61.67	     8.602
  59.420         63.33	     8.718
  59.440         66.67	     8.944
  59.460         69.17	     9.110
  59.480         59.17	     8.426
  59.500         62.50	     8.660
  59.520         44.17	     7.280
  59.540         47.50	     7.550
  59.560         34.17	     6.403
  59.580         50.83	     7.810
  59.600         55.83	     8.185
  59.620         49.17	     7.681
  59.640         40.00	     6.928
  59.660         48.33	     7.616
  59.680         60.00	     8.485
  59.700         60.00	     8.485
  59.720         58.33	     8.367
  59.740         46.67	     7.483
  59.760         55.83	     8.185
  59.780         52.50	     7.937
  59.800         52.50	     7.937
  59.820         51.67	     7.874
  59.840         59.17	     8.426
  59.860         55.83	     8.185
  59.880         61.67	     8.602
  59.900         75.83	     9.539
  59.920         75.00	     9.487
  59.940         91.67	    10.488
  59.960        129.17	    12.450
  59.980        170.00	    14.283
  60.000        167.50	    14.177
  60.020        235.83	    16.823
  60.040        174.17	    14.457
  60.060        147.50	    13.304
  60.080        100.83	    11.000
  60.100        102.50	    11.091
  60.120        117.50	    11.874
  60.140        120.00	    12.000
  60.160        126.67	    12.329
  60.180        133.33	    12.649
  60.200        114.17	    11.705
  60.220        105.83	    11.269
  60.240         79.17	     9.747
  60.260         66.67	     8.944
  60.280         60.00	     8.485
  60.300         60.00	     8.485
  60.320         58.33	     8.367
  60.340         55.83	     8.185
  60.360         61.67	     8.602
  60.380         44.17	     7.280
  60.400         62.50	     8.660
  60.420         55.00	     8.124
  60.440         47.50	     7.550
  60.460         50.00	     7.746
  60.480         52.50	     7.937
  60.500         70.83	     9.220
  60.520         52.50	     7.937
  60.540         60.00	     8.485
  60.560         50.00	     7.746
  60.580         55.00	     8.124
  60.600         53.33	     8.000
  60.620         56.67	     8.246
  60.640         56.67	     8.246
  60.660         59.17	     8.426
  60.680         60.00	     8.485
  60.700         58.33	     8.367
  60.720         68.33	     9.055
  60.740         70.00	     9.165
  60.760         86.67	    10.198
  60.780         62.50	     8.660
  60.800         71.67	     9.274
  60.820         77.50	     9.644
  60.840         86.67	    10.198
  60.860         91.67	    10.488
  60.880         91.67	    10.488
  60.900         77.50	     9.644
  60.920         70.83	     9.220
  60.940         71.67	     9.274
  60.960         87.50	    10.247
  60.980         75.00	     9.487
  61.000         65.00	     8.832
  61.020         88.33	    10.296
  61.040         65.00	     8.832
  61.060         78.33	     9.695
  61.080         55.00	     8.124
  61.100         78.33	     9.695
  61.120         74.17	     9.434
  61.140         65.00	     8.832
  61.160         75.00	     9.487
  61.180         64.17	     8.775
  61.200         75.83	     9.539
  61.220         52.50	     7.937
  61.240         70.00	     9.165
  61.260         55.00	     8.124
  61.280         55.00	     8.124
  61.300         56.67	     8.246
  61.320         53.33	     8.000
  61.340         66.67	     8.944
  61.360         62.50	     8.660
  61.380         65.00	     8.832
  61.400         57.50	     8.307
  61.420         70.83	     9.220
  61.440         77.50	     9.644
  61.460         62.50	     8.660
  61.480         84.17	    10.050
  61.500         86.67	    10.198
  61.520         85.83	    10.149
  61.540         90.00	    10.392
  61.560         69.17	     9.110
  61.580         72.50	     9.327
  61.600         84.17	    10.050
  61.620         71.67	     9.274
  61.640         85.00	    10.100
  61.660         75.00	     9.487
  61.680         95.83	    10.724
  61.700         75.83	     9.539
  61.720         81.67	     9.899
  61.740         75.00	     9.487
  61.760         72.50	     9.327
  61.780         84.17	    10.050
  61.800         65.83	     8.888
  61.820         70.83	     9.220
  61.840         64.17	     8.775
  61.860         53.33	     8.000
  61.880         66.67	     8.944
  61.900         57.50	     8.307
  61.920         59.17	     8.426
  61.940         67.50	     9.000
  61.960         62.50	     8.660
  61.980         55.00	     8.124
  62.000         70.83	     9.220
  62.020         62.50	     8.660
  62.040         69.17	     9.110
  62.060         58.33	     8.367
  62.080         65.00	     8.832
  62.100         68.33	     9.055
  62.120         55.83	     8.185
  62.140         59.17	     8.426
  62.160         39.17	     6.856
  62.180         51.67	     7.874
  62.200         59.17	     8.426
  62.220         48.33	     7.616
  62.240         47.50	     7.550
  62.260         44.17	     7.280
  62.280         46.67	     7.483
  62.300         35.00	     6.481
  62.320         40.00	     6.928
  62.340         32.50	     6.245
  62.360         56.67	     8.246
  62.380         45.00	     7.348
  62.400         40.83	     7.000
  62.420         43.33	     7.211
  62.440         43.33	     7.211
  62.460         38.33	     6.782
  62.480         52.50	     7.937
  62.500         34.17	     6.403
  62.520         40.00	     6.928
  62.540         40.83	     7.000
  62.560         39.17	     6.856
  62.580         43.33	     7.211
  62.600         52.50	     7.937
  62.620         40.00	     6.928
  62.640         40.00	     6.928
  62.660         35.00	     6.481
  62.680         37.50	     6.708
  62.700         43.33	     7.211
  62.720         45.00	     7.348
  62.740         52.50	     7.937
  62.760         50.00	     7.746
  62.780         50.83	     7.810
  62.800         38.33	     6.782
  62.820         42.50	     7.141
  62.840         45.00	     7.348
  62.860         45.83	     7.416
  62.880         53.33	     8.000
  62.900         41.67	     7.071
  62.920         48.33	     7.616
  62.940         55.83	     8.185
  62.960         51.67	     7.874
  62.980         48.33	     7.616
  63.000         56.67	     8.246
  63.020         43.33	     7.211
  63.040         44.17	     7.280
  63.060         44.17	     7.280
  63.080         48.33	     7.616
  63.100         41.67	     7.071
  63.120         43.33	     7.211
  63.140         39.17	     6.856
  63.160         33.33	     6.325
  63.180         39.17	     6.856
  63.200         32.50	     6.245
  63.220         40.83	     7.000
  63.240         44.17	     7.280
  63.260         41.67	     7.071
  63.280         40.83	     7.000
  63.300         42.50	     7.141
  63.320         38.33	     6.782
  63.340         48.33	     7.616
  63.360         50.83	     7.810
  63.380         41.67	     7.071
  63.400         45.00	     7.348
  63.420         45.00	     7.348
  63.440         39.17	     6.856
  63.460         44.17	     7.280
  63.480         49.17	     7.681
  63.500         43.33	     7.211
  63.520         60.83	     8.544
  63.540         55.83	     8.185
  63.560         45.00	     7.348
  63.580         46.67	     7.483
  63.600         37.50	     6.708
  63.620         46.67	     7.483
  63.640         49.17	     7.681
  63.660         39.17	     6.856
  63.680         40.83	     7.000
  63.700         50.83	     7.810
  63.720         52.50	     7.937
  63.740         62.50	     8.660
  63.760         52.50	     7.937
  63.780         48.33	     7.616
  63.800         58.33	     8.367
  63.820         56.67	     8.246
  63.840         40.00	     6.928
  63.860         52.50	     7.937
  63.880         44.17	     7.280
  63.900         50.83	     7.810
  63.920         63.33	     8.718
  63.940         44.17	     7.280
  63.960         59.17	     8.426
  63.980         71.67	     9.274
  64.000         64.17	     8.775
  64.020         60.83	     8.544
  64.040         70.83	     9.220
  64.060         87.50	    10.247
  64.080         74.17	     9.434
  64.100         78.33	     9.695
  64.120         75.00	     9.487
  64.140         69.17	     9.110
  64.160         60.83	     8.544
  64.180         68.33	     9.055
  64.200         69.17	     9.110
  64.220         80.83	     9.849
  64.240         65.00	     8.832
  64.260         79.17	     9.747
  64.280         77.50	     9.644
  64.300         74.17	     9.434
  64.320         72.50	     9.327
  64.340         43.33	     7.211
  64.360         59.17	     8.426
  64.380         67.50	     9.000
  64.400         56.67	     8.246
  64.420         59.17	     8.426
  64.440         45.00	     7.348
  64.460         56.67	     8.246
  64.480         49.17	     7.681
  64.500         48.33	     7.616
  64.520         35.83	     6.557
  64.540         43.33	     7.211
  64.560         48.33	     7.616
  64.580         39.17	     6.856
  64.600         59.17	     8.426
  64.620         43.33	     7.211
  64.640         47.50	     7.550
  64.660         57.50	     8.307
  64.680         41.67	     7.071
  64.700         42.50	     7.141
  64.720         66.67	     8.944
  64.740         50.83	     7.810
  64.760         60.00	     8.485
  64.780         40.83	     7.000
  64.800         54.17	     8.062
  64.820         61.67	     8.602
  64.840         53.33	     8.000
  64.860         61.67	     8.602
  64.880         47.50	     7.550
  64.900         62.50	     8.660
  64.920         51.67	     7.874
  64.940         46.67	     7.483
  64.960         47.50	     7.550
  64.980         50.00	     7.746
  65.000         45.00	     7.348
