
Filename:
	C:\Program Files\Thermo Electron\WinXRD\Datafiles\F_HERMAN\GEO\GG_16_SFT.raw

File Created:
	October 13, 2020 - 04:30 PM

Specimen Id:
	GG_16_SFT

Specimen Name:
	

Specimen Description:
	

Comment:
Scan Type: 2Theta Scan
Start Angle: 3 deg.
Stop Angle: 65 deg.
Num Points: 3101
Step Size: 0.02 deg.
Scan Rate: 1.000000
Scan Mode: Continuous
Wavelength: 1.540562
\Kalpha1: 1.540562	\Kalpha2: 1.544390	\Kbeta: 1.392218

Optics:
		Detector:
			 Type: Fixed Slits
		Tube: 
			 Type: Fixed Slits


Datas:
 Pos [deg]       Rate [CPS]      ESD [-]

Range 1 ---> Iteration 1
   3.000        270.00	    18.000
   3.020        290.83	    18.682
   3.040        275.00	    18.166
   3.060        274.17	    18.138
   3.080        261.67	    17.720
   3.100        289.17	    18.628
   3.120        272.50	    18.083
   3.140        281.67	    18.385
   3.160        272.50	    18.083
   3.180        269.17	    17.972
   3.200        273.33	    18.111
   3.220        269.17	    17.972
   3.240        249.17	    17.292
   3.260        270.83	    18.028
   3.280        259.17	    17.635
   3.300        252.50	    17.407
   3.320        234.17	    16.763
   3.340        244.17	    17.117
   3.360        246.67	    17.205
   3.380        226.67	    16.492
   3.400        236.67	    16.852
   3.420        249.17	    17.292
   3.440        278.33	    18.276
   3.460        228.33	    16.553
   3.480        218.33	    16.186
   3.500        243.33	    17.088
   3.520        222.50	    16.340
   3.540        253.33	    17.436
   3.560        211.67	    15.937
   3.580        234.17	    16.763
   3.600        222.50	    16.340
   3.620        242.50	    17.059
   3.640        230.83	    16.643
   3.660        233.33	    16.733
   3.680        230.00	    16.613
   3.700        216.67	    16.125
   3.720        214.17	    16.031
   3.740        204.17	    15.652
   3.760        200.83	    15.524
   3.780        210.00	    15.875
   3.800        228.33	    16.553
   3.820        204.17	    15.652
   3.840        203.33	    15.620
   3.860        190.00	    15.100
   3.880        210.00	    15.875
   3.900        209.17	    15.843
   3.920        210.00	    15.875
   3.940        225.00	    16.432
   3.960        210.00	    15.875
   3.980        201.67	    15.556
   4.000        195.00	    15.297
   4.020        198.33	    15.427
   4.040        199.17	    15.460
   4.060        210.00	    15.875
   4.080        180.83	    14.731
   4.100        211.67	    15.937
   4.120        197.50	    15.395
   4.140        173.33	    14.422
   4.160        200.00	    15.492
   4.180        204.17	    15.652
   4.200        195.00	    15.297
   4.220        203.33	    15.620
   4.240        172.50	    14.387
   4.260        185.00	    14.900
   4.280        193.33	    15.232
   4.300        175.00	    14.491
   4.320        173.33	    14.422
   4.340        191.67	    15.166
   4.360        175.00	    14.491
   4.380        166.67	    14.142
   4.400        190.83	    15.133
   4.420        187.50	    15.000
   4.440        185.00	    14.900
   4.460        175.83	    14.526
   4.480        185.83	    14.933
   4.500        177.50	    14.595
   4.520        165.00	    14.071
   4.540        169.17	    14.248
   4.560        190.00	    15.100
   4.580        160.83	    13.892
   4.600        202.50	    15.588
   4.620        160.00	    13.856
   4.640        156.67	    13.711
   4.660        179.17	    14.663
   4.680        155.00	    13.638
   4.700        167.50	    14.177
   4.720        172.50	    14.387
   4.740        160.00	    13.856
   4.760        157.50	    13.748
   4.780        159.17	    13.820
   4.800        160.83	    13.892
   4.820        146.67	    13.266
   4.840        145.83	    13.229
   4.860        142.50	    13.077
   4.880        153.33	    13.565
   4.900        178.33	    14.629
   4.920        144.17	    13.153
   4.940        149.17	    13.379
   4.960        163.33	    14.000
   4.980        150.00	    13.416
   5.000        149.17	    13.379
   5.020        135.00	    12.728
   5.040        152.50	    13.528
   5.060        160.83	    13.892
   5.080        155.83	    13.675
   5.100        165.83	    14.107
   5.120        154.17	    13.601
   5.140        154.17	    13.601
   5.160        150.00	    13.416
   5.180        156.67	    13.711
   5.200        150.83	    13.454
   5.220        146.67	    13.266
   5.240        139.17	    12.923
   5.260        140.83	    13.000
   5.280        148.33	    13.342
   5.300        145.00	    13.191
   5.320        135.00	    12.728
   5.340        158.33	    13.784
   5.360        141.67	    13.038
   5.380        154.17	    13.601
   5.400        166.67	    14.142
   5.420        131.67	    12.570
   5.440        160.83	    13.892
   5.460        145.83	    13.229
   5.480        141.67	    13.038
   5.500        145.83	    13.229
   5.520        145.00	    13.191
   5.540        134.17	    12.689
   5.560        135.83	    12.767
   5.580        128.33	    12.410
   5.600        135.83	    12.767
   5.620        115.00	    11.747
   5.640        125.83	    12.288
   5.660        134.17	    12.689
   5.680        130.00	    12.490
   5.700        137.50	    12.845
   5.720        147.50	    13.304
   5.740        130.00	    12.490
   5.760        116.67	    11.832
   5.780        125.83	    12.288
   5.800        142.50	    13.077
   5.820        131.67	    12.570
   5.840        119.17	    11.958
   5.860        125.00	    12.247
   5.880        140.00	    12.961
   5.900        123.33	    12.166
   5.920        150.83	    13.454
   5.940        130.83	    12.530
   5.960        125.83	    12.288
   5.980        160.00	    13.856
   6.000        138.33	    12.884
   6.020        153.33	    13.565
   6.040        141.67	    13.038
   6.060        140.00	    12.961
   6.080        162.50	    13.964
   6.100        135.83	    12.767
   6.120        153.33	    13.565
   6.140        169.17	    14.248
   6.160        137.50	    12.845
   6.180        138.33	    12.884
   6.200        165.00	    14.071
   6.220        138.33	    12.884
   6.240        148.33	    13.342
   6.260        135.00	    12.728
   6.280        146.67	    13.266
   6.300        124.17	    12.207
   6.320        124.17	    12.207
   6.340        142.50	    13.077
   6.360        130.00	    12.490
   6.380        124.17	    12.207
   6.400        137.50	    12.845
   6.420        118.33	    11.916
   6.440        116.67	    11.832
   6.460        109.17	    11.446
   6.480        131.67	    12.570
   6.500        135.83	    12.767
   6.520        128.33	    12.410
   6.540        121.67	    12.083
   6.560        114.17	    11.705
   6.580        118.33	    11.916
   6.600        113.33	    11.662
   6.620        120.83	    12.042
   6.640        114.17	    11.705
   6.660        108.33	    11.402
   6.680        108.33	    11.402
   6.700        130.00	    12.490
   6.720        105.83	    11.269
   6.740        126.67	    12.329
   6.760        112.50	    11.619
   6.780        130.00	    12.490
   6.800        110.00	    11.489
   6.820        105.00	    11.225
   6.840        100.83	    11.000
   6.860        117.50	    11.874
   6.880        116.67	    11.832
   6.900        110.00	    11.489
   6.920        110.00	    11.489
   6.940         98.33	    10.863
   6.960        101.67	    11.045
   6.980        104.17	    11.180
   7.000         99.17	    10.909
   7.020        101.67	    11.045
   7.040         78.33	     9.695
   7.060        110.00	    11.489
   7.080         90.83	    10.440
   7.100        105.00	    11.225
   7.120        105.00	    11.225
   7.140         97.50	    10.817
   7.160         98.33	    10.863
   7.180        105.83	    11.269
   7.200         95.00	    10.677
   7.220        105.00	    11.225
   7.240        100.83	    11.000
   7.260        116.67	    11.832
   7.280        100.00	    10.954
   7.300         91.67	    10.488
   7.320         97.50	    10.817
   7.340        115.00	    11.747
   7.360         90.83	    10.440
   7.380         99.17	    10.909
   7.400         90.00	    10.392
   7.420         92.50	    10.536
   7.440         75.83	     9.539
   7.460         99.17	    10.909
   7.480         91.67	    10.488
   7.500         86.67	    10.198
   7.520         92.50	    10.536
   7.540         80.83	     9.849
   7.560         92.50	    10.536
   7.580         80.83	     9.849
   7.600         90.83	    10.440
   7.620         99.17	    10.909
   7.640        104.17	    11.180
   7.660        109.17	    11.446
   7.680         95.00	    10.677
   7.700         90.00	    10.392
   7.720        102.50	    11.091
   7.740         88.33	    10.296
   7.760         97.50	    10.817
   7.780         95.00	    10.677
   7.800        101.67	    11.045
   7.820         96.67	    10.770
   7.840         90.83	    10.440
   7.860        101.67	    11.045
   7.880        101.67	    11.045
   7.900        103.33	    11.136
   7.920         82.50	     9.950
   7.940        105.83	    11.269
   7.960         85.00	    10.100
   7.980         79.17	     9.747
   8.000         95.00	    10.677
   8.020         98.33	    10.863
   8.040         94.17	    10.630
   8.060         97.50	    10.817
   8.080         88.33	    10.296
   8.100         90.83	    10.440
   8.120         98.33	    10.863
   8.140        101.67	    11.045
   8.160         93.33	    10.583
   8.180         81.67	     9.899
   8.200         85.00	    10.100
   8.220         84.17	    10.050
   8.240         94.17	    10.630
   8.260         97.50	    10.817
   8.280         87.50	    10.247
   8.300         83.33	    10.000
   8.320         90.83	    10.440
   8.340         95.83	    10.724
   8.360         78.33	     9.695
   8.380         82.50	     9.950
   8.400        107.50	    11.358
   8.420        103.33	    11.136
   8.440         92.50	    10.536
   8.460         90.83	    10.440
   8.480         87.50	    10.247
   8.500         97.50	    10.817
   8.520         91.67	    10.488
   8.540         99.17	    10.909
   8.560         83.33	    10.000
   8.580         80.83	     9.849
   8.600         96.67	    10.770
   8.620         90.83	    10.440
   8.640         87.50	    10.247
   8.660         74.17	     9.434
   8.680         77.50	     9.644
   8.700         90.83	    10.440
   8.720         77.50	     9.644
   8.740         80.00	     9.798
   8.760         80.83	     9.849
   8.780        102.50	    11.091
   8.800        111.67	    11.576
   8.820        105.83	    11.269
   8.840        122.50	    12.124
   8.860        115.83	    11.790
   8.880        127.50	    12.369
   8.900        130.83	    12.530
   8.920        135.83	    12.767
   8.940        141.67	    13.038
   8.960        132.50	    12.610
   8.980        133.33	    12.649
   9.000        127.50	    12.369
   9.020        124.17	    12.207
   9.040         99.17	    10.909
   9.060         83.33	    10.000
   9.080         95.83	    10.724
   9.100         86.67	    10.198
   9.120         66.67	     8.944
   9.140         74.17	     9.434
   9.160         90.83	    10.440
   9.180         93.33	    10.583
   9.200         86.67	    10.198
   9.220         93.33	    10.583
   9.240         69.17	     9.110
   9.260         83.33	    10.000
   9.280         85.00	    10.100
   9.300         72.50	     9.327
   9.320         89.17	    10.344
   9.340         80.00	     9.798
   9.360         75.00	     9.487
   9.380         78.33	     9.695
   9.400         58.33	     8.367
   9.420         81.67	     9.899
   9.440         79.17	     9.747
   9.460         74.17	     9.434
   9.480         70.83	     9.220
   9.500         81.67	     9.899
   9.520         80.00	     9.798
   9.540         84.17	    10.050
   9.560         75.83	     9.539
   9.580         85.00	    10.100
   9.600        100.00	    10.954
   9.620         72.50	     9.327
   9.640         76.67	     9.592
   9.660         78.33	     9.695
   9.680         70.83	     9.220
   9.700         59.17	     8.426
   9.720         67.50	     9.000
   9.740         70.83	     9.220
   9.760         60.00	     8.485
   9.780         80.00	     9.798
   9.800         83.33	    10.000
   9.820         75.83	     9.539
   9.840         67.50	     9.000
   9.860         87.50	    10.247
   9.880         88.33	    10.296
   9.900        101.67	    11.045
   9.920         80.83	     9.849
   9.940         80.83	     9.849
   9.960         77.50	     9.644
   9.980         67.50	     9.000
  10.000         76.67	     9.592
  10.020         75.83	     9.539
  10.040         74.17	     9.434
  10.060         72.50	     9.327
  10.080         57.50	     8.307
  10.100         75.83	     9.539
  10.120         68.33	     9.055
  10.140         72.50	     9.327
  10.160         80.00	     9.798
  10.180         73.33	     9.381
  10.200         73.33	     9.381
  10.220         54.17	     8.062
  10.240         70.83	     9.220
  10.260         58.33	     8.367
  10.280         60.83	     8.544
  10.300         58.33	     8.367
  10.320         75.00	     9.487
  10.340         66.67	     8.944
  10.360         65.83	     8.888
  10.380         68.33	     9.055
  10.400         40.83	     7.000
  10.420         75.00	     9.487
  10.440         65.00	     8.832
  10.460         70.83	     9.220
  10.480         65.00	     8.832
  10.500         66.67	     8.944
  10.520         80.00	     9.798
  10.540        105.83	    11.269
  10.560        135.00	    12.728
  10.580        111.67	    11.576
  10.600         97.50	    10.817
  10.620         96.67	    10.770
  10.640         90.83	    10.440
  10.660         76.67	     9.592
  10.680         75.83	     9.539
  10.700         79.17	     9.747
  10.720         66.67	     8.944
  10.740         65.83	     8.888
  10.760         48.33	     7.616
  10.780         65.83	     8.888
  10.800         60.00	     8.485
  10.820         61.67	     8.602
  10.840         63.33	     8.718
  10.860         69.17	     9.110
  10.880         57.50	     8.307
  10.900         64.17	     8.775
  10.920         61.67	     8.602
  10.940         74.17	     9.434
  10.960         60.00	     8.485
  10.980         69.17	     9.110
  11.000         68.33	     9.055
  11.020         67.50	     9.000
  11.040         64.17	     8.775
  11.060         60.00	     8.485
  11.080         74.17	     9.434
  11.100         67.50	     9.000
  11.120         74.17	     9.434
  11.140         55.00	     8.124
  11.160         63.33	     8.718
  11.180         62.50	     8.660
  11.200         68.33	     9.055
  11.220         60.83	     8.544
  11.240         55.00	     8.124
  11.260         68.33	     9.055
  11.280         67.50	     9.000
  11.300         51.67	     7.874
  11.320         70.83	     9.220
  11.340         56.67	     8.246
  11.360         51.67	     7.874
  11.380         76.67	     9.592
  11.400         57.50	     8.307
  11.420         53.33	     8.000
  11.440         60.83	     8.544
  11.460         55.00	     8.124
  11.480         70.00	     9.165
  11.500         55.00	     8.124
  11.520         68.33	     9.055
  11.540         63.33	     8.718
  11.560         65.83	     8.888
  11.580         58.33	     8.367
  11.600         62.50	     8.660
  11.620         63.33	     8.718
  11.640         61.67	     8.602
  11.660         59.17	     8.426
  11.680         60.00	     8.485
  11.700         61.67	     8.602
  11.720         45.83	     7.416
  11.740         54.17	     8.062
  11.760         56.67	     8.246
  11.780         50.83	     7.810
  11.800         57.50	     8.307
  11.820         70.83	     9.220
  11.840         48.33	     7.616
  11.860         53.33	     8.000
  11.880         75.00	     9.487
  11.900         69.17	     9.110
  11.920         69.17	     9.110
  11.940         59.17	     8.426
  11.960         53.33	     8.000
  11.980         49.17	     7.681
  12.000         64.17	     8.775
  12.020         61.67	     8.602
  12.040         72.50	     9.327
  12.060         66.67	     8.944
  12.080         79.17	     9.747
  12.100         62.50	     8.660
  12.120         74.17	     9.434
  12.140         83.33	    10.000
  12.160         78.33	     9.695
  12.180         90.83	    10.440
  12.200         91.67	    10.488
  12.220         77.50	     9.644
  12.240        103.33	    11.136
  12.260         98.33	    10.863
  12.280        100.83	    11.000
  12.300         87.50	    10.247
  12.320         92.50	    10.536
  12.340         72.50	     9.327
  12.360         88.33	    10.296
  12.380         61.67	     8.602
  12.400         67.50	     9.000
  12.420         85.83	    10.149
  12.440         69.17	     9.110
  12.460         82.50	     9.950
  12.480         80.83	     9.849
  12.500         66.67	     8.944
  12.520         88.33	    10.296
  12.540         72.50	     9.327
  12.560         99.17	    10.909
  12.580         85.00	    10.100
  12.600         90.83	    10.440
  12.620         85.00	    10.100
  12.640         68.33	     9.055
  12.660         72.50	     9.327
  12.680         70.83	     9.220
  12.700         60.00	     8.485
  12.720         59.17	     8.426
  12.740         58.33	     8.367
  12.760         60.83	     8.544
  12.780         63.33	     8.718
  12.800         51.67	     7.874
  12.820         44.17	     7.280
  12.840         55.00	     8.124
  12.860         50.83	     7.810
  12.880         57.50	     8.307
  12.900         58.33	     8.367
  12.920         50.83	     7.810
  12.940         57.50	     8.307
  12.960         47.50	     7.550
  12.980         45.00	     7.348
  13.000         59.17	     8.426
  13.020         54.17	     8.062
  13.040         50.00	     7.746
  13.060         52.50	     7.937
  13.080         59.17	     8.426
  13.100         59.17	     8.426
  13.120         55.83	     8.185
  13.140         50.83	     7.810
  13.160         56.67	     8.246
  13.180         54.17	     8.062
  13.200         58.33	     8.367
  13.220         45.00	     7.348
  13.240         62.50	     8.660
  13.260         51.67	     7.874
  13.280         49.17	     7.681
  13.300         59.17	     8.426
  13.320         45.83	     7.416
  13.340         58.33	     8.367
  13.360         50.00	     7.746
  13.380         56.67	     8.246
  13.400         53.33	     8.000
  13.420         62.50	     8.660
  13.440         45.83	     7.416
  13.460         51.67	     7.874
  13.480         50.83	     7.810
  13.500         51.67	     7.874
  13.520         42.50	     7.141
  13.540         73.33	     9.381
  13.560         50.83	     7.810
  13.580         59.17	     8.426
  13.600         65.00	     8.832
  13.620         53.33	     8.000
  13.640         44.17	     7.280
  13.660         54.17	     8.062
  13.680         48.33	     7.616
  13.700         65.00	     8.832
  13.720         45.83	     7.416
  13.740         40.83	     7.000
  13.760         50.83	     7.810
  13.780         46.67	     7.483
  13.800         56.67	     8.246
  13.820         55.00	     8.124
  13.840         50.83	     7.810
  13.860         60.83	     8.544
  13.880         67.50	     9.000
  13.900         65.00	     8.832
  13.920         67.50	     9.000
  13.940         61.67	     8.602
  13.960         65.00	     8.832
  13.980         59.17	     8.426
  14.000         70.00	     9.165
  14.020         51.67	     7.874
  14.040         63.33	     8.718
  14.060         77.50	     9.644
  14.080         61.67	     8.602
  14.100         54.17	     8.062
  14.120         50.00	     7.746
  14.140         49.17	     7.681
  14.160         63.33	     8.718
  14.180         58.33	     8.367
  14.200         57.50	     8.307
  14.220         36.67	     6.633
  14.240         51.67	     7.874
  14.260         43.33	     7.211
  14.280         44.17	     7.280
  14.300         54.17	     8.062
  14.320         34.17	     6.403
  14.340         41.67	     7.071
  14.360         60.83	     8.544
  14.380         56.67	     8.246
  14.400         43.33	     7.211
  14.420         58.33	     8.367
  14.440         49.17	     7.681
  14.460         38.33	     6.782
  14.480         49.17	     7.681
  14.500         49.17	     7.681
  14.520         44.17	     7.280
  14.540         45.83	     7.416
  14.560         45.00	     7.348
  14.580         38.33	     6.782
  14.600         39.17	     6.856
  14.620         40.83	     7.000
  14.640         44.17	     7.280
  14.660         35.83	     6.557
  14.680         42.50	     7.141
  14.700         41.67	     7.071
  14.720         37.50	     6.708
  14.740         35.00	     6.481
  14.760         39.17	     6.856
  14.780         35.83	     6.557
  14.800         50.83	     7.810
  14.820         41.67	     7.071
  14.840         41.67	     7.071
  14.860         49.17	     7.681
  14.880         54.17	     8.062
  14.900         45.00	     7.348
  14.920         38.33	     6.782
  14.940         48.33	     7.616
  14.960         50.83	     7.810
  14.980         47.50	     7.550
  15.000         56.67	     8.246
  15.020         75.83	     9.539
  15.040         69.17	     9.110
  15.060         93.33	    10.583
  15.080         76.67	     9.592
  15.100         76.67	     9.592
  15.120         66.67	     8.944
  15.140         55.83	     8.185
  15.160         44.17	     7.280
  15.180         61.67	     8.602
  15.200         42.50	     7.141
  15.220         50.00	     7.746
  15.240         46.67	     7.483
  15.260         45.00	     7.348
  15.280         40.83	     7.000
  15.300         60.00	     8.485
  15.320         35.83	     6.557
  15.340         49.17	     7.681
  15.360         46.67	     7.483
  15.380         36.67	     6.633
  15.400         35.83	     6.557
  15.420         50.83	     7.810
  15.440         33.33	     6.325
  15.460         35.00	     6.481
  15.480         44.17	     7.280
  15.500         40.00	     6.928
  15.520         40.83	     7.000
  15.540         49.17	     7.681
  15.560         41.67	     7.071
  15.580         45.83	     7.416
  15.600         45.83	     7.416
  15.620         40.00	     6.928
  15.640         32.50	     6.245
  15.660         37.50	     6.708
  15.680         38.33	     6.782
  15.700         45.83	     7.416
  15.720         39.17	     6.856
  15.740         25.83	     5.568
  15.760         40.00	     6.928
  15.780         55.00	     8.124
  15.800         40.83	     7.000
  15.820         35.83	     6.557
  15.840         46.67	     7.483
  15.860         69.17	     9.110
  15.880         52.50	     7.937
  15.900         72.50	     9.327
  15.920         43.33	     7.211
  15.940         50.83	     7.810
  15.960         51.67	     7.874
  15.980         38.33	     6.782
  16.000         47.50	     7.550
  16.020         47.50	     7.550
  16.040         37.50	     6.708
  16.060         30.83	     6.083
  16.080         50.00	     7.746
  16.100         38.33	     6.782
  16.120         46.67	     7.483
  16.140         39.17	     6.856
  16.160         35.00	     6.481
  16.180         49.17	     7.681
  16.200         33.33	     6.325
  16.220         48.33	     7.616
  16.240         28.33	     5.831
  16.260         33.33	     6.325
  16.280         50.83	     7.810
  16.300         45.83	     7.416
  16.320         33.33	     6.325
  16.340         42.50	     7.141
  16.360         34.17	     6.403
  16.380         39.17	     6.856
  16.400         35.00	     6.481
  16.420         32.50	     6.245
  16.440         40.83	     7.000
  16.460         47.50	     7.550
  16.480         27.50	     5.745
  16.500         46.67	     7.483
  16.520         39.17	     6.856
  16.540         41.67	     7.071
  16.560         35.83	     6.557
  16.580         35.00	     6.481
  16.600         28.33	     5.831
  16.620         45.00	     7.348
  16.640         40.83	     7.000
  16.660         25.83	     5.568
  16.680         36.67	     6.633
  16.700         39.17	     6.856
  16.720         30.00	     6.000
  16.740         41.67	     7.071
  16.760         38.33	     6.782
  16.780         45.00	     7.348
  16.800         40.83	     7.000
  16.820         50.00	     7.746
  16.840         36.67	     6.633
  16.860         40.83	     7.000
  16.880         34.17	     6.403
  16.900         40.00	     6.928
  16.920         38.33	     6.782
  16.940         47.50	     7.550
  16.960         52.50	     7.937
  16.980         50.83	     7.810
  17.000         29.17	     5.916
  17.020         40.83	     7.000
  17.040         30.00	     6.000
  17.060         35.83	     6.557
  17.080         39.17	     6.856
  17.100         39.17	     6.856
  17.120         28.33	     5.831
  17.140         38.33	     6.782
  17.160         37.50	     6.708
  17.180         25.83	     5.568
  17.200         44.17	     7.280
  17.220         37.50	     6.708
  17.240         32.50	     6.245
  17.260         29.17	     5.916
  17.280         30.00	     6.000
  17.300         39.17	     6.856
  17.320         44.17	     7.280
  17.340         34.17	     6.403
  17.360         29.17	     5.916
  17.380         30.00	     6.000
  17.400         43.33	     7.211
  17.420         39.17	     6.856
  17.440         37.50	     6.708
  17.460         34.17	     6.403
  17.480         40.83	     7.000
  17.500         35.00	     6.481
  17.520         40.00	     6.928
  17.540         38.33	     6.782
  17.560         35.83	     6.557
  17.580         44.17	     7.280
  17.600         30.00	     6.000
  17.620         35.83	     6.557
  17.640         39.17	     6.856
  17.660         42.50	     7.141
  17.680         44.17	     7.280
  17.700         62.50	     8.660
  17.720         55.83	     8.185
  17.740         58.33	     8.367
  17.760         59.17	     8.426
  17.780         57.50	     8.307
  17.800         63.33	     8.718
  17.820         60.00	     8.485
  17.840         67.50	     9.000
  17.860         84.17	    10.050
  17.880         69.17	     9.110
  17.900         67.50	     9.000
  17.920         55.00	     8.124
  17.940         64.17	     8.775
  17.960         56.67	     8.246
  17.980         48.33	     7.616
  18.000         61.67	     8.602
  18.020         52.50	     7.937
  18.040         41.67	     7.071
  18.060         38.33	     6.782
  18.080         42.50	     7.141
  18.100         41.67	     7.071
  18.120         33.33	     6.325
  18.140         36.67	     6.633
  18.160         46.67	     7.483
  18.180         38.33	     6.782
  18.200         39.17	     6.856
  18.220         45.00	     7.348
  18.240         36.67	     6.633
  18.260         40.83	     7.000
  18.280         40.83	     7.000
  18.300         30.00	     6.000
  18.320         34.17	     6.403
  18.340         36.67	     6.633
  18.360         32.50	     6.245
  18.380         31.67	     6.164
  18.400         36.67	     6.633
  18.420         34.17	     6.403
  18.440         43.33	     7.211
  18.460         37.50	     6.708
  18.480         40.00	     6.928
  18.500         37.50	     6.708
  18.520         40.83	     7.000
  18.540         25.83	     5.568
  18.560         40.00	     6.928
  18.580         30.83	     6.083
  18.600         36.67	     6.633
  18.620         35.00	     6.481
  18.640         45.83	     7.416
  18.660         40.00	     6.928
  18.680         49.17	     7.681
  18.700         40.83	     7.000
  18.720         30.83	     6.083
  18.740         38.33	     6.782
  18.760         43.33	     7.211
  18.780         57.50	     8.307
  18.800         50.83	     7.810
  18.820         48.33	     7.616
  18.840         60.00	     8.485
  18.860         56.67	     8.246
  18.880         46.67	     7.483
  18.900         34.17	     6.403
  18.920         40.00	     6.928
  18.940         49.17	     7.681
  18.960         35.00	     6.481
  18.980         38.33	     6.782
  19.000         49.17	     7.681
  19.020         52.50	     7.937
  19.040         37.50	     6.708
  19.060         40.00	     6.928
  19.080         33.33	     6.325
  19.100         40.00	     6.928
  19.120         33.33	     6.325
  19.140         40.00	     6.928
  19.160         36.67	     6.633
  19.180         36.67	     6.633
  19.200         38.33	     6.782
  19.220         52.50	     7.937
  19.240         44.17	     7.280
  19.260         42.50	     7.141
  19.280         39.17	     6.856
  19.300         51.67	     7.874
  19.320         46.67	     7.483
  19.340         51.67	     7.874
  19.360         42.50	     7.141
  19.380         49.17	     7.681
  19.400         40.83	     7.000
  19.420         45.83	     7.416
  19.440         36.67	     6.633
  19.460         45.00	     7.348
  19.480         53.33	     8.000
  19.500         33.33	     6.325
  19.520         46.67	     7.483
  19.540         44.17	     7.280
  19.560         50.83	     7.810
  19.580         35.83	     6.557
  19.600         65.00	     8.832
  19.620         35.00	     6.481
  19.640         38.33	     6.782
  19.660         45.00	     7.348
  19.680         42.50	     7.141
  19.700         57.50	     8.307
  19.720         62.50	     8.660
  19.740         54.17	     8.062
  19.760         68.33	     9.055
  19.780        105.83	    11.269
  19.800        142.50	    13.077
  19.820        171.67	    14.353
  19.840        200.83	    15.524
  19.860        159.17	    13.820
  19.880        140.83	    13.000
  19.900        104.17	    11.180
  19.920         93.33	    10.583
  19.940         83.33	    10.000
  19.960         69.17	     9.110
  19.980         78.33	     9.695
  20.000         79.17	     9.747
  20.020         76.67	     9.592
  20.040         62.50	     8.660
  20.060         64.17	     8.775
  20.080         51.67	     7.874
  20.100         50.00	     7.746
  20.120         39.17	     6.856
  20.140         57.50	     8.307
  20.160         49.17	     7.681
  20.180         42.50	     7.141
  20.200         53.33	     8.000
  20.220         57.50	     8.307
  20.240         41.67	     7.071
  20.260         34.17	     6.403
  20.280         47.50	     7.550
  20.300         38.33	     6.782
  20.320         37.50	     6.708
  20.340         40.00	     6.928
  20.360         45.83	     7.416
  20.380         49.17	     7.681
  20.400         34.17	     6.403
  20.420         39.17	     6.856
  20.440         44.17	     7.280
  20.460         29.17	     5.916
  20.480         37.50	     6.708
  20.500         31.67	     6.164
  20.520         40.00	     6.928
  20.540         30.83	     6.083
  20.560         36.67	     6.633
  20.580         51.67	     7.874
  20.600         50.00	     7.746
  20.620         47.50	     7.550
  20.640         43.33	     7.211
  20.660         49.17	     7.681
  20.680         51.67	     7.874
  20.700         47.50	     7.550
  20.720         52.50	     7.937
  20.740         66.67	     8.944
  20.760         54.17	     8.062
  20.780         80.00	     9.798
  20.800        120.83	    12.042
  20.820        170.83	    14.318
  20.840        260.83	    17.692
  20.860        310.83	    19.313
  20.880        399.17	    21.886
  20.900        501.67	    24.536
  20.920        534.17	    25.318
  20.940        547.50	    25.632
  20.960        438.33	    22.935
  20.980        353.33	    20.591
  21.000        227.50	    16.523
  21.020        157.50	    13.748
  21.040        104.17	    11.180
  21.060         93.33	    10.583
  21.080         84.17	    10.050
  21.100         70.00	     9.165
  21.120         87.50	    10.247
  21.140         57.50	     8.307
  21.160         58.33	     8.367
  21.180         43.33	     7.211
  21.200         55.00	     8.124
  21.220         46.67	     7.483
  21.240         43.33	     7.211
  21.260         41.67	     7.071
  21.280         41.67	     7.071
  21.300         40.00	     6.928
  21.320         38.33	     6.782
  21.340         33.33	     6.325
  21.360         36.67	     6.633
  21.380         51.67	     7.874
  21.400         40.00	     6.928
  21.420         40.83	     7.000
  21.440         43.33	     7.211
  21.460         36.67	     6.633
  21.480         40.00	     6.928
  21.500         36.67	     6.633
  21.520         27.50	     5.745
  21.540         32.50	     6.245
  21.560         35.83	     6.557
  21.580         49.17	     7.681
  21.600         40.00	     6.928
  21.620         48.33	     7.616
  21.640         41.67	     7.071
  21.660         37.50	     6.708
  21.680         44.17	     7.280
  21.700         47.50	     7.550
  21.720         39.17	     6.856
  21.740         48.33	     7.616
  21.760         38.33	     6.782
  21.780         35.00	     6.481
  21.800         31.67	     6.164
  21.820         27.50	     5.745
  21.840         39.17	     6.856
  21.860         33.33	     6.325
  21.880         33.33	     6.325
  21.900         28.33	     5.831
  21.920         35.83	     6.557
  21.940         32.50	     6.245
  21.960         40.00	     6.928
  21.980         65.83	     8.888
  22.000         55.00	     8.124
  22.020         65.83	     8.888
  22.040         70.83	     9.220
  22.060        100.83	    11.000
  22.080        118.33	    11.916
  22.100        160.83	    13.892
  22.120        152.50	    13.528
  22.140        143.33	    13.115
  22.160        129.17	    12.450
  22.180        115.00	    11.747
  22.200         74.17	     9.434
  22.220         68.33	     9.055
  22.240         55.83	     8.185
  22.260         47.50	     7.550
  22.280         55.00	     8.124
  22.300         45.00	     7.348
  22.320         58.33	     8.367
  22.340         54.17	     8.062
  22.360         74.17	     9.434
  22.380         84.17	    10.050
  22.400         83.33	    10.000
  22.420         68.33	     9.055
  22.440         70.83	     9.220
  22.460         45.83	     7.416
  22.480         50.00	     7.746
  22.500         54.17	     8.062
  22.520         57.50	     8.307
  22.540         62.50	     8.660
  22.560         80.83	     9.849
  22.580        102.50	    11.091
  22.600         93.33	    10.583
  22.620         80.83	     9.849
  22.640         69.17	     9.110
  22.660         57.50	     8.307
  22.680         56.67	     8.246
  22.700         43.33	     7.211
  22.720         46.67	     7.483
  22.740         35.83	     6.557
  22.760         32.50	     6.245
  22.780         40.83	     7.000
  22.800         43.33	     7.211
  22.820         28.33	     5.831
  22.840         49.17	     7.681
  22.860         45.00	     7.348
  22.880         38.33	     6.782
  22.900         46.67	     7.483
  22.920         70.00	     9.165
  22.940         92.50	    10.536
  22.960        105.00	    11.225
  22.980        104.17	    11.180
  23.000        113.33	    11.662
  23.020         97.50	    10.817
  23.040         81.67	     9.899
  23.060         88.33	    10.296
  23.080         77.50	     9.644
  23.100         89.17	    10.344
  23.120         80.00	     9.798
  23.140         82.50	     9.950
  23.160         66.67	     8.944
  23.180         65.83	     8.888
  23.200         65.00	     8.832
  23.220         38.33	     6.782
  23.240         38.33	     6.782
  23.260         40.83	     7.000
  23.280         39.17	     6.856
  23.300         49.17	     7.681
  23.320         40.00	     6.928
  23.340         42.50	     7.141
  23.360         42.50	     7.141
  23.380         38.33	     6.782
  23.400         45.00	     7.348
  23.420         45.83	     7.416
  23.440         48.33	     7.616
  23.460         45.83	     7.416
  23.480         53.33	     8.000
  23.500         71.67	     9.274
  23.520         69.17	     9.110
  23.540         83.33	    10.000
  23.560         83.33	    10.000
  23.580        103.33	    11.136
  23.600         98.33	    10.863
  23.620        104.17	    11.180
  23.640         96.67	    10.770
  23.660         95.00	    10.677
  23.680         99.17	    10.909
  23.700        102.50	    11.091
  23.720         65.00	     8.832
  23.740         77.50	     9.644
  23.760         59.17	     8.426
  23.780         68.33	     9.055
  23.800         58.33	     8.367
  23.820         65.00	     8.832
  23.840         55.83	     8.185
  23.860         62.50	     8.660
  23.880         60.83	     8.544
  23.900         52.50	     7.937
  23.920         59.17	     8.426
  23.940         51.67	     7.874
  23.960         60.00	     8.485
  23.980         64.17	     8.775
  24.000         59.17	     8.426
  24.020         52.50	     7.937
  24.040         69.17	     9.110
  24.060         82.50	     9.950
  24.080         63.33	     8.718
  24.100         70.00	     9.165
  24.120         77.50	     9.644
  24.140         95.00	    10.677
  24.160         86.67	    10.198
  24.180         75.83	     9.539
  24.200        114.17	    11.705
  24.220        103.33	    11.136
  24.240        111.67	    11.576
  24.260        102.50	    11.091
  24.280        103.33	    11.136
  24.300        115.00	    11.747
  24.320        102.50	    11.091
  24.340        112.50	    11.619
  24.360        125.00	    12.247
  24.380        115.83	    11.790
  24.400        128.33	    12.410
  24.420        114.17	    11.705
  24.440        100.00	    10.954
  24.460         93.33	    10.583
  24.480         91.67	    10.488
  24.500         64.17	     8.775
  24.520         61.67	     8.602
  24.540         69.17	     9.110
  24.560         59.17	     8.426
  24.580         89.17	    10.344
  24.600         85.00	    10.100
  24.620         99.17	    10.909
  24.640        105.83	    11.269
  24.660        101.67	    11.045
  24.680        105.00	    11.225
  24.700        100.00	    10.954
  24.720         86.67	    10.198
  24.740         95.83	    10.724
  24.760         94.17	    10.630
  24.780        106.67	    11.314
  24.800         85.00	    10.100
  24.820         64.17	     8.775
  24.840         87.50	    10.247
  24.860         59.17	     8.426
  24.880         60.83	     8.544
  24.900         76.67	     9.592
  24.920         79.17	     9.747
  24.940         52.50	     7.937
  24.960         68.33	     9.055
  24.980         63.33	     8.718
  25.000         60.00	     8.485
  25.020         60.83	     8.544
  25.040         51.67	     7.874
  25.060         54.17	     8.062
  25.080         55.83	     8.185
  25.100         77.50	     9.644
  25.120         78.33	     9.695
  25.140         80.00	     9.798
  25.160         96.67	    10.770
  25.180        105.00	    11.225
  25.200        101.67	    11.045
  25.220         89.17	    10.344
  25.240         83.33	    10.000
  25.260         75.00	     9.487
  25.280         80.83	     9.849
  25.300         76.67	     9.592
  25.320         68.33	     9.055
  25.340         65.00	     8.832
  25.360         63.33	     8.718
  25.380         94.17	    10.630
  25.400         90.00	    10.392
  25.420         94.17	    10.630
  25.440        119.17	    11.958
  25.460        140.83	    13.000
  25.480        136.67	    12.806
  25.500        138.33	    12.884
  25.520        158.33	    13.784
  25.540        199.17	    15.460
  25.560        265.83	    17.861
  25.580        205.00	    15.684
  25.600        200.00	    15.492
  25.620        216.67	    16.125
  25.640        167.50	    14.177
  25.660        128.33	    12.410
  25.680        100.00	    10.954
  25.700        124.17	    12.207
  25.720         90.00	    10.392
  25.740         95.00	    10.677
  25.760         94.17	    10.630
  25.780         93.33	    10.583
  25.800         89.17	    10.344
  25.820         75.00	     9.487
  25.840         61.67	     8.602
  25.860         81.67	     9.899
  25.880        120.00	    12.000
  25.900        165.00	    14.071
  25.920        110.83	    11.533
  25.940         88.33	    10.296
  25.960        100.83	    11.000
  25.980        105.83	    11.269
  26.000         70.00	     9.165
  26.020         61.67	     8.602
  26.040         64.17	     8.775
  26.060         61.67	     8.602
  26.080         51.67	     7.874
  26.100         50.83	     7.810
  26.120         50.83	     7.810
  26.140         54.17	     8.062
  26.160         51.67	     7.874
  26.180         64.17	     8.775
  26.200         54.17	     8.062
  26.220         61.67	     8.602
  26.240         61.67	     8.602
  26.260         60.83	     8.544
  26.280         75.83	     9.539
  26.300         83.33	    10.000
  26.320         67.50	     9.000
  26.340         96.67	    10.770
  26.360         95.83	    10.724
  26.380        116.67	    11.832
  26.400        115.00	    11.747
  26.420        122.50	    12.124
  26.440        156.67	    13.711
  26.460        144.17	    13.153
  26.480        192.50	    15.199
  26.500        175.00	    14.491
  26.520        253.33	    17.436
  26.540        278.33	    18.276
  26.560        355.83	    20.664
  26.580        528.33	    25.179
  26.600        827.50	    31.512
  26.620       1360.00	    40.398
  26.640       1857.50	    47.212
  26.660       2461.67	    54.351
  26.680       3097.50	    60.967
  26.700       4005.00	    69.325
  26.720       5013.33	    77.563
  26.740       4909.17	    76.753
  26.760       3546.67	    65.238
  26.780       2892.50	    58.915
  26.800       2382.50	    53.470
  26.820       1662.50	    44.665
  26.840        982.50	    34.337
  26.860        560.00	    25.923
  26.880        400.00	    21.909
  26.900        332.50	    19.975
  26.920        280.83	    18.358
  26.940        296.67	    18.868
  26.960        297.50	    18.894
  26.980        250.83	    17.349
  27.000        300.00	    18.974
  27.020        263.33	    17.776
  27.040        216.67	    16.125
  27.060        228.33	    16.553
  27.080        243.33	    17.088
  27.100        270.00	    18.000
  27.120        427.50	    22.650
  27.140        644.17	    27.803
  27.160        657.50	    28.089
  27.180        439.17	    22.956
  27.200        430.00	    22.716
  27.220        389.17	    21.610
  27.240        290.83	    18.682
  27.260        165.00	    14.071
  27.280        119.17	    11.958
  27.300        189.17	    15.067
  27.320        126.67	    12.329
  27.340        145.00	    13.191
  27.360        132.50	    12.610
  27.380        123.33	    12.166
  27.400        113.33	    11.662
  27.420        117.50	    11.874
  27.440        120.00	    12.000
  27.460        141.67	    13.038
  27.480        132.50	    12.610
  27.500        116.67	    11.832
  27.520        137.50	    12.845
  27.540        150.83	    13.454
  27.560        187.50	    15.000
  27.580        175.00	    14.491
  27.600        157.50	    13.748
  27.620        175.83	    14.526
  27.640        132.50	    12.610
  27.660        132.50	    12.610
  27.680        128.33	    12.410
  27.700        131.67	    12.570
  27.720        187.50	    15.000
  27.740        199.17	    15.460
  27.760        162.50	    13.964
  27.780        186.67	    14.967
  27.800        176.67	    14.560
  27.820        207.50	    15.780
  27.840        179.17	    14.663
  27.860        205.00	    15.684
  27.880        199.17	    15.460
  27.900        238.33	    16.912
  27.920        342.50	    20.273
  27.940        447.50	    23.173
  27.960        746.67	    29.933
  27.980        713.33	    29.257
  28.000        575.00	    26.268
  28.020        473.33	    23.833
  28.040        538.33	    25.417
  28.060        380.00	    21.354
  28.080        230.83	    16.643
  28.100        208.33	    15.811
  28.120        163.33	    14.000
  28.140        141.67	    13.038
  28.160        157.50	    13.748
  28.180        153.33	    13.565
  28.200        169.17	    14.248
  28.220        231.67	    16.673
  28.240        295.83	    18.841
  28.260        251.67	    17.378
  28.280        185.00	    14.900
  28.300        215.00	    16.062
  28.320        242.50	    17.059
  28.340        185.83	    14.933
  28.360        162.50	    13.964
  28.380        134.17	    12.689
  28.400        138.33	    12.884
  28.420        119.17	    11.958
  28.440         95.00	    10.677
  28.460         87.50	    10.247
  28.480         81.67	     9.899
  28.500         80.83	     9.849
  28.520         80.83	     9.849
  28.540         59.17	     8.426
  28.560         61.67	     8.602
  28.580         78.33	     9.695
  28.600         65.00	     8.832
  28.620         58.33	     8.367
  28.640         55.00	     8.124
  28.660         68.33	     9.055
  28.680         63.33	     8.718
  28.700         73.33	     9.381
  28.720         69.17	     9.110
  28.740         55.00	     8.124
  28.760         69.17	     9.110
  28.780         46.67	     7.483
  28.800         39.17	     6.856
  28.820         54.17	     8.062
  28.840         38.33	     6.782
  28.860         44.17	     7.280
  28.880         51.67	     7.874
  28.900         23.33	     5.292
  28.920         44.17	     7.280
  28.940         37.50	     6.708
  28.960         38.33	     6.782
  28.980         30.00	     6.000
  29.000         30.00	     6.000
  29.020         27.50	     5.745
  29.040         39.17	     6.856
  29.060         30.00	     6.000
  29.080         35.00	     6.481
  29.100         43.33	     7.211
  29.120         46.67	     7.483
  29.140         35.83	     6.557
  29.160         42.50	     7.141
  29.180         30.00	     6.000
  29.200         35.00	     6.481
  29.220         30.83	     6.083
  29.240         35.83	     6.557
  29.260         45.83	     7.416
  29.280         32.50	     6.245
  29.300         32.50	     6.245
  29.320         28.33	     5.831
  29.340         32.50	     6.245
  29.360         38.33	     6.782
  29.380         39.17	     6.856
  29.400         35.83	     6.557
  29.420         30.83	     6.083
  29.440         34.17	     6.403
  29.460         32.50	     6.245
  29.480         44.17	     7.280
  29.500         43.33	     7.211
  29.520         35.83	     6.557
  29.540         32.50	     6.245
  29.560         34.17	     6.403
  29.580         43.33	     7.211
  29.600         39.17	     6.856
  29.620         35.00	     6.481
  29.640         33.33	     6.325
  29.660         30.83	     6.083
  29.680         52.50	     7.937
  29.700         32.50	     6.245
  29.720         43.33	     7.211
  29.740         46.67	     7.483
  29.760         27.50	     5.745
  29.780         52.50	     7.937
  29.800         50.83	     7.810
  29.820         55.83	     8.185
  29.840         44.17	     7.280
  29.860         70.00	     9.165
  29.880         80.83	     9.849
  29.900         95.83	    10.724
  29.920        102.50	    11.091
  29.940        102.50	    11.091
  29.960         97.50	    10.817
  29.980        108.33	    11.402
  30.000        101.67	    11.045
  30.020         74.17	     9.434
  30.040         70.00	     9.165
  30.060         55.00	     8.124
  30.080         55.83	     8.185
  30.100         59.17	     8.426
  30.120         54.17	     8.062
  30.140         40.83	     7.000
  30.160         53.33	     8.000
  30.180         70.83	     9.220
  30.200         70.83	     9.220
  30.220         84.17	    10.050
  30.240         93.33	    10.583
  30.260         91.67	    10.488
  30.280        113.33	    11.662
  30.300        113.33	    11.662
  30.320        146.67	    13.266
  30.340        132.50	    12.610
  30.360        110.83	    11.533
  30.380         85.83	    10.149
  30.400         86.67	    10.198
  30.420        109.17	    11.446
  30.440         59.17	     8.426
  30.460         71.67	     9.274
  30.480         90.00	    10.392
  30.500         78.33	     9.695
  30.520         90.83	    10.440
  30.540         80.00	     9.798
  30.560         80.83	     9.849
  30.580         83.33	    10.000
  30.600         70.83	     9.220
  30.620         80.83	     9.849
  30.640         54.17	     8.062
  30.660         55.00	     8.124
  30.680         69.17	     9.110
  30.700         50.83	     7.810
  30.720         47.50	     7.550
  30.740         36.67	     6.633
  30.760         42.50	     7.141
  30.780         41.67	     7.071
  30.800         45.83	     7.416
  30.820         50.83	     7.810
  30.840         60.00	     8.485
  30.860         48.33	     7.616
  30.880         54.17	     8.062
  30.900         76.67	     9.592
  30.920         85.83	    10.149
  30.940        105.83	    11.269
  30.960        108.33	    11.402
  30.980         67.50	     9.000
  31.000         55.83	     8.185
  31.020         65.00	     8.832
  31.040         67.50	     9.000
  31.060         60.00	     8.485
  31.080         42.50	     7.141
  31.100         39.17	     6.856
  31.120         33.33	     6.325
  31.140         49.17	     7.681
  31.160         45.00	     7.348
  31.180         47.50	     7.550
  31.200         58.33	     8.367
  31.220         50.83	     7.810
  31.240         60.83	     8.544
  31.260         79.17	     9.747
  31.280         96.67	    10.770
  31.300        103.33	    11.136
  31.320         88.33	    10.296
  31.340         88.33	    10.296
  31.360         87.50	    10.247
  31.380         90.00	    10.392
  31.400         65.00	     8.832
  31.420         65.83	     8.888
  31.440         52.50	     7.937
  31.460         44.17	     7.280
  31.480         45.83	     7.416
  31.500         45.83	     7.416
  31.520         53.33	     8.000
  31.540         35.83	     6.557
  31.560         41.67	     7.071
  31.580         46.67	     7.483
  31.600         40.00	     6.928
  31.620         41.67	     7.071
  31.640         43.33	     7.211
  31.660         37.50	     6.708
  31.680         39.17	     6.856
  31.700         41.67	     7.071
  31.720         28.33	     5.831
  31.740         44.17	     7.280
  31.760         30.00	     6.000
  31.780         20.83	     5.000
  31.800         40.83	     7.000
  31.820         23.33	     5.292
  31.840         31.67	     6.164
  31.860         34.17	     6.403
  31.880         32.50	     6.245
  31.900         38.33	     6.782
  31.920         37.50	     6.708
  31.940         55.83	     8.185
  31.960         35.83	     6.557
  31.980         44.17	     7.280
  32.000         50.83	     7.810
  32.020         42.50	     7.141
  32.040         53.33	     8.000
  32.060         52.50	     7.937
  32.080         58.33	     8.367
  32.100         64.17	     8.775
  32.120         82.50	     9.950
  32.140         82.50	     9.950
  32.160         75.83	     9.539
  32.180         61.67	     8.602
  32.200         60.83	     8.544
  32.220         50.00	     7.746
  32.240         46.67	     7.483
  32.260         37.50	     6.708
  32.280         45.00	     7.348
  32.300         45.83	     7.416
  32.320         45.83	     7.416
  32.340         45.00	     7.348
  32.360         45.83	     7.416
  32.380         39.17	     6.856
  32.400         35.83	     6.557
  32.420         32.50	     6.245
  32.440         25.00	     5.477
  32.460         30.83	     6.083
  32.480         28.33	     5.831
  32.500         30.83	     6.083
  32.520         23.33	     5.292
  32.540         23.33	     5.292
  32.560         26.67	     5.657
  32.580         16.67	     4.472
  32.600         29.17	     5.916
  32.620         37.50	     6.708
  32.640         51.67	     7.874
  32.660         50.00	     7.746
  32.680         33.33	     6.325
  32.700         36.67	     6.633
  32.720         35.00	     6.481
  32.740         40.00	     6.928
  32.760         23.33	     5.292
  32.780         24.17	     5.385
  32.800         30.83	     6.083
  32.820         21.67	     5.099
  32.840         27.50	     5.745
  32.860         22.50	     5.196
  32.880         21.67	     5.099
  32.900         23.33	     5.292
  32.920         34.17	     6.403
  32.940         33.33	     6.325
  32.960         24.17	     5.385
  32.980         28.33	     5.831
  33.000         37.50	     6.708
  33.020         38.33	     6.782
  33.040         35.00	     6.481
  33.060         35.83	     6.557
  33.080         30.00	     6.000
  33.100         50.83	     7.810
  33.120         39.17	     6.856
  33.140         36.67	     6.633
  33.160         40.00	     6.928
  33.180         36.67	     6.633
  33.200         32.50	     6.245
  33.220         35.00	     6.481
  33.240         39.17	     6.856
  33.260         25.83	     5.568
  33.280         24.17	     5.385
  33.300         30.00	     6.000
  33.320         30.00	     6.000
  33.340         35.00	     6.481
  33.360         25.00	     5.477
  33.380         24.17	     5.385
  33.400         34.17	     6.403
  33.420         32.50	     6.245
  33.440         32.50	     6.245
  33.460         28.33	     5.831
  33.480         38.33	     6.782
  33.500         25.00	     5.477
  33.520         30.83	     6.083
  33.540         24.17	     5.385
  33.560         22.50	     5.196
  33.580         37.50	     6.708
  33.600         28.33	     5.831
  33.620         30.00	     6.000
  33.640         35.83	     6.557
  33.660         36.67	     6.633
  33.680         30.00	     6.000
  33.700         23.33	     5.292
  33.720         30.83	     6.083
  33.740         29.17	     5.916
  33.760         26.67	     5.657
  33.780         27.50	     5.745
  33.800         29.17	     5.916
  33.820         31.67	     6.164
  33.840         40.83	     7.000
  33.860         26.67	     5.657
  33.880         33.33	     6.325
  33.900         45.00	     7.348
  33.920         59.17	     8.426
  33.940         68.33	     9.055
  33.960         65.00	     8.832
  33.980         70.00	     9.165
  34.000         64.17	     8.775
  34.020         74.17	     9.434
  34.040         60.00	     8.485
  34.060         52.50	     7.937
  34.080         52.50	     7.937
  34.100         60.83	     8.544
  34.120         69.17	     9.110
  34.140         42.50	     7.141
  34.160         40.83	     7.000
  34.180         40.83	     7.000
  34.200         48.33	     7.616
  34.220         54.17	     8.062
  34.240         60.83	     8.544
  34.260         44.17	     7.280
  34.280         55.83	     8.185
  34.300         48.33	     7.616
  34.320         46.67	     7.483
  34.340         43.33	     7.211
  34.360         43.33	     7.211
  34.380         50.83	     7.810
  34.400         40.83	     7.000
  34.420         46.67	     7.483
  34.440         43.33	     7.211
  34.460         37.50	     6.708
  34.480         54.17	     8.062
  34.500         58.33	     8.367
  34.520         82.50	     9.950
  34.540         59.17	     8.426
  34.560         81.67	     9.899
  34.580         67.50	     9.000
  34.600         80.83	     9.849
  34.620         74.17	     9.434
  34.640         88.33	    10.296
  34.660         85.00	    10.100
  34.680         71.67	     9.274
  34.700         67.50	     9.000
  34.720         60.00	     8.485
  34.740         55.83	     8.185
  34.760         50.00	     7.746
  34.780         73.33	     9.381
  34.800         72.50	     9.327
  34.820         80.83	     9.849
  34.840         64.17	     8.775
  34.860         75.83	     9.539
  34.880         83.33	    10.000
  34.900         90.83	    10.440
  34.920        101.67	    11.045
  34.940         97.50	    10.817
  34.960        106.67	    11.314
  34.980        100.00	    10.954
  35.000        107.50	    11.358
  35.020        107.50	    11.358
  35.040        128.33	    12.410
  35.060        130.83	    12.530
  35.080        148.33	    13.342
  35.100        122.50	    12.124
  35.120        162.50	    13.964
  35.140        160.83	    13.892
  35.160        165.00	    14.071
  35.180        145.00	    13.191
  35.200        121.67	    12.083
  35.220         97.50	    10.817
  35.240        103.33	    11.136
  35.260        108.33	    11.402
  35.280         88.33	    10.296
  35.300         68.33	     9.055
  35.320         74.17	     9.434
  35.340         60.00	     8.485
  35.360         63.33	     8.718
  35.380         61.67	     8.602
  35.400         60.83	     8.544
  35.420         80.00	     9.798
  35.440         50.00	     7.746
  35.460         53.33	     8.000
  35.480         56.67	     8.246
  35.500         65.83	     8.888
  35.520         57.50	     8.307
  35.540         80.00	     9.798
  35.560         84.17	    10.050
  35.580         81.67	     9.899
  35.600         84.17	    10.050
  35.620         95.83	    10.724
  35.640         87.50	    10.247
  35.660         80.83	     9.849
  35.680         85.00	    10.100
  35.700         70.83	     9.220
  35.720         70.00	     9.165
  35.740         49.17	     7.681
  35.760         57.50	     8.307
  35.780         43.33	     7.211
  35.800         58.33	     8.367
  35.820         48.33	     7.616
  35.840         41.67	     7.071
  35.860         35.83	     6.557
  35.880         43.33	     7.211
  35.900         44.17	     7.280
  35.920         44.17	     7.280
  35.940         40.83	     7.000
  35.960         45.83	     7.416
  35.980         35.83	     6.557
  36.000         44.17	     7.280
  36.020         40.00	     6.928
  36.040         50.83	     7.810
  36.060         53.33	     8.000
  36.080         43.33	     7.211
  36.100         52.50	     7.937
  36.120         55.00	     8.124
  36.140         45.83	     7.416
  36.160         50.00	     7.746
  36.180         42.50	     7.141
  36.200         45.83	     7.416
  36.220         58.33	     8.367
  36.240         60.00	     8.485
  36.260         52.50	     7.937
  36.280         38.33	     6.782
  36.300         30.83	     6.083
  36.320         44.17	     7.280
  36.340         41.67	     7.071
  36.360         47.50	     7.550
  36.380         55.00	     8.124
  36.400         45.83	     7.416
  36.420         55.00	     8.124
  36.440         75.83	     9.539
  36.460         57.50	     8.307
  36.480         62.50	     8.660
  36.500         78.33	     9.695
  36.520         98.33	    10.863
  36.540        159.17	    13.820
  36.560        239.17	    16.941
  36.580        217.50	    16.155
  36.600        233.33	    16.733
  36.620        216.67	    16.125
  36.640        209.17	    15.843
  36.660        183.33	    14.832
  36.680        175.00	    14.491
  36.700        155.00	    13.638
  36.720        145.83	    13.229
  36.740        115.00	    11.747
  36.760        100.00	    10.954
  36.780         75.83	     9.539
  36.800         62.50	     8.660
  36.820         65.83	     8.888
  36.840         65.00	     8.832
  36.860         51.67	     7.874
  36.880         44.17	     7.280
  36.900         60.00	     8.485
  36.920         42.50	     7.141
  36.940         31.67	     6.164
  36.960         37.50	     6.708
  36.980         42.50	     7.141
  37.000         55.00	     8.124
  37.020         50.00	     7.746
  37.040         47.50	     7.550
  37.060         44.17	     7.280
  37.080         57.50	     8.307
  37.100         47.50	     7.550
  37.120         55.83	     8.185
  37.140         47.50	     7.550
  37.160         38.33	     6.782
  37.180         42.50	     7.141
  37.200         51.67	     7.874
  37.220         40.00	     6.928
  37.240         40.83	     7.000
  37.260         49.17	     7.681
  37.280         35.00	     6.481
  37.300         38.33	     6.782
  37.320         50.83	     7.810
  37.340         55.00	     8.124
  37.360         43.33	     7.211
  37.380         62.50	     8.660
  37.400         69.17	     9.110
  37.420         75.83	     9.539
  37.440         76.67	     9.592
  37.460         82.50	     9.950
  37.480         99.17	    10.909
  37.500         86.67	    10.198
  37.520         90.00	    10.392
  37.540         81.67	     9.899
  37.560         71.67	     9.274
  37.580        100.00	    10.954
  37.600        106.67	    11.314
  37.620        106.67	    11.314
  37.640        103.33	    11.136
  37.660         89.17	    10.344
  37.680         74.17	     9.434
  37.700         84.17	    10.050
  37.720         85.83	    10.149
  37.740         95.00	    10.677
  37.760         79.17	     9.747
  37.780         85.83	    10.149
  37.800         76.67	     9.592
  37.820         88.33	    10.296
  37.840         66.67	     8.944
  37.860         78.33	     9.695
  37.880         57.50	     8.307
  37.900         65.00	     8.832
  37.920         52.50	     7.937
  37.940         52.50	     7.937
  37.960         71.67	     9.274
  37.980         71.67	     9.274
  38.000         76.67	     9.592
  38.020         89.17	    10.344
  38.040         96.67	    10.770
  38.060        125.83	    12.288
  38.080        173.33	    14.422
  38.100        219.17	    16.217
  38.120        227.50	    16.523
  38.140        324.17	    19.723
  38.160        325.00	    19.748
  38.180        303.33	    19.079
  38.200        256.67	    17.550
  38.220        240.83	    17.000
  38.240        213.33	    16.000
  38.260        202.50	    15.588
  38.280        165.00	    14.071
  38.300        110.83	    11.533
  38.320         92.50	    10.536
  38.340         88.33	    10.296
  38.360         51.67	     7.874
  38.380         37.50	     6.708
  38.400         51.67	     7.874
  38.420         41.67	     7.071
  38.440         31.67	     6.164
  38.460         25.00	     5.477
  38.480         46.67	     7.483
  38.500         30.00	     6.000
  38.520         35.00	     6.481
  38.540         35.00	     6.481
  38.560         37.50	     6.708
  38.580         45.83	     7.416
  38.600         32.50	     6.245
  38.620         40.83	     7.000
  38.640         37.50	     6.708
  38.660         35.83	     6.557
  38.680         35.83	     6.557
  38.700         40.00	     6.928
  38.720         30.83	     6.083
  38.740         30.00	     6.000
  38.760         39.17	     6.856
  38.780         31.67	     6.164
  38.800         44.17	     7.280
  38.820         57.50	     8.307
  38.840         82.50	     9.950
  38.860         80.83	     9.849
  38.880         74.17	     9.434
  38.900         82.50	     9.950
  38.920         64.17	     8.775
  38.940         74.17	     9.434
  38.960         56.67	     8.246
  38.980         50.00	     7.746
  39.000         44.17	     7.280
  39.020         46.67	     7.483
  39.040         40.83	     7.000
  39.060         39.17	     6.856
  39.080         36.67	     6.633
  39.100         38.33	     6.782
  39.120         33.33	     6.325
  39.140         28.33	     5.831
  39.160         32.50	     6.245
  39.180         42.50	     7.141
  39.200         30.00	     6.000
  39.220         34.17	     6.403
  39.240         38.33	     6.782
  39.260         48.33	     7.616
  39.280         30.00	     6.000
  39.300         31.67	     6.164
  39.320         38.33	     6.782
  39.340         35.83	     6.557
  39.360         50.83	     7.810
  39.380         37.50	     6.708
  39.400         47.50	     7.550
  39.420         60.00	     8.485
  39.440         70.83	     9.220
  39.460         95.83	    10.724
  39.480        162.50	    13.964
  39.500        186.67	    14.967
  39.520        232.50	    16.703
  39.540        275.83	    18.193
  39.560        260.00	    17.664
  39.580        204.17	    15.652
  39.600        224.17	    16.401
  39.620        203.33	    15.620
  39.640        163.33	    14.000
  39.660        164.17	    14.036
  39.680        137.50	    12.845
  39.700        118.33	    11.916
  39.720         96.67	    10.770
  39.740         50.00	     7.746
  39.760         67.50	     9.000
  39.780         69.17	     9.110
  39.800         54.17	     8.062
  39.820         60.83	     8.544
  39.840         40.00	     6.928
  39.860         37.50	     6.708
  39.880         45.00	     7.348
  39.900         44.17	     7.280
  39.920         37.50	     6.708
  39.940         42.50	     7.141
  39.960         32.50	     6.245
  39.980         38.33	     6.782
  40.000         53.33	     8.000
  40.020         38.33	     6.782
  40.040         35.00	     6.481
  40.060         41.67	     7.071
  40.080         35.83	     6.557
  40.100         45.00	     7.348
  40.120         48.33	     7.616
  40.140         40.83	     7.000
  40.160         44.17	     7.280
  40.180         41.67	     7.071
  40.200         54.17	     8.062
  40.220         30.00	     6.000
  40.240         45.00	     7.348
  40.260         55.83	     8.185
  40.280         50.00	     7.746
  40.300         85.00	    10.100
  40.320        109.17	    11.446
  40.340        117.50	    11.874
  40.360        116.67	    11.832
  40.380        102.50	    11.091
  40.400         86.67	    10.198
  40.420        104.17	    11.180
  40.440         71.67	     9.274
  40.460         88.33	    10.296
  40.480         58.33	     8.367
  40.500         55.83	     8.185
  40.520         51.67	     7.874
  40.540         35.83	     6.557
  40.560         38.33	     6.782
  40.580         35.00	     6.481
  40.600         26.67	     5.657
  40.620         31.67	     6.164
  40.640         34.17	     6.403
  40.660         27.50	     5.745
  40.680         37.50	     6.708
  40.700         30.00	     6.000
  40.720         29.17	     5.916
  40.740         40.83	     7.000
  40.760         26.67	     5.657
  40.780         29.17	     5.916
  40.800         26.67	     5.657
  40.820         30.83	     6.083
  40.840         34.17	     6.403
  40.860         34.17	     6.403
  40.880         33.33	     6.325
  40.900         35.00	     6.481
  40.920         32.50	     6.245
  40.940         38.33	     6.782
  40.960         25.00	     5.477
  40.980         30.83	     6.083
  41.000         40.00	     6.928
  41.020         25.00	     5.477
  41.040         33.33	     6.325
  41.060         35.00	     6.481
  41.080         32.50	     6.245
  41.100         30.83	     6.083
  41.120         37.50	     6.708
  41.140         30.00	     6.000
  41.160         42.50	     7.141
  41.180         36.67	     6.633
  41.200         34.17	     6.403
  41.220         38.33	     6.782
  41.240         40.00	     6.928
  41.260         32.50	     6.245
  41.280         45.00	     7.348
  41.300         29.17	     5.916
  41.320         41.67	     7.071
  41.340         39.17	     6.856
  41.360         46.67	     7.483
  41.380         30.00	     6.000
  41.400         27.50	     5.745
  41.420         32.50	     6.245
  41.440         34.17	     6.403
  41.460         34.17	     6.403
  41.480         23.33	     5.292
  41.500         24.17	     5.385
  41.520         30.00	     6.000
  41.540         34.17	     6.403
  41.560         30.83	     6.083
  41.580         45.00	     7.348
  41.600         34.17	     6.403
  41.620         35.83	     6.557
  41.640         25.83	     5.568
  41.660         33.33	     6.325
  41.680         41.67	     7.071
  41.700         46.67	     7.483
  41.720         64.17	     8.775
  41.740         76.67	     9.592
  41.760         72.50	     9.327
  41.780         67.50	     9.000
  41.800         70.00	     9.165
  41.820         57.50	     8.307
  41.840         65.83	     8.888
  41.860         72.50	     9.327
  41.880         56.67	     8.246
  41.900         62.50	     8.660
  41.920         40.83	     7.000
  41.940         45.83	     7.416
  41.960         33.33	     6.325
  41.980         44.17	     7.280
  42.000         41.67	     7.071
  42.020         33.33	     6.325
  42.040         40.83	     7.000
  42.060         39.17	     6.856
  42.080         42.50	     7.141
  42.100         52.50	     7.937
  42.120         35.83	     6.557
  42.140         38.33	     6.782
  42.160         40.00	     6.928
  42.180         49.17	     7.681
  42.200         41.67	     7.071
  42.220         34.17	     6.403
  42.240         33.33	     6.325
  42.260         37.50	     6.708
  42.280         38.33	     6.782
  42.300         51.67	     7.874
  42.320         48.33	     7.616
  42.340         48.33	     7.616
  42.360         59.17	     8.426
  42.380         68.33	     9.055
  42.400         53.33	     8.000
  42.420         79.17	     9.747
  42.440         83.33	    10.000
  42.460        147.50	    13.304
  42.480        200.00	    15.492
  42.500        188.33	    15.033
  42.520        185.83	    14.933
  42.540        202.50	    15.588
  42.560        212.50	    15.969
  42.580        217.50	    16.155
  42.600        196.67	    15.362
  42.620        136.67	    12.806
  42.640        137.50	    12.845
  42.660        115.00	    11.747
  42.680        125.83	    12.288
  42.700        114.17	    11.705
  42.720         88.33	    10.296
  42.740         71.67	     9.274
  42.760         66.67	     8.944
  42.780         71.67	     9.274
  42.800         58.33	     8.367
  42.820         55.83	     8.185
  42.840         59.17	     8.426
  42.860         52.50	     7.937
  42.880         59.17	     8.426
  42.900         40.83	     7.000
  42.920         58.33	     8.367
  42.940         48.33	     7.616
  42.960         38.33	     6.782
  42.980         30.83	     6.083
  43.000         24.17	     5.385
  43.020         35.00	     6.481
  43.040         26.67	     5.657
  43.060         32.50	     6.245
  43.080         28.33	     5.831
  43.100         30.00	     6.000
  43.120         36.67	     6.633
  43.140         25.83	     5.568
  43.160         18.33	     4.690
  43.180         20.83	     5.000
  43.200         30.83	     6.083
  43.220         29.17	     5.916
  43.240         28.33	     5.831
  43.260         27.50	     5.745
  43.280         35.00	     6.481
  43.300         35.83	     6.557
  43.320         32.50	     6.245
  43.340         30.00	     6.000
  43.360         30.83	     6.083
  43.380         22.50	     5.196
  43.400         24.17	     5.385
  43.420         23.33	     5.292
  43.440         25.83	     5.568
  43.460         30.00	     6.000
  43.480         29.17	     5.916
  43.500         23.33	     5.292
  43.520         35.83	     6.557
  43.540         32.50	     6.245
  43.560         41.67	     7.071
  43.580         48.33	     7.616
  43.600         59.17	     8.426
  43.620         76.67	     9.592
  43.640         61.67	     8.602
  43.660         55.83	     8.185
  43.680         42.50	     7.141
  43.700         52.50	     7.937
  43.720         53.33	     8.000
  43.740         60.83	     8.544
  43.760         45.83	     7.416
  43.780         41.67	     7.071
  43.800         31.67	     6.164
  43.820         28.33	     5.831
  43.840         44.17	     7.280
  43.860         40.00	     6.928
  43.880         44.17	     7.280
  43.900         29.17	     5.916
  43.920         33.33	     6.325
  43.940         40.00	     6.928
  43.960         35.83	     6.557
  43.980         40.00	     6.928
  44.000         57.50	     8.307
  44.020         44.17	     7.280
  44.040         37.50	     6.708
  44.060         45.83	     7.416
  44.080         45.83	     7.416
  44.100         36.67	     6.633
  44.120         50.83	     7.810
  44.140         60.83	     8.544
  44.160         67.50	     9.000
  44.180         88.33	    10.296
  44.200         89.17	    10.344
  44.220         87.50	    10.247
  44.240        110.83	    11.533
  44.260        125.00	    12.247
  44.280        155.83	    13.675
  44.300        168.33	    14.213
  44.320        176.67	    14.560
  44.340        195.83	    15.330
  44.360        190.00	    15.100
  44.380        153.33	    13.565
  44.400        164.17	    14.036
  44.420        144.17	    13.153
  44.440        140.83	    13.000
  44.460        117.50	    11.874
  44.480        107.50	    11.358
  44.500        100.83	    11.000
  44.520         92.50	    10.536
  44.540         74.17	     9.434
  44.560         60.00	     8.485
  44.580         56.67	     8.246
  44.600         50.83	     7.810
  44.620         49.17	     7.681
  44.640         39.17	     6.856
  44.660         34.17	     6.403
  44.680         37.50	     6.708
  44.700         50.00	     7.746
  44.720         40.83	     7.000
  44.740         32.50	     6.245
  44.760         33.33	     6.325
  44.780         26.67	     5.657
  44.800         39.17	     6.856
  44.820         32.50	     6.245
  44.840         32.50	     6.245
  44.860         42.50	     7.141
  44.880         35.00	     6.481
  44.900         42.50	     7.141
  44.920         39.17	     6.856
  44.940         32.50	     6.245
  44.960         35.00	     6.481
  44.980         40.83	     7.000
  45.000         33.33	     6.325
  45.020         47.50	     7.550
  45.040         43.33	     7.211
  45.060         46.67	     7.483
  45.080         45.00	     7.348
  45.100         42.50	     7.141
  45.120         48.33	     7.616
  45.140         34.17	     6.403
  45.160         39.17	     6.856
  45.180         46.67	     7.483
  45.200         37.50	     6.708
  45.220         33.33	     6.325
  45.240         36.67	     6.633
  45.260         49.17	     7.681
  45.280         38.33	     6.782
  45.300         48.33	     7.616
  45.320         43.33	     7.211
  45.340         38.33	     6.782
  45.360         40.00	     6.928
  45.380         51.67	     7.874
  45.400         49.17	     7.681
  45.420         53.33	     8.000
  45.440         58.33	     8.367
  45.460         58.33	     8.367
  45.480         68.33	     9.055
  45.500         95.83	    10.724
  45.520         93.33	    10.583
  45.540         82.50	     9.950
  45.560         87.50	    10.247
  45.580         95.00	    10.677
  45.600         90.00	    10.392
  45.620         99.17	    10.909
  45.640         94.17	    10.630
  45.660         89.17	    10.344
  45.680        115.00	    11.747
  45.700        139.17	    12.923
  45.720        155.83	    13.675
  45.740        122.50	    12.124
  45.760        128.33	    12.410
  45.780         92.50	    10.536
  45.800        126.67	    12.329
  45.820        167.50	    14.177
  45.840        189.17	    15.067
  45.860        163.33	    14.000
  45.880        143.33	    13.115
  45.900        128.33	    12.410
  45.920        101.67	    11.045
  45.940        108.33	    11.402
  45.960         90.00	    10.392
  45.980        100.83	    11.000
  46.000        115.00	    11.747
  46.020        119.17	    11.958
  46.040        100.00	    10.954
  46.060         76.67	     9.592
  46.080         56.67	     8.246
  46.100         48.33	     7.616
  46.120         51.67	     7.874
  46.140         53.33	     8.000
  46.160         55.83	     8.185
  46.180         54.17	     8.062
  46.200         38.33	     6.782
  46.220         41.67	     7.071
  46.240         30.00	     6.000
  46.260         33.33	     6.325
  46.280         42.50	     7.141
  46.300         29.17	     5.916
  46.320         26.67	     5.657
  46.340         20.00	     4.899
  46.360         30.83	     6.083
  46.380         32.50	     6.245
  46.400         29.17	     5.916
  46.420         26.67	     5.657
  46.440         23.33	     5.292
  46.460         20.00	     4.899
  46.480         25.83	     5.568
  46.500         26.67	     5.657
  46.520         30.83	     6.083
  46.540         25.00	     5.477
  46.560         25.83	     5.568
  46.580         28.33	     5.831
  46.600         16.67	     4.472
  46.620         20.83	     5.000
  46.640         33.33	     6.325
  46.660         27.50	     5.745
  46.680         25.00	     5.477
  46.700         17.50	     4.583
  46.720         26.67	     5.657
  46.740         19.17	     4.796
  46.760         22.50	     5.196
  46.780         22.50	     5.196
  46.800         29.17	     5.916
  46.820         28.33	     5.831
  46.840         18.33	     4.690
  46.860         26.67	     5.657
  46.880         23.33	     5.292
  46.900         20.00	     4.899
  46.920         20.83	     5.000
  46.940         22.50	     5.196
  46.960         29.17	     5.916
  46.980         27.50	     5.745
  47.000         20.83	     5.000
  47.020         22.50	     5.196
  47.040         37.50	     6.708
  47.060         38.33	     6.782
  47.080         40.83	     7.000
  47.100         36.67	     6.633
  47.120         47.50	     7.550
  47.140         44.17	     7.280
  47.160         43.33	     7.211
  47.180         35.83	     6.557
  47.200         36.67	     6.633
  47.220         42.50	     7.141
  47.240         37.50	     6.708
  47.260         44.17	     7.280
  47.280         40.00	     6.928
  47.300         23.33	     5.292
  47.320         26.67	     5.657
  47.340         30.83	     6.083
  47.360         28.33	     5.831
  47.380         21.67	     5.099
  47.400         36.67	     6.633
  47.420         28.33	     5.831
  47.440         25.00	     5.477
  47.460         20.00	     4.899
  47.480         20.83	     5.000
  47.500         20.83	     5.000
  47.520         29.17	     5.916
  47.540         22.50	     5.196
  47.560         42.50	     7.141
  47.580         36.67	     6.633
  47.600         35.83	     6.557
  47.620         30.00	     6.000
  47.640         26.67	     5.657
  47.660         30.00	     6.000
  47.680         27.50	     5.745
  47.700         31.67	     6.164
  47.720         26.67	     5.657
  47.740         25.00	     5.477
  47.760         15.00	     4.243
  47.780         16.67	     4.472
  47.800         23.33	     5.292
  47.820         17.50	     4.583
  47.840         25.83	     5.568
  47.860         31.67	     6.164
  47.880         34.17	     6.403
  47.900         33.33	     6.325
  47.920         25.83	     5.568
  47.940         39.17	     6.856
  47.960         27.50	     5.745
  47.980         35.00	     6.481
  48.000         40.83	     7.000
  48.020         50.00	     7.746
  48.040         46.67	     7.483
  48.060         55.00	     8.124
  48.080         44.17	     7.280
  48.100         30.00	     6.000
  48.120         40.83	     7.000
  48.140         40.00	     6.928
  48.160         50.00	     7.746
  48.180         52.50	     7.937
  48.200         51.67	     7.874
  48.220         47.50	     7.550
  48.240         40.00	     6.928
  48.260         30.83	     6.083
  48.280         46.67	     7.483
  48.300         51.67	     7.874
  48.320         58.33	     8.367
  48.340         48.33	     7.616
  48.360         39.17	     6.856
  48.380         51.67	     7.874
  48.400         42.50	     7.141
  48.420         38.33	     6.782
  48.440         36.67	     6.633
  48.460         36.67	     6.633
  48.480         37.50	     6.708
  48.500         40.83	     7.000
  48.520         49.17	     7.681
  48.540         45.00	     7.348
  48.560         33.33	     6.325
  48.580         40.00	     6.928
  48.600         62.50	     8.660
  48.620         84.17	    10.050
  48.640        118.33	    11.916
  48.660        136.67	    12.806
  48.680         98.33	    10.863
  48.700         66.67	     8.944
  48.720         48.33	     7.616
  48.740         45.00	     7.348
  48.760         75.83	     9.539
  48.780         67.50	     9.000
  48.800         72.50	     9.327
  48.820         45.83	     7.416
  48.840         41.67	     7.071
  48.860         35.00	     6.481
  48.880         29.17	     5.916
  48.900         30.83	     6.083
  48.920         39.17	     6.856
  48.940         34.17	     6.403
  48.960         23.33	     5.292
  48.980         26.67	     5.657
  49.000         33.33	     6.325
  49.020         21.67	     5.099
  49.040         28.33	     5.831
  49.060         24.17	     5.385
  49.080         27.50	     5.745
  49.100         27.50	     5.745
  49.120         24.17	     5.385
  49.140         30.00	     6.000
  49.160         30.00	     6.000
  49.180         24.17	     5.385
  49.200         34.17	     6.403
  49.220         43.33	     7.211
  49.240         37.50	     6.708
  49.260         35.83	     6.557
  49.280         37.50	     6.708
  49.300         40.00	     6.928
  49.320         42.50	     7.141
  49.340         45.00	     7.348
  49.360         40.83	     7.000
  49.380         55.83	     8.185
  49.400         42.50	     7.141
  49.420         34.17	     6.403
  49.440         33.33	     6.325
  49.460         35.00	     6.481
  49.480         41.67	     7.071
  49.500         53.33	     8.000
  49.520         36.67	     6.633
  49.540         36.67	     6.633
  49.560         36.67	     6.633
  49.580         34.17	     6.403
  49.600         40.83	     7.000
  49.620         33.33	     6.325
  49.640         37.50	     6.708
  49.660         28.33	     5.831
  49.680         32.50	     6.245
  49.700         25.83	     5.568
  49.720         39.17	     6.856
  49.740         44.17	     7.280
  49.760         30.00	     6.000
  49.780         36.67	     6.633
  49.800         44.17	     7.280
  49.820         37.50	     6.708
  49.840         45.00	     7.348
  49.860         62.50	     8.660
  49.880         64.17	     8.775
  49.900         69.17	     9.110
  49.920         58.33	     8.367
  49.940         58.33	     8.367
  49.960         60.00	     8.485
  49.980         60.83	     8.544
  50.000         78.33	     9.695
  50.020         65.83	     8.888
  50.040         83.33	    10.000
  50.060         72.50	     9.327
  50.080         78.33	     9.695
  50.100        102.50	    11.091
  50.120        155.83	    13.675
  50.140        245.00	    17.146
  50.160        395.83	    21.794
  50.180        485.00	    24.125
  50.200        505.00	    24.617
  50.220        559.17	    25.904
  50.240        720.00	    29.394
  50.260        832.50	    31.607
  50.280        773.33	    30.463
  50.300        577.50	    26.325
  50.320        397.50	    21.840
  50.340        320.00	    19.596
  50.360        326.67	    19.799
  50.380        396.67	    21.817
  50.400        408.33	    22.136
  50.420        367.50	    21.000
  50.440        195.00	    15.297
  50.460        100.00	    10.954
  50.480         66.67	     8.944
  50.500         49.17	     7.681
  50.520         59.17	     8.426
  50.540         52.50	     7.937
  50.560         37.50	     6.708
  50.580         51.67	     7.874
  50.600         71.67	     9.274
  50.620         53.33	     8.000
  50.640         43.33	     7.211
  50.660         45.83	     7.416
  50.680         54.17	     8.062
  50.700         45.83	     7.416
  50.720         45.00	     7.348
  50.740         43.33	     7.211
  50.760         46.67	     7.483
  50.780         45.00	     7.348
  50.800         62.50	     8.660
  50.820         60.00	     8.485
  50.840         35.83	     6.557
  50.860         36.67	     6.633
  50.880         38.33	     6.782
  50.900         34.17	     6.403
  50.920         36.67	     6.633
  50.940         41.67	     7.071
  50.960         34.17	     6.403
  50.980         30.83	     6.083
  51.000         35.00	     6.481
  51.020         33.33	     6.325
  51.040         22.50	     5.196
  51.060         19.17	     4.796
  51.080         31.67	     6.164
  51.100         26.67	     5.657
  51.120         56.67	     8.246
  51.140         70.00	     9.165
  51.160         57.50	     8.307
  51.180         40.83	     7.000
  51.200         40.00	     6.928
  51.220         43.33	     7.211
  51.240         40.83	     7.000
  51.260         55.00	     8.124
  51.280         64.17	     8.775
  51.300         45.83	     7.416
  51.320         29.17	     5.916
  51.340         42.50	     7.141
  51.360         41.67	     7.071
  51.380         40.83	     7.000
  51.400         32.50	     6.245
  51.420         31.67	     6.164
  51.440         35.83	     6.557
  51.460         30.00	     6.000
  51.480         26.67	     5.657
  51.500         37.50	     6.708
  51.520         21.67	     5.099
  51.540         23.33	     5.292
  51.560         29.17	     5.916
  51.580         30.00	     6.000
  51.600         23.33	     5.292
  51.620         19.17	     4.796
  51.640         22.50	     5.196
  51.660         25.83	     5.568
  51.680         24.17	     5.385
  51.700         25.00	     5.477
  51.720         44.17	     7.280
  51.740         31.67	     6.164
  51.760         35.00	     6.481
  51.780         33.33	     6.325
  51.800         56.67	     8.246
  51.820         48.33	     7.616
  51.840         33.33	     6.325
  51.860         47.50	     7.550
  51.880         43.33	     7.211
  51.900         49.17	     7.681
  51.920         46.67	     7.483
  51.940         40.83	     7.000
  51.960         64.17	     8.775
  51.980         53.33	     8.000
  52.000         34.17	     6.403
  52.020         41.67	     7.071
  52.040         30.83	     6.083
  52.060         48.33	     7.616
  52.080         41.67	     7.071
  52.100         39.17	     6.856
  52.120         37.50	     6.708
  52.140         39.17	     6.856
  52.160         39.17	     6.856
  52.180         46.67	     7.483
  52.200         38.33	     6.782
  52.220         40.00	     6.928
  52.240         28.33	     5.831
  52.260         45.00	     7.348
  52.280         35.83	     6.557
  52.300         41.67	     7.071
  52.320         43.33	     7.211
  52.340         31.67	     6.164
  52.360         34.17	     6.403
  52.380         35.00	     6.481
  52.400         35.00	     6.481
  52.420         29.17	     5.916
  52.440         42.50	     7.141
  52.460         28.33	     5.831
  52.480         44.17	     7.280
  52.500         31.67	     6.164
  52.520         29.17	     5.916
  52.540         35.00	     6.481
  52.560         27.50	     5.745
  52.580         46.67	     7.483
  52.600         37.50	     6.708
  52.620         35.83	     6.557
  52.640         35.83	     6.557
  52.660         39.17	     6.856
  52.680         35.00	     6.481
  52.700         34.17	     6.403
  52.720         26.67	     5.657
  52.740         32.50	     6.245
  52.760         36.67	     6.633
  52.780         38.33	     6.782
  52.800         36.67	     6.633
  52.820         29.17	     5.916
  52.840         28.33	     5.831
  52.860         30.00	     6.000
  52.880         38.33	     6.782
  52.900         26.67	     5.657
  52.920         35.83	     6.557
  52.940         45.00	     7.348
  52.960         48.33	     7.616
  52.980         35.00	     6.481
  53.000         30.00	     6.000
  53.020         41.67	     7.071
  53.040         53.33	     8.000
  53.060         56.67	     8.246
  53.080         58.33	     8.367
  53.100         39.17	     6.856
  53.120         45.83	     7.416
  53.140         50.83	     7.810
  53.160         37.50	     6.708
  53.180         50.83	     7.810
  53.200         49.17	     7.681
  53.220         46.67	     7.483
  53.240         29.17	     5.916
  53.260         55.00	     8.124
  53.280         45.00	     7.348
  53.300         40.83	     7.000
  53.320         30.00	     6.000
  53.340         40.00	     6.928
  53.360         45.83	     7.416
  53.380         30.00	     6.000
  53.400         32.50	     6.245
  53.420         26.67	     5.657
  53.440         30.83	     6.083
  53.460         24.17	     5.385
  53.480         34.17	     6.403
  53.500         21.67	     5.099
  53.520         31.67	     6.164
  53.540         25.83	     5.568
  53.560         34.17	     6.403
  53.580         25.83	     5.568
  53.600         26.67	     5.657
  53.620         31.67	     6.164
  53.640         34.17	     6.403
  53.660         29.17	     5.916
  53.680         17.50	     4.583
  53.700         22.50	     5.196
  53.720         25.00	     5.477
  53.740         25.00	     5.477
  53.760         30.83	     6.083
  53.780         36.67	     6.633
  53.800         23.33	     5.292
  53.820         28.33	     5.831
  53.840         25.83	     5.568
  53.860         31.67	     6.164
  53.880         26.67	     5.657
  53.900         30.00	     6.000
  53.920         41.67	     7.071
  53.940         34.17	     6.403
  53.960         26.67	     5.657
  53.980         25.83	     5.568
  54.000         26.67	     5.657
  54.020         24.17	     5.385
  54.040         32.50	     6.245
  54.060         35.83	     6.557
  54.080         29.17	     5.916
  54.100         21.67	     5.099
  54.120         25.00	     5.477
  54.140         29.17	     5.916
  54.160         29.17	     5.916
  54.180         28.33	     5.831
  54.200         24.17	     5.385
  54.220         26.67	     5.657
  54.240         20.00	     4.899
  54.260         23.33	     5.292
  54.280         23.33	     5.292
  54.300         24.17	     5.385
  54.320         26.67	     5.657
  54.340         29.17	     5.916
  54.360         22.50	     5.196
  54.380         25.00	     5.477
  54.400         25.83	     5.568
  54.420         30.83	     6.083
  54.440         29.17	     5.916
  54.460         32.50	     6.245
  54.480         29.17	     5.916
  54.500         36.67	     6.633
  54.520         30.00	     6.000
  54.540         35.00	     6.481
  54.560         39.17	     6.856
  54.580         36.67	     6.633
  54.600         20.00	     4.899
  54.620         32.50	     6.245
  54.640         29.17	     5.916
  54.660         36.67	     6.633
  54.680         27.50	     5.745
  54.700         30.00	     6.000
  54.720         37.50	     6.708
  54.740         36.67	     6.633
  54.760         34.17	     6.403
  54.780         43.33	     7.211
  54.800         39.17	     6.856
  54.820         32.50	     6.245
  54.840         43.33	     7.211
  54.860         66.67	     8.944
  54.880         88.33	    10.296
  54.900        127.50	    12.369
  54.920        164.17	    14.036
  54.940        186.67	    14.967
  54.960        133.33	    12.649
  54.980        123.33	    12.166
  55.000         91.67	    10.488
  55.020         85.00	    10.100
  55.040         87.50	    10.247
  55.060         96.67	    10.770
  55.080        110.83	    11.533
  55.100         83.33	    10.000
  55.120         82.50	     9.950
  55.140         70.00	     9.165
  55.160         40.00	     6.928
  55.180         45.00	     7.348
  55.200         37.50	     6.708
  55.220         36.67	     6.633
  55.240         37.50	     6.708
  55.260         44.17	     7.280
  55.280         30.00	     6.000
  55.300         47.50	     7.550
  55.320         51.67	     7.874
  55.340         54.17	     8.062
  55.360         55.00	     8.124
  55.380         50.00	     7.746
  55.400         46.67	     7.483
  55.420         57.50	     8.307
  55.440         47.50	     7.550
  55.460         43.33	     7.211
  55.480         38.33	     6.782
  55.500         46.67	     7.483
  55.520         34.17	     6.403
  55.540         37.50	     6.708
  55.560         46.67	     7.483
  55.580         39.17	     6.856
  55.600         29.17	     5.916
  55.620         41.67	     7.071
  55.640         41.67	     7.071
  55.660         39.17	     6.856
  55.680         35.00	     6.481
  55.700         25.00	     5.477
  55.720         32.50	     6.245
  55.740         26.67	     5.657
  55.760         47.50	     7.550
  55.780         40.83	     7.000
  55.800         42.50	     7.141
  55.820         40.83	     7.000
  55.840         55.00	     8.124
  55.860         36.67	     6.633
  55.880         39.17	     6.856
  55.900         44.17	     7.280
  55.920         48.33	     7.616
  55.940         47.50	     7.550
  55.960         31.67	     6.164
  55.980         34.17	     6.403
  56.000         40.83	     7.000
  56.020         44.17	     7.280
  56.040         30.00	     6.000
  56.060         30.83	     6.083
  56.080         29.17	     5.916
  56.100         35.00	     6.481
  56.120         32.50	     6.245
  56.140         39.17	     6.856
  56.160         35.00	     6.481
  56.180         42.50	     7.141
  56.200         30.00	     6.000
  56.220         34.17	     6.403
  56.240         38.33	     6.782
  56.260         32.50	     6.245
  56.280         52.50	     7.937
  56.300         31.67	     6.164
  56.320         40.00	     6.928
  56.340         45.00	     7.348
  56.360         25.83	     5.568
  56.380         31.67	     6.164
  56.400         32.50	     6.245
  56.420         27.50	     5.745
  56.440         28.33	     5.831
  56.460         28.33	     5.831
  56.480         25.00	     5.477
  56.500         22.50	     5.196
  56.520         31.67	     6.164
  56.540         26.67	     5.657
  56.560         30.00	     6.000
  56.580         17.50	     4.583
  56.600         26.67	     5.657
  56.620         31.67	     6.164
  56.640         25.83	     5.568
  56.660         32.50	     6.245
  56.680         36.67	     6.633
  56.700         23.33	     5.292
  56.720         30.83	     6.083
  56.740         20.83	     5.000
  56.760         26.67	     5.657
  56.780         35.00	     6.481
  56.800         30.00	     6.000
  56.820         30.83	     6.083
  56.840         23.33	     5.292
  56.860         35.00	     6.481
  56.880         15.00	     4.243
  56.900         23.33	     5.292
  56.920         33.33	     6.325
  56.940         21.67	     5.099
  56.960         25.00	     5.477
  56.980         25.00	     5.477
  57.000         18.33	     4.690
  57.020         21.67	     5.099
  57.040         25.00	     5.477
  57.060         37.50	     6.708
  57.080         18.33	     4.690
  57.100         29.17	     5.916
  57.120         22.50	     5.196
  57.140         40.83	     7.000
  57.160         34.17	     6.403
  57.180         33.33	     6.325
  57.200         27.50	     5.745
  57.220         23.33	     5.292
  57.240         31.67	     6.164
  57.260         40.83	     7.000
  57.280         45.83	     7.416
  57.300         44.17	     7.280
  57.320         34.17	     6.403
  57.340         40.00	     6.928
  57.360         35.00	     6.481
  57.380         32.50	     6.245
  57.400         31.67	     6.164
  57.420         35.83	     6.557
  57.440         33.33	     6.325
  57.460         34.17	     6.403
  57.480         32.50	     6.245
  57.500         30.83	     6.083
  57.520         38.33	     6.782
  57.540         30.83	     6.083
  57.560         31.67	     6.164
  57.580         39.17	     6.856
  57.600         34.17	     6.403
  57.620         32.50	     6.245
  57.640         39.17	     6.856
  57.660         39.17	     6.856
  57.680         55.00	     8.124
  57.700         47.50	     7.550
  57.720         36.67	     6.633
  57.740         47.50	     7.550
  57.760         29.17	     5.916
  57.780         40.83	     7.000
  57.800         48.33	     7.616
  57.820         45.00	     7.348
  57.840         51.67	     7.874
  57.860         25.00	     5.477
  57.880         33.33	     6.325
  57.900         27.50	     5.745
  57.920         29.17	     5.916
  57.940         33.33	     6.325
  57.960         29.17	     5.916
  57.980         29.17	     5.916
  58.000         30.00	     6.000
  58.020         40.00	     6.928
  58.040         23.33	     5.292
  58.060         30.00	     6.000
  58.080         32.50	     6.245
  58.100         30.00	     6.000
  58.120         31.67	     6.164
  58.140         32.50	     6.245
  58.160         44.17	     7.280
  58.180         39.17	     6.856
  58.200         32.50	     6.245
  58.220         43.33	     7.211
  58.240         44.17	     7.280
  58.260         45.00	     7.348
  58.280         39.17	     6.856
  58.300         30.83	     6.083
  58.320         24.17	     5.385
  58.340         32.50	     6.245
  58.360         35.83	     6.557
  58.380         27.50	     5.745
  58.400         27.50	     5.745
  58.420         30.00	     6.000
  58.440         29.17	     5.916
  58.460         24.17	     5.385
  58.480         31.67	     6.164
  58.500         34.17	     6.403
  58.520         36.67	     6.633
  58.540         35.00	     6.481
  58.560         30.00	     6.000
  58.580         32.50	     6.245
  58.600         39.17	     6.856
  58.620         26.67	     5.657
  58.640         36.67	     6.633
  58.660         29.17	     5.916
  58.680         45.83	     7.416
  58.700         40.00	     6.928
  58.720         44.17	     7.280
  58.740         42.50	     7.141
  58.760         61.67	     8.602
  58.780         47.50	     7.550
  58.800         52.50	     7.937
  58.820         46.67	     7.483
  58.840         50.00	     7.746
  58.860         44.17	     7.280
  58.880         56.67	     8.246
  58.900         72.50	     9.327
  58.920         73.33	     9.381
  58.940         97.50	    10.817
  58.960         94.17	    10.630
  58.980         81.67	     9.899
  59.000         63.33	     8.718
  59.020         41.67	     7.071
  59.040         56.67	     8.246
  59.060         65.00	     8.832
  59.080         62.50	     8.660
  59.100         72.50	     9.327
  59.120         62.50	     8.660
  59.140         65.83	     8.888
  59.160         65.00	     8.832
  59.180         57.50	     8.307
  59.200         64.17	     8.775
  59.220         45.83	     7.416
  59.240         43.33	     7.211
  59.260         50.00	     7.746
  59.280         39.17	     6.856
  59.300         46.67	     7.483
  59.320         44.17	     7.280
  59.340         47.50	     7.550
  59.360         40.00	     6.928
  59.380         38.33	     6.782
  59.400         50.00	     7.746
  59.420         35.00	     6.481
  59.440         33.33	     6.325
  59.460         36.67	     6.633
  59.480         35.00	     6.481
  59.500         40.83	     7.000
  59.520         35.00	     6.481
  59.540         41.67	     7.071
  59.560         35.00	     6.481
  59.580         23.33	     5.292
  59.600         23.33	     5.292
  59.620         33.33	     6.325
  59.640         34.17	     6.403
  59.660         31.67	     6.164
  59.680         31.67	     6.164
  59.700         35.83	     6.557
  59.720         40.00	     6.928
  59.740         45.83	     7.416
  59.760         37.50	     6.708
  59.780         40.83	     7.000
  59.800         44.17	     7.280
  59.820         46.67	     7.483
  59.840         51.67	     7.874
  59.860         62.50	     8.660
  59.880         59.17	     8.426
  59.900         83.33	    10.000
  59.920         91.67	    10.488
  59.940        150.00	    13.416
  59.960        270.00	    18.000
  59.980        384.17	    21.471
  60.000        569.17	    26.134
  60.020        613.33	    27.129
  60.040        518.33	    24.940
  60.060        378.33	    21.307
  60.080        274.17	    18.138
  60.100        185.00	    14.900
  60.120        182.50	    14.799
  60.140        236.67	    16.852
  60.160        294.17	    18.788
  60.180        334.17	    20.025
  60.200        315.00	    19.442
  60.220        235.83	    16.823
  60.240        162.50	    13.964
  60.260        107.50	    11.358
  60.280         65.00	     8.832
  60.300         77.50	     9.644
  60.320         65.83	     8.888
  60.340         54.17	     8.062
  60.360         60.00	     8.485
  60.380         46.67	     7.483
  60.400         45.00	     7.348
  60.420         44.17	     7.280
  60.440         35.83	     6.557
  60.460         40.00	     6.928
  60.480         42.50	     7.141
  60.500         44.17	     7.280
  60.520         47.50	     7.550
  60.540         45.00	     7.348
  60.560         56.67	     8.246
  60.580         43.33	     7.211
  60.600         35.00	     6.481
  60.620         43.33	     7.211
  60.640         41.67	     7.071
  60.660         40.00	     6.928
  60.680         37.50	     6.708
  60.700         40.00	     6.928
  60.720         38.33	     6.782
  60.740         39.17	     6.856
  60.760         49.17	     7.681
  60.780         55.83	     8.185
  60.800         38.33	     6.782
  60.820         52.50	     7.937
  60.840         32.50	     6.245
  60.860         45.00	     7.348
  60.880         37.50	     6.708
  60.900         36.67	     6.633
  60.920         41.67	     7.071
  60.940         49.17	     7.681
  60.960         37.50	     6.708
  60.980         24.17	     5.385
  61.000         40.83	     7.000
  61.020         34.17	     6.403
  61.040         30.00	     6.000
  61.060         34.17	     6.403
  61.080         41.67	     7.071
  61.100         33.33	     6.325
  61.120         40.00	     6.928
  61.140         37.50	     6.708
  61.160         25.00	     5.477
  61.180         34.17	     6.403
  61.200         30.00	     6.000
  61.220         34.17	     6.403
  61.240         35.00	     6.481
  61.260         27.50	     5.745
  61.280         34.17	     6.403
  61.300         30.00	     6.000
  61.320         25.00	     5.477
  61.340         30.00	     6.000
  61.360         30.83	     6.083
  61.380         35.00	     6.481
  61.400         39.17	     6.856
  61.420         45.00	     7.348
  61.440         47.50	     7.550
  61.460         47.50	     7.550
  61.480         42.50	     7.141
  61.500         62.50	     8.660
  61.520         60.00	     8.485
  61.540         68.33	     9.055
  61.560         39.17	     6.856
  61.580         53.33	     8.000
  61.600         56.67	     8.246
  61.620         55.00	     8.124
  61.640         53.33	     8.000
  61.660         55.83	     8.185
  61.680         55.00	     8.124
  61.700         59.17	     8.426
  61.720         57.50	     8.307
  61.740         55.00	     8.124
  61.760         58.33	     8.367
  61.780         69.17	     9.110
  61.800         59.17	     8.426
  61.820         70.83	     9.220
  61.840         56.67	     8.246
  61.860         53.33	     8.000
  61.880         37.50	     6.708
  61.900         58.33	     8.367
  61.920         42.50	     7.141
  61.940         52.50	     7.937
  61.960         37.50	     6.708
  61.980         39.17	     6.856
  62.000         45.83	     7.416
  62.020         33.33	     6.325
  62.040         41.67	     7.071
  62.060         36.67	     6.633
  62.080         43.33	     7.211
  62.100         37.50	     6.708
  62.120         38.33	     6.782
  62.140         37.50	     6.708
  62.160         36.67	     6.633
  62.180         30.00	     6.000
  62.200         44.17	     7.280
  62.220         34.17	     6.403
  62.240         23.33	     5.292
  62.260         33.33	     6.325
  62.280         23.33	     5.292
  62.300         30.83	     6.083
  62.320         24.17	     5.385
  62.340         38.33	     6.782
  62.360         32.50	     6.245
  62.380         31.67	     6.164
  62.400         32.50	     6.245
  62.420         28.33	     5.831
  62.440         30.83	     6.083
  62.460         22.50	     5.196
  62.480         21.67	     5.099
  62.500         29.17	     5.916
  62.520         35.83	     6.557
  62.540         24.17	     5.385
  62.560         32.50	     6.245
  62.580         20.00	     4.899
  62.600         25.83	     5.568
  62.620         27.50	     5.745
  62.640         25.00	     5.477
  62.660         32.50	     6.245
  62.680         24.17	     5.385
  62.700         30.83	     6.083
  62.720         25.83	     5.568
  62.740         33.33	     6.325
  62.760         20.83	     5.000
  62.780         27.50	     5.745
  62.800         38.33	     6.782
  62.820         29.17	     5.916
  62.840         29.17	     5.916
  62.860         20.00	     4.899
  62.880         30.83	     6.083
  62.900         36.67	     6.633
  62.920         38.33	     6.782
  62.940         27.50	     5.745
  62.960         28.33	     5.831
  62.980         32.50	     6.245
  63.000         29.17	     5.916
  63.020         27.50	     5.745
  63.040         29.17	     5.916
  63.060         30.83	     6.083
  63.080         25.83	     5.568
  63.100         30.00	     6.000
  63.120         30.00	     6.000
  63.140         28.33	     5.831
  63.160         38.33	     6.782
  63.180         31.67	     6.164
  63.200         20.00	     4.899
  63.220         21.67	     5.099
  63.240         16.67	     4.472
  63.260         20.83	     5.000
  63.280         32.50	     6.245
  63.300         35.00	     6.481
  63.320         28.33	     5.831
  63.340         24.17	     5.385
  63.360         23.33	     5.292
  63.380         38.33	     6.782
  63.400         25.83	     5.568
  63.420         32.50	     6.245
  63.440         25.00	     5.477
  63.460         34.17	     6.403
  63.480         41.67	     7.071
  63.500         33.33	     6.325
  63.520         46.67	     7.483
  63.540         37.50	     6.708
  63.560         45.83	     7.416
  63.580         32.50	     6.245
  63.600         42.50	     7.141
  63.620         22.50	     5.196
  63.640         32.50	     6.245
  63.660         41.67	     7.071
  63.680         30.00	     6.000
  63.700         25.83	     5.568
  63.720         44.17	     7.280
  63.740         40.83	     7.000
  63.760         31.67	     6.164
  63.780         29.17	     5.916
  63.800         36.67	     6.633
  63.820         41.67	     7.071
  63.840         44.17	     7.280
  63.860         50.83	     7.810
  63.880         39.17	     6.856
  63.900         36.67	     6.633
  63.920         37.50	     6.708
  63.940         37.50	     6.708
  63.960         66.67	     8.944
  63.980         53.33	     8.000
  64.000         55.83	     8.185
  64.020         76.67	     9.592
  64.040         86.67	    10.198
  64.060        126.67	    12.329
  64.080        139.17	    12.923
  64.100        109.17	    11.446
  64.120         80.83	     9.849
  64.140         73.33	     9.381
  64.160         61.67	     8.602
  64.180         69.17	     9.110
  64.200         80.00	     9.798
  64.220         88.33	    10.296
  64.240         97.50	    10.817
  64.260        106.67	    11.314
  64.280        113.33	    11.662
  64.300         90.00	    10.392
  64.320         93.33	    10.583
  64.340        102.50	    11.091
  64.360        127.50	    12.369
  64.380        132.50	    12.610
  64.400        161.67	    13.928
  64.420        230.83	    16.643
  64.440        174.17	    14.457
  64.460        193.33	    15.232
  64.480        211.67	    15.937
  64.500        155.83	    13.675
  64.520        131.67	    12.570
  64.540        155.83	    13.675
  64.560        160.00	    13.856
  64.580        140.83	    13.000
  64.600        156.67	    13.711
  64.620        154.17	    13.601
  64.640        131.67	    12.570
  64.660        136.67	    12.806
  64.680        105.83	    11.269
  64.700        100.83	    11.000
  64.720         96.67	    10.770
  64.740         95.00	    10.677
  64.760         71.67	     9.274
  64.780         60.83	     8.544
  64.800         77.50	     9.644
  64.820         81.67	     9.899
  64.840         59.17	     8.426
  64.860         65.00	     8.832
  64.880         49.17	     7.681
  64.900         58.33	     8.367
  64.920         50.00	     7.746
  64.940         50.83	     7.810
  64.960         57.50	     8.307
  64.980         51.67	     7.874
  65.000         66.67	     8.944
