
Filename:
	C:\Program Files\Thermo Electron\WinXRD\Datafiles\F_HERMAN\GEO\GG_11_SFT.raw

File Created:
	October 12, 2020 - 08:33 PM

Specimen Id:
	GG_11_SFT

Specimen Name:
	

Specimen Description:
	

Comment:
Scan Type: 2Theta Scan
Start Angle: 3 deg.
Stop Angle: 65 deg.
Num Points: 3101
Step Size: 0.02 deg.
Scan Rate: 1.000000
Scan Mode: Continuous
Wavelength: 1.540562
\Kalpha1: 1.540562	\Kalpha2: 1.544390	\Kbeta: 1.392218

Optics:
		Detector:
			 Type: Fixed Slits
		Tube: 
			 Type: Fixed Slits


Datas:
 Pos [deg]       Rate [CPS]      ESD [-]

Range 1 ---> Iteration 1
   3.000        376.67	    21.260
   3.020        341.67	    20.248
   3.040        336.67	    20.100
   3.060        335.00	    20.050
   3.080        380.00	    21.354
   3.100        338.33	    20.149
   3.120        332.50	    19.975
   3.140        334.17	    20.025
   3.160        331.67	    19.950
   3.180        317.50	    19.519
   3.200        304.17	    19.105
   3.220        315.83	    19.468
   3.240        314.17	    19.416
   3.260        326.67	    19.799
   3.280        315.00	    19.442
   3.300        337.50	    20.125
   3.320        286.67	    18.547
   3.340        285.83	    18.520
   3.360        315.83	    19.468
   3.380        283.33	    18.439
   3.400        337.50	    20.125
   3.420        294.17	    18.788
   3.440        290.00	    18.655
   3.460        272.50	    18.083
   3.480        295.83	    18.841
   3.500        294.17	    18.788
   3.520        310.00	    19.287
   3.540        298.33	    18.921
   3.560        270.00	    18.000
   3.580        275.83	    18.193
   3.600        278.33	    18.276
   3.620        310.83	    19.313
   3.640        262.50	    17.748
   3.660        279.17	    18.303
   3.680        257.50	    17.578
   3.700        245.00	    17.146
   3.720        277.50	    18.248
   3.740        268.33	    17.944
   3.760        255.83	    17.521
   3.780        273.33	    18.111
   3.800        276.67	    18.221
   3.820        275.00	    18.166
   3.840        295.00	    18.815
   3.860        234.17	    16.763
   3.880        255.00	    17.493
   3.900        276.67	    18.221
   3.920        242.50	    17.059
   3.940        243.33	    17.088
   3.960        238.33	    16.912
   3.980        250.00	    17.321
   4.000        244.17	    17.117
   4.020        240.00	    16.971
   4.040        249.17	    17.292
   4.060        235.00	    16.793
   4.080        229.17	    16.583
   4.100        249.17	    17.292
   4.120        253.33	    17.436
   4.140        230.00	    16.613
   4.160        229.17	    16.583
   4.180        240.00	    16.971
   4.200        231.67	    16.673
   4.220        230.00	    16.613
   4.240        221.67	    16.310
   4.260        255.83	    17.521
   4.280        230.83	    16.643
   4.300        235.00	    16.793
   4.320        233.33	    16.733
   4.340        206.67	    15.748
   4.360        209.17	    15.843
   4.380        218.33	    16.186
   4.400        239.17	    16.941
   4.420        215.83	    16.093
   4.440        226.67	    16.492
   4.460        213.33	    16.000
   4.480        214.17	    16.031
   4.500        227.50	    16.523
   4.520        237.50	    16.882
   4.540        219.17	    16.217
   4.560        203.33	    15.620
   4.580        220.83	    16.279
   4.600        214.17	    16.031
   4.620        185.83	    14.933
   4.640        205.00	    15.684
   4.660        217.50	    16.155
   4.680        211.67	    15.937
   4.700        200.00	    15.492
   4.720        200.83	    15.524
   4.740        211.67	    15.937
   4.760        202.50	    15.588
   4.780        175.00	    14.491
   4.800        187.50	    15.000
   4.820        195.83	    15.330
   4.840        180.83	    14.731
   4.860        191.67	    15.166
   4.880        209.17	    15.843
   4.900        190.83	    15.133
   4.920        205.83	    15.716
   4.940        193.33	    15.232
   4.960        203.33	    15.620
   4.980        175.83	    14.526
   5.000        175.83	    14.526
   5.020        171.67	    14.353
   5.040        200.00	    15.492
   5.060        185.83	    14.933
   5.080        199.17	    15.460
   5.100        179.17	    14.663
   5.120        203.33	    15.620
   5.140        191.67	    15.166
   5.160        208.33	    15.811
   5.180        151.67	    13.491
   5.200        182.50	    14.799
   5.220        198.33	    15.427
   5.240        174.17	    14.457
   5.260        165.83	    14.107
   5.280        184.17	    14.866
   5.300        170.83	    14.318
   5.320        160.83	    13.892
   5.340        185.83	    14.933
   5.360        173.33	    14.422
   5.380        185.83	    14.933
   5.400        191.67	    15.166
   5.420        183.33	    14.832
   5.440        175.00	    14.491
   5.460        165.00	    14.071
   5.480        179.17	    14.663
   5.500        160.83	    13.892
   5.520        168.33	    14.213
   5.540        170.83	    14.318
   5.560        155.00	    13.638
   5.580        145.00	    13.191
   5.600        159.17	    13.820
   5.620        180.83	    14.731
   5.640        156.67	    13.711
   5.660        174.17	    14.457
   5.680        180.00	    14.697
   5.700        170.83	    14.318
   5.720        166.67	    14.142
   5.740        169.17	    14.248
   5.760        177.50	    14.595
   5.780        173.33	    14.422
   5.800        150.83	    13.454
   5.820        154.17	    13.601
   5.840        160.83	    13.892
   5.860        185.00	    14.900
   5.880        181.67	    14.765
   5.900        163.33	    14.000
   5.920        158.33	    13.784
   5.940        192.50	    15.199
   5.960        191.67	    15.166
   5.980        175.00	    14.491
   6.000        175.83	    14.526
   6.020        199.17	    15.460
   6.040        200.83	    15.524
   6.060        200.83	    15.524
   6.080        209.17	    15.843
   6.100        206.67	    15.748
   6.120        199.17	    15.460
   6.140        234.17	    16.763
   6.160        220.83	    16.279
   6.180        229.17	    16.583
   6.200        228.33	    16.553
   6.220        250.83	    17.349
   6.240        226.67	    16.492
   6.260        210.83	    15.906
   6.280        237.50	    16.882
   6.300        212.50	    15.969
   6.320        231.67	    16.673
   6.340        197.50	    15.395
   6.360        229.17	    16.583
   6.380        218.33	    16.186
   6.400        196.67	    15.362
   6.420        222.50	    16.340
   6.440        221.67	    16.310
   6.460        209.17	    15.843
   6.480        195.00	    15.297
   6.500        164.17	    14.036
   6.520        160.00	    13.856
   6.540        162.50	    13.964
   6.560        155.00	    13.638
   6.580        156.67	    13.711
   6.600        165.00	    14.071
   6.620        150.83	    13.454
   6.640        163.33	    14.000
   6.660        164.17	    14.036
   6.680        145.00	    13.191
   6.700        140.00	    12.961
   6.720        139.17	    12.923
   6.740        140.00	    12.961
   6.760        125.00	    12.247
   6.780        121.67	    12.083
   6.800        135.00	    12.728
   6.820        136.67	    12.806
   6.840        144.17	    13.153
   6.860        139.17	    12.923
   6.880        136.67	    12.806
   6.900        140.00	    12.961
   6.920        119.17	    11.958
   6.940        131.67	    12.570
   6.960        133.33	    12.649
   6.980        124.17	    12.207
   7.000        130.83	    12.530
   7.020        129.17	    12.450
   7.040        118.33	    11.916
   7.060        132.50	    12.610
   7.080        147.50	    13.304
   7.100        140.00	    12.961
   7.120        127.50	    12.369
   7.140        124.17	    12.207
   7.160        130.00	    12.490
   7.180        110.83	    11.533
   7.200        113.33	    11.662
   7.220        138.33	    12.884
   7.240        129.17	    12.450
   7.260        129.17	    12.450
   7.280        134.17	    12.689
   7.300        137.50	    12.845
   7.320        129.17	    12.450
   7.340        109.17	    11.446
   7.360        129.17	    12.450
   7.380        127.50	    12.369
   7.400        130.00	    12.490
   7.420        120.83	    12.042
   7.440        117.50	    11.874
   7.460        114.17	    11.705
   7.480        123.33	    12.166
   7.500        129.17	    12.450
   7.520        129.17	    12.450
   7.540        113.33	    11.662
   7.560        108.33	    11.402
   7.580        122.50	    12.124
   7.600        135.00	    12.728
   7.620        114.17	    11.705
   7.640        128.33	    12.410
   7.660        130.00	    12.490
   7.680        116.67	    11.832
   7.700        125.83	    12.288
   7.720        117.50	    11.874
   7.740        119.17	    11.958
   7.760        125.83	    12.288
   7.780        119.17	    11.958
   7.800        115.83	    11.790
   7.820        100.83	    11.000
   7.840        105.83	    11.269
   7.860        123.33	    12.166
   7.880        114.17	    11.705
   7.900        118.33	    11.916
   7.920        125.00	    12.247
   7.940        109.17	    11.446
   7.960        111.67	    11.576
   7.980        100.83	    11.000
   8.000        120.83	    12.042
   8.020        118.33	    11.916
   8.040        119.17	    11.958
   8.060        111.67	    11.576
   8.080        118.33	    11.916
   8.100        129.17	    12.450
   8.120        125.00	    12.247
   8.140        119.17	    11.958
   8.160        114.17	    11.705
   8.180        129.17	    12.450
   8.200        119.17	    11.958
   8.220        124.17	    12.207
   8.240        110.00	    11.489
   8.260        108.33	    11.402
   8.280        129.17	    12.450
   8.300        146.67	    13.266
   8.320        128.33	    12.410
   8.340        152.50	    13.528
   8.360        167.50	    14.177
   8.380        157.50	    13.748
   8.400        166.67	    14.142
   8.420        130.00	    12.490
   8.440        132.50	    12.610
   8.460        110.83	    11.533
   8.480        117.50	    11.874
   8.500         95.00	    10.677
   8.520        100.83	    11.000
   8.540        110.00	    11.489
   8.560        116.67	    11.832
   8.580         98.33	    10.863
   8.600        123.33	    12.166
   8.620        125.00	    12.247
   8.640        117.50	    11.874
   8.660        123.33	    12.166
   8.680        128.33	    12.410
   8.700        135.83	    12.767
   8.720        119.17	    11.958
   8.740        134.17	    12.689
   8.760        130.00	    12.490
   8.780        132.50	    12.610
   8.800        138.33	    12.884
   8.820        145.83	    13.229
   8.840        140.83	    13.000
   8.860        160.83	    13.892
   8.880        160.00	    13.856
   8.900        168.33	    14.213
   8.920        203.33	    15.620
   8.940        215.83	    16.093
   8.960        227.50	    16.523
   8.980        249.17	    17.292
   9.000        244.17	    17.117
   9.020        236.67	    16.852
   9.040        236.67	    16.852
   9.060        250.83	    17.349
   9.080        201.67	    15.556
   9.100        175.00	    14.491
   9.120        167.50	    14.177
   9.140        145.83	    13.229
   9.160        130.83	    12.530
   9.180        134.17	    12.689
   9.200        123.33	    12.166
   9.220        118.33	    11.916
   9.240        102.50	    11.091
   9.260        124.17	    12.207
   9.280        102.50	    11.091
   9.300        117.50	    11.874
   9.320        100.83	    11.000
   9.340         85.83	    10.149
   9.360        109.17	    11.446
   9.380        127.50	    12.369
   9.400         95.00	    10.677
   9.420        101.67	    11.045
   9.440         98.33	    10.863
   9.460        117.50	    11.874
   9.480        102.50	    11.091
   9.500         94.17	    10.630
   9.520        116.67	    11.832
   9.540        110.83	    11.533
   9.560        120.00	    12.000
   9.580         97.50	    10.817
   9.600        122.50	    12.124
   9.620        112.50	    11.619
   9.640        107.50	    11.358
   9.660         99.17	    10.909
   9.680        100.83	    11.000
   9.700         75.00	     9.487
   9.720         83.33	    10.000
   9.740         81.67	     9.899
   9.760         85.00	    10.100
   9.780         71.67	     9.274
   9.800         94.17	    10.630
   9.820         82.50	     9.950
   9.840         90.83	    10.440
   9.860         80.00	     9.798
   9.880         91.67	    10.488
   9.900        100.00	    10.954
   9.920         79.17	     9.747
   9.940        117.50	    11.874
   9.960         88.33	    10.296
   9.980         83.33	    10.000
  10.000         93.33	    10.583
  10.020         84.17	    10.050
  10.040         80.00	     9.798
  10.060         87.50	    10.247
  10.080         85.83	    10.149
  10.100         70.83	     9.220
  10.120         77.50	     9.644
  10.140         80.00	     9.798
  10.160         86.67	    10.198
  10.180         91.67	    10.488
  10.200         65.83	     8.888
  10.220         70.00	     9.165
  10.240         79.17	     9.747
  10.260         79.17	     9.747
  10.280        102.50	    11.091
  10.300         88.33	    10.296
  10.320         75.00	     9.487
  10.340         84.17	    10.050
  10.360         71.67	     9.274
  10.380         82.50	     9.950
  10.400         80.83	     9.849
  10.420         90.83	    10.440
  10.440         72.50	     9.327
  10.460         86.67	    10.198
  10.480         72.50	     9.327
  10.500         87.50	    10.247
  10.520         80.83	     9.849
  10.540        100.83	    11.000
  10.560        107.50	    11.358
  10.580        105.83	    11.269
  10.600        125.83	    12.288
  10.620        118.33	    11.916
  10.640        173.33	    14.422
  10.660        140.00	    12.961
  10.680        139.17	    12.923
  10.700        135.00	    12.728
  10.720        128.33	    12.410
  10.740        126.67	    12.329
  10.760        130.00	    12.490
  10.780        112.50	    11.619
  10.800         95.83	    10.724
  10.820         78.33	     9.695
  10.840         86.67	    10.198
  10.860         75.00	     9.487
  10.880         65.83	     8.888
  10.900         69.17	     9.110
  10.920         77.50	     9.644
  10.940         72.50	     9.327
  10.960         78.33	     9.695
  10.980         67.50	     9.000
  11.000         79.17	     9.747
  11.020         70.00	     9.165
  11.040         81.67	     9.899
  11.060         82.50	     9.950
  11.080         81.67	     9.899
  11.100         75.83	     9.539
  11.120         65.83	     8.888
  11.140         80.00	     9.798
  11.160         82.50	     9.950
  11.180         60.00	     8.485
  11.200         69.17	     9.110
  11.220         79.17	     9.747
  11.240         83.33	    10.000
  11.260         66.67	     8.944
  11.280         73.33	     9.381
  11.300         60.00	     8.485
  11.320         70.83	     9.220
  11.340         75.83	     9.539
  11.360         71.67	     9.274
  11.380         66.67	     8.944
  11.400         76.67	     9.592
  11.420         57.50	     8.307
  11.440         65.83	     8.888
  11.460         60.83	     8.544
  11.480         70.83	     9.220
  11.500         75.83	     9.539
  11.520         75.00	     9.487
  11.540         64.17	     8.775
  11.560         60.00	     8.485
  11.580         83.33	    10.000
  11.600         77.50	     9.644
  11.620         74.17	     9.434
  11.640         90.00	    10.392
  11.660         95.83	    10.724
  11.680         88.33	    10.296
  11.700        108.33	    11.402
  11.720         90.00	    10.392
  11.740         86.67	    10.198
  11.760         90.00	    10.392
  11.780         85.83	    10.149
  11.800         82.50	     9.950
  11.820         75.83	     9.539
  11.840         87.50	    10.247
  11.860         61.67	     8.602
  11.880         71.67	     9.274
  11.900         80.00	     9.798
  11.920         91.67	    10.488
  11.940         85.00	    10.100
  11.960         66.67	     8.944
  11.980         85.00	    10.100
  12.000         89.17	    10.344
  12.020         89.17	    10.344
  12.040         85.83	    10.149
  12.060         81.67	     9.899
  12.080        110.83	    11.533
  12.100         97.50	    10.817
  12.120        104.17	    11.180
  12.140         99.17	    10.909
  12.160        121.67	    12.083
  12.180        138.33	    12.884
  12.200        144.17	    13.153
  12.220        189.17	    15.067
  12.240        255.00	    17.493
  12.260        265.00	    17.833
  12.280        327.50	    19.824
  12.300        371.67	    21.119
  12.320        372.50	    21.142
  12.340        367.50	    21.000
  12.360        368.33	    21.024
  12.380        359.17	    20.761
  12.400        343.33	    20.298
  12.420        299.17	    18.947
  12.440        264.17	    17.804
  12.460        244.17	    17.117
  12.480        230.83	    16.643
  12.500        230.00	    16.613
  12.520        252.50	    17.407
  12.540        234.17	    16.763
  12.560        260.83	    17.692
  12.580        295.00	    18.815
  12.600        287.50	    18.574
  12.620        311.67	    19.339
  12.640        308.33	    19.235
  12.660        267.50	    17.916
  12.680        268.33	    17.944
  12.700        227.50	    16.523
  12.720        188.33	    15.033
  12.740        159.17	    13.820
  12.760        136.67	    12.806
  12.780        126.67	    12.329
  12.800         95.00	    10.677
  12.820         79.17	     9.747
  12.840         67.50	     9.000
  12.860         75.00	     9.487
  12.880         82.50	     9.950
  12.900         85.83	    10.149
  12.920         80.83	     9.849
  12.940         69.17	     9.110
  12.960         62.50	     8.660
  12.980         70.83	     9.220
  13.000         72.50	     9.327
  13.020         63.33	     8.718
  13.040         50.00	     7.746
  13.060         63.33	     8.718
  13.080         66.67	     8.944
  13.100         53.33	     8.000
  13.120         59.17	     8.426
  13.140         60.83	     8.544
  13.160         57.50	     8.307
  13.180         55.83	     8.185
  13.200         67.50	     9.000
  13.220         70.00	     9.165
  13.240         62.50	     8.660
  13.260         65.83	     8.888
  13.280         56.67	     8.246
  13.300         65.83	     8.888
  13.320         57.50	     8.307
  13.340         65.00	     8.832
  13.360         55.00	     8.124
  13.380         60.83	     8.544
  13.400         60.83	     8.544
  13.420         54.17	     8.062
  13.440         59.17	     8.426
  13.460         60.83	     8.544
  13.480         56.67	     8.246
  13.500         49.17	     7.681
  13.520         67.50	     9.000
  13.540         57.50	     8.307
  13.560         67.50	     9.000
  13.580         70.83	     9.220
  13.600         54.17	     8.062
  13.620         65.00	     8.832
  13.640         47.50	     7.550
  13.660         72.50	     9.327
  13.680         66.67	     8.944
  13.700         48.33	     7.616
  13.720         52.50	     7.937
  13.740         51.67	     7.874
  13.760         65.00	     8.832
  13.780         66.67	     8.944
  13.800         40.83	     7.000
  13.820         61.67	     8.602
  13.840         55.00	     8.124
  13.860         57.50	     8.307
  13.880         54.17	     8.062
  13.900         69.17	     9.110
  13.920         71.67	     9.274
  13.940         81.67	     9.899
  13.960         57.50	     8.307
  13.980         77.50	     9.644
  14.000         76.67	     9.592
  14.020         72.50	     9.327
  14.040         81.67	     9.899
  14.060         73.33	     9.381
  14.080         56.67	     8.246
  14.100         53.33	     8.000
  14.120         67.50	     9.000
  14.140         50.83	     7.810
  14.160         47.50	     7.550
  14.180         50.83	     7.810
  14.200         54.17	     8.062
  14.220         38.33	     6.782
  14.240         55.00	     8.124
  14.260         55.00	     8.124
  14.280         56.67	     8.246
  14.300         54.17	     8.062
  14.320         56.67	     8.246
  14.340         50.00	     7.746
  14.360         47.50	     7.550
  14.380         47.50	     7.550
  14.400         59.17	     8.426
  14.420         50.00	     7.746
  14.440         42.50	     7.141
  14.460         50.00	     7.746
  14.480         44.17	     7.280
  14.500         42.50	     7.141
  14.520         55.00	     8.124
  14.540         45.00	     7.348
  14.560         41.67	     7.071
  14.580         37.50	     6.708
  14.600         41.67	     7.071
  14.620         58.33	     8.367
  14.640         49.17	     7.681
  14.660         42.50	     7.141
  14.680         42.50	     7.141
  14.700         40.00	     6.928
  14.720         50.00	     7.746
  14.740         43.33	     7.211
  14.760         59.17	     8.426
  14.780         37.50	     6.708
  14.800         48.33	     7.616
  14.820         47.50	     7.550
  14.840         47.50	     7.550
  14.860         54.17	     8.062
  14.880         50.00	     7.746
  14.900         41.67	     7.071
  14.920         42.50	     7.141
  14.940         48.33	     7.616
  14.960         42.50	     7.141
  14.980         37.50	     6.708
  15.000         50.00	     7.746
  15.020         49.17	     7.681
  15.040         34.17	     6.403
  15.060         40.00	     6.928
  15.080         56.67	     8.246
  15.100         70.00	     9.165
  15.120         55.83	     8.185
  15.140         60.83	     8.544
  15.160         47.50	     7.550
  15.180         46.67	     7.483
  15.200         44.17	     7.280
  15.220         47.50	     7.550
  15.240         40.83	     7.000
  15.260         51.67	     7.874
  15.280         53.33	     8.000
  15.300         49.17	     7.681
  15.320         51.67	     7.874
  15.340         54.17	     8.062
  15.360         47.50	     7.550
  15.380         42.50	     7.141
  15.400         45.83	     7.416
  15.420         35.83	     6.557
  15.440         40.00	     6.928
  15.460         35.83	     6.557
  15.480         55.00	     8.124
  15.500         37.50	     6.708
  15.520         34.17	     6.403
  15.540         40.83	     7.000
  15.560         40.00	     6.928
  15.580         44.17	     7.280
  15.600         52.50	     7.937
  15.620         40.83	     7.000
  15.640         52.50	     7.937
  15.660         45.83	     7.416
  15.680         52.50	     7.937
  15.700         40.00	     6.928
  15.720         46.67	     7.483
  15.740         46.67	     7.483
  15.760         39.17	     6.856
  15.780         51.67	     7.874
  15.800         35.83	     6.557
  15.820         39.17	     6.856
  15.840         41.67	     7.071
  15.860         45.83	     7.416
  15.880         45.83	     7.416
  15.900         44.17	     7.280
  15.920         45.00	     7.348
  15.940         34.17	     6.403
  15.960         45.00	     7.348
  15.980         39.17	     6.856
  16.000         43.33	     7.211
  16.020         55.00	     8.124
  16.040         40.00	     6.928
  16.060         44.17	     7.280
  16.080         42.50	     7.141
  16.100         47.50	     7.550
  16.120         42.50	     7.141
  16.140         37.50	     6.708
  16.160         53.33	     8.000
  16.180         40.00	     6.928
  16.200         39.17	     6.856
  16.220         41.67	     7.071
  16.240         40.00	     6.928
  16.260         41.67	     7.071
  16.280         34.17	     6.403
  16.300         40.83	     7.000
  16.320         33.33	     6.325
  16.340         38.33	     6.782
  16.360         50.00	     7.746
  16.380         42.50	     7.141
  16.400         42.50	     7.141
  16.420         40.00	     6.928
  16.440         30.83	     6.083
  16.460         47.50	     7.550
  16.480         34.17	     6.403
  16.500         48.33	     7.616
  16.520         48.33	     7.616
  16.540         38.33	     6.782
  16.560         34.17	     6.403
  16.580         40.83	     7.000
  16.600         36.67	     6.633
  16.620         35.00	     6.481
  16.640         38.33	     6.782
  16.660         42.50	     7.141
  16.680         43.33	     7.211
  16.700         37.50	     6.708
  16.720         44.17	     7.280
  16.740         41.67	     7.071
  16.760         44.17	     7.280
  16.780         44.17	     7.280
  16.800         46.67	     7.483
  16.820         33.33	     6.325
  16.840         35.00	     6.481
  16.860         29.17	     5.916
  16.880         41.67	     7.071
  16.900         33.33	     6.325
  16.920         30.83	     6.083
  16.940         47.50	     7.550
  16.960         34.17	     6.403
  16.980         43.33	     7.211
  17.000         42.50	     7.141
  17.020         42.50	     7.141
  17.040         38.33	     6.782
  17.060         26.67	     5.657
  17.080         40.00	     6.928
  17.100         40.83	     7.000
  17.120         49.17	     7.681
  17.140         40.83	     7.000
  17.160         45.00	     7.348
  17.180         45.83	     7.416
  17.200         40.00	     6.928
  17.220         44.17	     7.280
  17.240         43.33	     7.211
  17.260         39.17	     6.856
  17.280         42.50	     7.141
  17.300         45.83	     7.416
  17.320         48.33	     7.616
  17.340         47.50	     7.550
  17.360         29.17	     5.916
  17.380         42.50	     7.141
  17.400         40.83	     7.000
  17.420         46.67	     7.483
  17.440         37.50	     6.708
  17.460         45.00	     7.348
  17.480         45.00	     7.348
  17.500         37.50	     6.708
  17.520         41.67	     7.071
  17.540         40.83	     7.000
  17.560         50.00	     7.746
  17.580         48.33	     7.616
  17.600         58.33	     8.367
  17.620         44.17	     7.280
  17.640         45.00	     7.348
  17.660         59.17	     8.426
  17.680         48.33	     7.616
  17.700         39.17	     6.856
  17.720         69.17	     9.110
  17.740         55.00	     8.124
  17.760         63.33	     8.718
  17.780         56.67	     8.246
  17.800         56.67	     8.246
  17.820         70.00	     9.165
  17.840         77.50	     9.644
  17.860         93.33	    10.583
  17.880        117.50	    11.874
  17.900        115.00	    11.747
  17.920        138.33	    12.884
  17.940        125.83	    12.288
  17.960        139.17	    12.923
  17.980        122.50	    12.124
  18.000        108.33	    11.402
  18.020         87.50	    10.247
  18.040         75.83	     9.539
  18.060         83.33	    10.000
  18.080         71.67	     9.274
  18.100         67.50	     9.000
  18.120         45.83	     7.416
  18.140         59.17	     8.426
  18.160         58.33	     8.367
  18.180         65.83	     8.888
  18.200         48.33	     7.616
  18.220         45.00	     7.348
  18.240         56.67	     8.246
  18.260         55.00	     8.124
  18.280         48.33	     7.616
  18.300         48.33	     7.616
  18.320         42.50	     7.141
  18.340         50.00	     7.746
  18.360         49.17	     7.681
  18.380         47.50	     7.550
  18.400         38.33	     6.782
  18.420         60.83	     8.544
  18.440         48.33	     7.616
  18.460         37.50	     6.708
  18.480         55.83	     8.185
  18.500         54.17	     8.062
  18.520         61.67	     8.602
  18.540         53.33	     8.000
  18.560         52.50	     7.937
  18.580         53.33	     8.000
  18.600         58.33	     8.367
  18.620         68.33	     9.055
  18.640         75.83	     9.539
  18.660         83.33	    10.000
  18.680         82.50	     9.950
  18.700         85.83	    10.149
  18.720         91.67	    10.488
  18.740         71.67	     9.274
  18.760         89.17	    10.344
  18.780        106.67	    11.314
  18.800         81.67	     9.899
  18.820        100.83	    11.000
  18.840        116.67	    11.832
  18.860        147.50	    13.304
  18.880        138.33	    12.884
  18.900        155.00	    13.638
  18.920        160.00	    13.856
  18.940        144.17	    13.153
  18.960        145.83	    13.229
  18.980        116.67	    11.832
  19.000        121.67	    12.083
  19.020         97.50	    10.817
  19.040         75.00	     9.487
  19.060         73.33	     9.381
  19.080         72.50	     9.327
  19.100         61.67	     8.602
  19.120         47.50	     7.550
  19.140         65.00	     8.832
  19.160         47.50	     7.550
  19.180         52.50	     7.937
  19.200         40.00	     6.928
  19.220         49.17	     7.681
  19.240         46.67	     7.483
  19.260         51.67	     7.874
  19.280         50.83	     7.810
  19.300         54.17	     8.062
  19.320         49.17	     7.681
  19.340         52.50	     7.937
  19.360         51.67	     7.874
  19.380         50.00	     7.746
  19.400         49.17	     7.681
  19.420         40.00	     6.928
  19.440         51.67	     7.874
  19.460         60.83	     8.544
  19.480         55.83	     8.185
  19.500         36.67	     6.633
  19.520         50.00	     7.746
  19.540         54.17	     8.062
  19.560         45.00	     7.348
  19.580         55.83	     8.185
  19.600         50.83	     7.810
  19.620         55.83	     8.185
  19.640         41.67	     7.071
  19.660         49.17	     7.681
  19.680         48.33	     7.616
  19.700         50.83	     7.810
  19.720         65.00	     8.832
  19.740         47.50	     7.550
  19.760         59.17	     8.426
  19.780         68.33	     9.055
  19.800         61.67	     8.602
  19.820         66.67	     8.944
  19.840         58.33	     8.367
  19.860         72.50	     9.327
  19.880         65.83	     8.888
  19.900         65.83	     8.888
  19.920         58.33	     8.367
  19.940         74.17	     9.434
  19.960         64.17	     8.775
  19.980         70.83	     9.220
  20.000         66.67	     8.944
  20.020         66.67	     8.944
  20.040         60.83	     8.544
  20.060         64.17	     8.775
  20.080         57.50	     8.307
  20.100         56.67	     8.246
  20.120         56.67	     8.246
  20.140         55.00	     8.124
  20.160         50.00	     7.746
  20.180         50.00	     7.746
  20.200         51.67	     7.874
  20.220         45.00	     7.348
  20.240         41.67	     7.071
  20.260         43.33	     7.211
  20.280         44.17	     7.280
  20.300         54.17	     8.062
  20.320         44.17	     7.280
  20.340         45.83	     7.416
  20.360         43.33	     7.211
  20.380         55.00	     8.124
  20.400         54.17	     8.062
  20.420         50.00	     7.746
  20.440         38.33	     6.782
  20.460         36.67	     6.633
  20.480         47.50	     7.550
  20.500         45.83	     7.416
  20.520         47.50	     7.550
  20.540         46.67	     7.483
  20.560         40.00	     6.928
  20.580         27.50	     5.745
  20.600         40.00	     6.928
  20.620         45.83	     7.416
  20.640         39.17	     6.856
  20.660         55.00	     8.124
  20.680         51.67	     7.874
  20.700         43.33	     7.211
  20.720         41.67	     7.071
  20.740         48.33	     7.616
  20.760         51.67	     7.874
  20.780         56.67	     8.246
  20.800         55.83	     8.185
  20.820         60.00	     8.485
  20.840         59.17	     8.426
  20.860         74.17	     9.434
  20.880         72.50	     9.327
  20.900        103.33	    11.136
  20.920        120.00	    12.000
  20.940        124.17	    12.207
  20.960        161.67	    13.928
  20.980        163.33	    14.000
  21.000        161.67	    13.928
  21.020        184.17	    14.866
  21.040        175.00	    14.491
  21.060        159.17	    13.820
  21.080        142.50	    13.077
  21.100        123.33	    12.166
  21.120        126.67	    12.329
  21.140        111.67	    11.576
  21.160         95.00	    10.677
  21.180         89.17	    10.344
  21.200         90.83	    10.440
  21.220         66.67	     8.944
  21.240         73.33	     9.381
  21.260         56.67	     8.246
  21.280         50.00	     7.746
  21.300         59.17	     8.426
  21.320         55.83	     8.185
  21.340         43.33	     7.211
  21.360         53.33	     8.000
  21.380         48.33	     7.616
  21.400         42.50	     7.141
  21.420         50.00	     7.746
  21.440         45.83	     7.416
  21.460         40.83	     7.000
  21.480         36.67	     6.633
  21.500         36.67	     6.633
  21.520         46.67	     7.483
  21.540         45.83	     7.416
  21.560         41.67	     7.071
  21.580         38.33	     6.782
  21.600         46.67	     7.483
  21.620         33.33	     6.325
  21.640         45.83	     7.416
  21.660         47.50	     7.550
  21.680         51.67	     7.874
  21.700         36.67	     6.633
  21.720         48.33	     7.616
  21.740         43.33	     7.211
  21.760         40.83	     7.000
  21.780         62.50	     8.660
  21.800         43.33	     7.211
  21.820         26.67	     5.657
  21.840         49.17	     7.681
  21.860         40.83	     7.000
  21.880         40.00	     6.928
  21.900         44.17	     7.280
  21.920         45.83	     7.416
  21.940         49.17	     7.681
  21.960         45.00	     7.348
  21.980         43.33	     7.211
  22.000         38.33	     6.782
  22.020         55.00	     8.124
  22.040         85.00	    10.100
  22.060         90.83	    10.440
  22.080        100.00	    10.954
  22.100        120.83	    12.042
  22.120        119.17	    11.958
  22.140        153.33	    13.565
  22.160        169.17	    14.248
  22.180        144.17	    13.153
  22.200        150.00	    13.416
  22.220        133.33	    12.649
  22.240        140.00	    12.961
  22.260        113.33	    11.662
  22.280        108.33	    11.402
  22.300         95.83	    10.724
  22.320         76.67	     9.592
  22.340         83.33	    10.000
  22.360         84.17	    10.050
  22.380         68.33	     9.055
  22.400         65.00	     8.832
  22.420         39.17	     6.856
  22.440         51.67	     7.874
  22.460         42.50	     7.141
  22.480         60.00	     8.485
  22.500         53.33	     8.000
  22.520         43.33	     7.211
  22.540         42.50	     7.141
  22.560         37.50	     6.708
  22.580         42.50	     7.141
  22.600         58.33	     8.367
  22.620         52.50	     7.937
  22.640         55.83	     8.185
  22.660         55.00	     8.124
  22.680         66.67	     8.944
  22.700         49.17	     7.681
  22.720         47.50	     7.550
  22.740         46.67	     7.483
  22.760         35.83	     6.557
  22.780         58.33	     8.367
  22.800         51.67	     7.874
  22.820         48.33	     7.616
  22.840         56.67	     8.246
  22.860         55.83	     8.185
  22.880         48.33	     7.616
  22.900         46.67	     7.483
  22.920         58.33	     8.367
  22.940         63.33	     8.718
  22.960         66.67	     8.944
  22.980         70.83	     9.220
  23.000         85.83	    10.149
  23.020         71.67	     9.274
  23.040         80.00	     9.798
  23.060         88.33	    10.296
  23.080         76.67	     9.592
  23.100         73.33	     9.381
  23.120         92.50	    10.536
  23.140         95.83	    10.724
  23.160         67.50	     9.000
  23.180         95.00	    10.677
  23.200         88.33	    10.296
  23.220         84.17	    10.050
  23.240         84.17	    10.050
  23.260         55.00	     8.124
  23.280         53.33	     8.000
  23.300         71.67	     9.274
  23.320         50.83	     7.810
  23.340         51.67	     7.874
  23.360         50.00	     7.746
  23.380         55.83	     8.185
  23.400         52.50	     7.937
  23.420         52.50	     7.937
  23.440         49.17	     7.681
  23.460         45.00	     7.348
  23.480         49.17	     7.681
  23.500         62.50	     8.660
  23.520         65.00	     8.832
  23.540         65.00	     8.832
  23.560         76.67	     9.592
  23.580         85.83	    10.149
  23.600         87.50	    10.247
  23.620        106.67	    11.314
  23.640        165.00	    14.071
  23.660        155.00	    13.638
  23.680        123.33	    12.166
  23.700        127.50	    12.369
  23.720        160.00	    13.856
  23.740        121.67	    12.083
  23.760        113.33	    11.662
  23.780        110.83	    11.533
  23.800         88.33	    10.296
  23.820        107.50	    11.358
  23.840         86.67	    10.198
  23.860         82.50	     9.950
  23.880         88.33	    10.296
  23.900         64.17	     8.775
  23.920         72.50	     9.327
  23.940         65.83	     8.888
  23.960         79.17	     9.747
  23.980         76.67	     9.592
  24.000         68.33	     9.055
  24.020         67.50	     9.000
  24.040         64.17	     8.775
  24.060         57.50	     8.307
  24.080         65.00	     8.832
  24.100         74.17	     9.434
  24.120         82.50	     9.950
  24.140         79.17	     9.747
  24.160         63.33	     8.718
  24.180         83.33	    10.000
  24.200         87.50	    10.247
  24.220         87.50	    10.247
  24.240         86.67	    10.198
  24.260         92.50	    10.536
  24.280        120.00	    12.000
  24.300        117.50	    11.874
  24.320        135.00	    12.728
  24.340        158.33	    13.784
  24.360        150.83	    13.454
  24.380        155.83	    13.675
  24.400        189.17	    15.067
  24.420        151.67	    13.491
  24.440        145.83	    13.229
  24.460        142.50	    13.077
  24.480        135.00	    12.728
  24.500        122.50	    12.124
  24.520        115.00	    11.747
  24.540        128.33	    12.410
  24.560        130.00	    12.490
  24.580        147.50	    13.304
  24.600        162.50	    13.964
  24.620        174.17	    14.457
  24.640        223.33	    16.371
  24.660        265.83	    17.861
  24.680        302.50	    19.053
  24.700        330.00	    19.900
  24.720        364.17	    20.905
  24.740        393.33	    21.726
  24.760        391.67	    21.679
  24.780        390.00	    21.633
  24.800        363.33	    20.881
  24.820        312.50	    19.365
  24.840        270.00	    18.000
  24.860        278.33	    18.276
  24.880        255.00	    17.493
  24.900        227.50	    16.523
  24.920        197.50	    15.395
  24.940        189.17	    15.067
  24.960        165.83	    14.107
  24.980        150.83	    13.454
  25.000        154.17	    13.601
  25.020        130.00	    12.490
  25.040        120.83	    12.042
  25.060        135.00	    12.728
  25.080        143.33	    13.115
  25.100        141.67	    13.038
  25.120        150.83	    13.454
  25.140        153.33	    13.565
  25.160        157.50	    13.748
  25.180        184.17	    14.866
  25.200        225.00	    16.432
  25.220        260.00	    17.664
  25.240        273.33	    18.111
  25.260        283.33	    18.439
  25.280        310.83	    19.313
  25.300        286.67	    18.547
  25.320        267.50	    17.916
  25.340        250.00	    17.321
  25.360        235.00	    16.793
  25.380        199.17	    15.460
  25.400        160.83	    13.892
  25.420        152.50	    13.528
  25.440        140.00	    12.961
  25.460        121.67	    12.083
  25.480        124.17	    12.207
  25.500        120.00	    12.000
  25.520        125.83	    12.288
  25.540        134.17	    12.689
  25.560        124.17	    12.207
  25.580        134.17	    12.689
  25.600        136.67	    12.806
  25.620        143.33	    13.115
  25.640        136.67	    12.806
  25.660        142.50	    13.077
  25.680        148.33	    13.342
  25.700        134.17	    12.689
  25.720        139.17	    12.923
  25.740        120.00	    12.000
  25.760        131.67	    12.570
  25.780        132.50	    12.610
  25.800        114.17	    11.705
  25.820        111.67	    11.576
  25.840         99.17	    10.909
  25.860        103.33	    11.136
  25.880         87.50	    10.247
  25.900         83.33	    10.000
  25.920         65.83	     8.888
  25.940         66.67	     8.944
  25.960         75.83	     9.539
  25.980         62.50	     8.660
  26.000         66.67	     8.944
  26.020         66.67	     8.944
  26.040         80.00	     9.798
  26.060         55.83	     8.185
  26.080         65.83	     8.888
  26.100         60.83	     8.544
  26.120         66.67	     8.944
  26.140         64.17	     8.775
  26.160         73.33	     9.381
  26.180         55.83	     8.185
  26.200         61.67	     8.602
  26.220         76.67	     9.592
  26.240         60.83	     8.544
  26.260         74.17	     9.434
  26.280         73.33	     9.381
  26.300         65.83	     8.888
  26.320         89.17	    10.344
  26.340         90.83	    10.440
  26.360         71.67	     9.274
  26.380         84.17	    10.050
  26.400        103.33	    11.136
  26.420        100.00	    10.954
  26.440        106.67	    11.314
  26.460        115.00	    11.747
  26.480        128.33	    12.410
  26.500        145.00	    13.191
  26.520        144.17	    13.153
  26.540        132.50	    12.610
  26.560        168.33	    14.213
  26.580        156.67	    13.711
  26.600        147.50	    13.304
  26.620        209.17	    15.843
  26.640        207.50	    15.780
  26.660        345.83	    20.372
  26.680        420.00	    22.450
  26.700        529.17	    25.199
  26.720        565.83	    26.058
  26.740        685.83	    28.688
  26.760        719.17	    29.377
  26.780        765.83	    30.315
  26.800        744.17	    29.883
  26.820        702.50	    29.034
  26.840        674.17	    28.443
  26.860        641.67	    27.749
  26.880        571.67	    26.192
  26.900        551.67	    25.729
  26.920        517.50	    24.920
  26.940        464.17	    23.601
  26.960        418.33	    22.405
  26.980        395.00	    21.772
  27.000        358.33	    20.736
  27.020        360.83	    20.809
  27.040        363.33	    20.881
  27.060        302.50	    19.053
  27.080        246.67	    17.205
  27.100        225.83	    16.462
  27.120        218.33	    16.186
  27.140        171.67	    14.353
  27.160        181.67	    14.765
  27.180        153.33	    13.565
  27.200        131.67	    12.570
  27.220        114.17	    11.705
  27.240        115.83	    11.790
  27.260        120.00	    12.000
  27.280        113.33	    11.662
  27.300        139.17	    12.923
  27.320        188.33	    15.033
  27.340        184.17	    14.866
  27.360        165.83	    14.107
  27.380        147.50	    13.304
  27.400        155.00	    13.638
  27.420        155.00	    13.638
  27.440        128.33	    12.410
  27.460         95.00	    10.677
  27.480        102.50	    11.091
  27.500        113.33	    11.662
  27.520        115.83	    11.790
  27.540        127.50	    12.369
  27.560        118.33	    11.916
  27.580        127.50	    12.369
  27.600        120.83	    12.042
  27.620        142.50	    13.077
  27.640        139.17	    12.923
  27.660        161.67	    13.928
  27.680        143.33	    13.115
  27.700        144.17	    13.153
  27.720        135.83	    12.767
  27.740        116.67	    11.832
  27.760        140.00	    12.961
  27.780        150.00	    13.416
  27.800        160.83	    13.892
  27.820        169.17	    14.248
  27.840        166.67	    14.142
  27.860        217.50	    16.155
  27.880        227.50	    16.523
  27.900        255.83	    17.521
  27.920        262.50	    17.748
  27.940        270.00	    18.000
  27.960        275.83	    18.193
  27.980        318.33	    19.545
  28.000        344.17	    20.322
  28.020        359.17	    20.761
  28.040        409.17	    22.159
  28.060        383.33	    21.448
  28.080        401.67	    21.954
  28.100        398.33	    21.863
  28.120        327.50	    19.824
  28.140        275.83	    18.193
  28.160        244.17	    17.117
  28.180        233.33	    16.733
  28.200        184.17	    14.866
  28.220        184.17	    14.866
  28.240        196.67	    15.362
  28.260        155.00	    13.638
  28.280        150.00	    13.416
  28.300        141.67	    13.038
  28.320        145.83	    13.229
  28.340        152.50	    13.528
  28.360        133.33	    12.649
  28.380        135.83	    12.767
  28.400        117.50	    11.874
  28.420        144.17	    13.153
  28.440        119.17	    11.958
  28.460        127.50	    12.369
  28.480        137.50	    12.845
  28.500        116.67	    11.832
  28.520        103.33	    11.136
  28.540         94.17	    10.630
  28.560         83.33	    10.000
  28.580        117.50	    11.874
  28.600        108.33	    11.402
  28.620         85.83	    10.149
  28.640        120.00	    12.000
  28.660        118.33	    11.916
  28.680        134.17	    12.689
  28.700        155.83	    13.675
  28.720        143.33	    13.115
  28.740        145.00	    13.191
  28.760        187.50	    15.000
  28.780        178.33	    14.629
  28.800        183.33	    14.832
  28.820        167.50	    14.177
  28.840        160.00	    13.856
  28.860        155.83	    13.675
  28.880        128.33	    12.410
  28.900        160.00	    13.856
  28.920        158.33	    13.784
  28.940        130.83	    12.530
  28.960        107.50	    11.358
  28.980         94.17	    10.630
  29.000         80.00	     9.798
  29.020         70.00	     9.165
  29.040         70.00	     9.165
  29.060         51.67	     7.874
  29.080         60.83	     8.544
  29.100         52.50	     7.937
  29.120         45.83	     7.416
  29.140         45.83	     7.416
  29.160         52.50	     7.937
  29.180         50.00	     7.746
  29.200         42.50	     7.141
  29.220         41.67	     7.071
  29.240         35.83	     6.557
  29.260         45.83	     7.416
  29.280         44.17	     7.280
  29.300         46.67	     7.483
  29.320         38.33	     6.782
  29.340         47.50	     7.550
  29.360         38.33	     6.782
  29.380         41.67	     7.071
  29.400         45.00	     7.348
  29.420         37.50	     6.708
  29.440         43.33	     7.211
  29.460         40.83	     7.000
  29.480         32.50	     6.245
  29.500         35.00	     6.481
  29.520         37.50	     6.708
  29.540         37.50	     6.708
  29.560         34.17	     6.403
  29.580         40.00	     6.928
  29.600         50.83	     7.810
  29.620         46.67	     7.483
  29.640         46.67	     7.483
  29.660         40.83	     7.000
  29.680         45.00	     7.348
  29.700         40.00	     6.928
  29.720         53.33	     8.000
  29.740         44.17	     7.280
  29.760         49.17	     7.681
  29.780         48.33	     7.616
  29.800         65.00	     8.832
  29.820         44.17	     7.280
  29.840         56.67	     8.246
  29.860         67.50	     9.000
  29.880         76.67	     9.592
  29.900         88.33	    10.296
  29.920         93.33	    10.583
  29.940         98.33	    10.863
  29.960        127.50	    12.369
  29.980        130.83	    12.530
  30.000        130.83	    12.530
  30.020        120.83	    12.042
  30.040        122.50	    12.124
  30.060        104.17	    11.180
  30.080        110.00	    11.489
  30.100        120.83	    12.042
  30.120        119.17	    11.958
  30.140        100.83	    11.000
  30.160         83.33	    10.000
  30.180        105.83	    11.269
  30.200         88.33	    10.296
  30.220         94.17	    10.630
  30.240         98.33	    10.863
  30.260        100.00	    10.954
  30.280         81.67	     9.899
  30.300         93.33	    10.583
  30.320        110.83	    11.533
  30.340        101.67	    11.045
  30.360        126.67	    12.329
  30.380        102.50	    11.091
  30.400        113.33	    11.662
  30.420        129.17	    12.450
  30.440        138.33	    12.884
  30.460        105.00	    11.225
  30.480        118.33	    11.916
  30.500        132.50	    12.610
  30.520        129.17	    12.450
  30.540        151.67	    13.491
  30.560        138.33	    12.884
  30.580        146.67	    13.266
  30.600        120.00	    12.000
  30.620        143.33	    13.115
  30.640        117.50	    11.874
  30.660        105.83	    11.269
  30.680        107.50	    11.358
  30.700         75.00	     9.487
  30.720         75.83	     9.539
  30.740         60.00	     8.485
  30.760         77.50	     9.644
  30.780         61.67	     8.602
  30.800         63.33	     8.718
  30.820         79.17	     9.747
  30.840         74.17	     9.434
  30.860         64.17	     8.775
  30.880         70.83	     9.220
  30.900         55.00	     8.124
  30.920         69.17	     9.110
  30.940         75.83	     9.539
  30.960         75.83	     9.539
  30.980         94.17	    10.630
  31.000         81.67	     9.899
  31.020         75.83	     9.539
  31.040         78.33	     9.695
  31.060         86.67	    10.198
  31.080         70.00	     9.165
  31.100         72.50	     9.327
  31.120         79.17	     9.747
  31.140         55.00	     8.124
  31.160         62.50	     8.660
  31.180         60.00	     8.485
  31.200         70.83	     9.220
  31.220         77.50	     9.644
  31.240         79.17	     9.747
  31.260         85.00	    10.100
  31.280         75.83	     9.539
  31.300         95.83	    10.724
  31.320        110.00	    11.489
  31.340        110.83	    11.533
  31.360        126.67	    12.329
  31.380        116.67	    11.832
  31.400        107.50	    11.358
  31.420        105.83	    11.269
  31.440         95.00	    10.677
  31.460        117.50	    11.874
  31.480         95.83	    10.724
  31.500         98.33	    10.863
  31.520         80.83	     9.849
  31.540         90.00	    10.392
  31.560         86.67	    10.198
  31.580         63.33	     8.718
  31.600         70.83	     9.220
  31.620         74.17	     9.434
  31.640         90.00	    10.392
  31.660        105.00	    11.225
  31.680        108.33	    11.402
  31.700         87.50	    10.247
  31.720         85.00	    10.100
  31.740         95.00	    10.677
  31.760         94.17	    10.630
  31.780         87.50	    10.247
  31.800         78.33	     9.695
  31.820         82.50	     9.950
  31.840         58.33	     8.367
  31.860         60.83	     8.544
  31.880         71.67	     9.274
  31.900         58.33	     8.367
  31.920         64.17	     8.775
  31.940         46.67	     7.483
  31.960         60.83	     8.544
  31.980         72.50	     9.327
  32.000         60.83	     8.544
  32.020         67.50	     9.000
  32.040         67.50	     9.000
  32.060         84.17	    10.050
  32.080         67.50	     9.000
  32.100         81.67	     9.899
  32.120        107.50	    11.358
  32.140         80.83	     9.849
  32.160         90.83	    10.440
  32.180         80.00	     9.798
  32.200         85.83	    10.149
  32.220         95.83	    10.724
  32.240         80.00	     9.798
  32.260         82.50	     9.950
  32.280         75.00	     9.487
  32.300         73.33	     9.381
  32.320         57.50	     8.307
  32.340         66.67	     8.944
  32.360         75.83	     9.539
  32.380         67.50	     9.000
  32.400         65.83	     8.888
  32.420         51.67	     7.874
  32.440         60.83	     8.544
  32.460         48.33	     7.616
  32.480         38.33	     6.782
  32.500         52.50	     7.937
  32.520         37.50	     6.708
  32.540         55.00	     8.124
  32.560         49.17	     7.681
  32.580         42.50	     7.141
  32.600         33.33	     6.325
  32.620         40.83	     7.000
  32.640         42.50	     7.141
  32.660         43.33	     7.211
  32.680         45.83	     7.416
  32.700         51.67	     7.874
  32.720         40.83	     7.000
  32.740         48.33	     7.616
  32.760         43.33	     7.211
  32.780         49.17	     7.681
  32.800         39.17	     6.856
  32.820         54.17	     8.062
  32.840         37.50	     6.708
  32.860         48.33	     7.616
  32.880         45.83	     7.416
  32.900         50.00	     7.746
  32.920         63.33	     8.718
  32.940         45.00	     7.348
  32.960         42.50	     7.141
  32.980         47.50	     7.550
  33.000         37.50	     6.708
  33.020         51.67	     7.874
  33.040         55.00	     8.124
  33.060         64.17	     8.775
  33.080         56.67	     8.246
  33.100         70.83	     9.220
  33.120         86.67	    10.198
  33.140         92.50	    10.536
  33.160         93.33	    10.583
  33.180        114.17	    11.705
  33.200         92.50	    10.536
  33.220         97.50	    10.817
  33.240        105.83	    11.269
  33.260         87.50	    10.247
  33.280         87.50	    10.247
  33.300         90.00	    10.392
  33.320         77.50	     9.644
  33.340         54.17	     8.062
  33.360         51.67	     7.874
  33.380         65.83	     8.888
  33.400         52.50	     7.937
  33.420         52.50	     7.937
  33.440         45.00	     7.348
  33.460         40.00	     6.928
  33.480         31.67	     6.164
  33.500         50.00	     7.746
  33.520         55.83	     8.185
  33.540         49.17	     7.681
  33.560         50.00	     7.746
  33.580         39.17	     6.856
  33.600         41.67	     7.071
  33.620         45.83	     7.416
  33.640         51.67	     7.874
  33.660         53.33	     8.000
  33.680         43.33	     7.211
  33.700         40.83	     7.000
  33.720         40.83	     7.000
  33.740         45.00	     7.348
  33.760         50.83	     7.810
  33.780         40.00	     6.928
  33.800         31.67	     6.164
  33.820         31.67	     6.164
  33.840         31.67	     6.164
  33.860         25.83	     5.568
  33.880         30.83	     6.083
  33.900         50.83	     7.810
  33.920         36.67	     6.633
  33.940         49.17	     7.681
  33.960         47.50	     7.550
  33.980         53.33	     8.000
  34.000         52.50	     7.937
  34.020         56.67	     8.246
  34.040         45.83	     7.416
  34.060         62.50	     8.660
  34.080         55.00	     8.124
  34.100         55.83	     8.185
  34.120         48.33	     7.616
  34.140         60.83	     8.544
  34.160         53.33	     8.000
  34.180         61.67	     8.602
  34.200         56.67	     8.246
  34.220         51.67	     7.874
  34.240         47.50	     7.550
  34.260         44.17	     7.280
  34.280         60.83	     8.544
  34.300         59.17	     8.426
  34.320         40.83	     7.000
  34.340         45.00	     7.348
  34.360         49.17	     7.681
  34.380         53.33	     8.000
  34.400         45.83	     7.416
  34.420         56.67	     8.246
  34.440         52.50	     7.937
  34.460         54.17	     8.062
  34.480         53.33	     8.000
  34.500         54.17	     8.062
  34.520         65.00	     8.832
  34.540         53.33	     8.000
  34.560         69.17	     9.110
  34.580         74.17	     9.434
  34.600         72.50	     9.327
  34.620         82.50	     9.950
  34.640         91.67	    10.488
  34.660         92.50	    10.536
  34.680        105.83	    11.269
  34.700        120.83	    12.042
  34.720        103.33	    11.136
  34.740         85.00	    10.100
  34.760        117.50	    11.874
  34.780         75.83	     9.539
  34.800         99.17	    10.909
  34.820         95.83	    10.724
  34.840         77.50	     9.644
  34.860         76.67	     9.592
  34.880         74.17	     9.434
  34.900         71.67	     9.274
  34.920         85.83	    10.149
  34.940         82.50	     9.950
  34.960         74.17	     9.434
  34.980         90.00	    10.392
  35.000         78.33	     9.695
  35.020         73.33	     9.381
  35.040         90.00	    10.392
  35.060         72.50	     9.327
  35.080         92.50	    10.536
  35.100         99.17	    10.909
  35.120        110.83	    11.533
  35.140        110.83	    11.533
  35.160        110.83	    11.533
  35.180         93.33	    10.583
  35.200         99.17	    10.909
  35.220        105.00	    11.225
  35.240         86.67	    10.198
  35.260         85.83	    10.149
  35.280        104.17	    11.180
  35.300         91.67	    10.488
  35.320         72.50	     9.327
  35.340         93.33	    10.583
  35.360         92.50	    10.536
  35.380         65.00	     8.832
  35.400         89.17	    10.344
  35.420         86.67	    10.198
  35.440         63.33	     8.718
  35.460         83.33	    10.000
  35.480         87.50	    10.247
  35.500         73.33	     9.381
  35.520         91.67	    10.488
  35.540         95.00	    10.677
  35.560         84.17	    10.050
  35.580         82.50	     9.950
  35.600        100.83	    11.000
  35.620        125.83	    12.288
  35.640        124.17	    12.207
  35.660        116.67	    11.832
  35.680        145.00	    13.191
  35.700        127.50	    12.369
  35.720        122.50	    12.124
  35.740        101.67	    11.045
  35.760        100.83	    11.000
  35.780         89.17	    10.344
  35.800         71.67	     9.274
  35.820         83.33	    10.000
  35.840         88.33	    10.296
  35.860         78.33	     9.695
  35.880         80.00	     9.798
  35.900         72.50	     9.327
  35.920         70.00	     9.165
  35.940         75.83	     9.539
  35.960         64.17	     8.775
  35.980         70.83	     9.220
  36.000         65.00	     8.832
  36.020         62.50	     8.660
  36.040         73.33	     9.381
  36.060         70.83	     9.220
  36.080         68.33	     9.055
  36.100         70.00	     9.165
  36.120         52.50	     7.937
  36.140         83.33	    10.000
  36.160         70.83	     9.220
  36.180         70.00	     9.165
  36.200         67.50	     9.000
  36.220         79.17	     9.747
  36.240         66.67	     8.944
  36.260         65.83	     8.888
  36.280         65.00	     8.832
  36.300         50.83	     7.810
  36.320         46.67	     7.483
  36.340         61.67	     8.602
  36.360         50.83	     7.810
  36.380         48.33	     7.616
  36.400         40.83	     7.000
  36.420         40.83	     7.000
  36.440         40.83	     7.000
  36.460         46.67	     7.483
  36.480         45.83	     7.416
  36.500         44.17	     7.280
  36.520         42.50	     7.141
  36.540         55.00	     8.124
  36.560         63.33	     8.718
  36.580         77.50	     9.644
  36.600         73.33	     9.381
  36.620         77.50	     9.644
  36.640        100.83	    11.000
  36.660        128.33	    12.410
  36.680        105.83	    11.269
  36.700        119.17	    11.958
  36.720        116.67	    11.832
  36.740         86.67	    10.198
  36.760        100.00	    10.954
  36.780         90.00	    10.392
  36.800         80.83	     9.849
  36.820         95.00	    10.677
  36.840         86.67	    10.198
  36.860         82.50	     9.950
  36.880         78.33	     9.695
  36.900         75.00	     9.487
  36.920         75.00	     9.487
  36.940         53.33	     8.000
  36.960         65.83	     8.888
  36.980         53.33	     8.000
  37.000         54.17	     8.062
  37.020         50.83	     7.810
  37.040         62.50	     8.660
  37.060         53.33	     8.000
  37.080         47.50	     7.550
  37.100         35.83	     6.557
  37.120         48.33	     7.616
  37.140         49.17	     7.681
  37.160         50.00	     7.746
  37.180         57.50	     8.307
  37.200         29.17	     5.916
  37.220         55.00	     8.124
  37.240         60.00	     8.485
  37.260         55.83	     8.185
  37.280         59.17	     8.426
  37.300         55.83	     8.185
  37.320         67.50	     9.000
  37.340         56.67	     8.246
  37.360         70.00	     9.165
  37.380         60.83	     8.544
  37.400         55.00	     8.124
  37.420         49.17	     7.681
  37.440         65.00	     8.832
  37.460         56.67	     8.246
  37.480         65.83	     8.888
  37.500         65.00	     8.832
  37.520         64.17	     8.775
  37.540         69.17	     9.110
  37.560         74.17	     9.434
  37.580         64.17	     8.775
  37.600         59.17	     8.426
  37.620         61.67	     8.602
  37.640         72.50	     9.327
  37.660         70.83	     9.220
  37.680         65.00	     8.832
  37.700         68.33	     9.055
  37.720         73.33	     9.381
  37.740         73.33	     9.381
  37.760         87.50	    10.247
  37.780         78.33	     9.695
  37.800         88.33	    10.296
  37.820         90.00	    10.392
  37.840         75.83	     9.539
  37.860         75.00	     9.487
  37.880         94.17	    10.630
  37.900         89.17	    10.344
  37.920         92.50	    10.536
  37.940         68.33	     9.055
  37.960         73.33	     9.381
  37.980         75.00	     9.487
  38.000         55.00	     8.124
  38.020         60.83	     8.544
  38.040         45.83	     7.416
  38.060         43.33	     7.211
  38.080         47.50	     7.550
  38.100         36.67	     6.633
  38.120         40.00	     6.928
  38.140         39.17	     6.856
  38.160         43.33	     7.211
  38.180         39.17	     6.856
  38.200         41.67	     7.071
  38.220         32.50	     6.245
  38.240         29.17	     5.916
  38.260         34.17	     6.403
  38.280         35.83	     6.557
  38.300         35.00	     6.481
  38.320         31.67	     6.164
  38.340         32.50	     6.245
  38.360         27.50	     5.745
  38.380         25.83	     5.568
  38.400         35.83	     6.557
  38.420         37.50	     6.708
  38.440         25.00	     5.477
  38.460         28.33	     5.831
  38.480         36.67	     6.633
  38.500         33.33	     6.325
  38.520         50.00	     7.746
  38.540         45.00	     7.348
  38.560         45.83	     7.416
  38.580         49.17	     7.681
  38.600         60.00	     8.485
  38.620         50.00	     7.746
  38.640         49.17	     7.681
  38.660         55.83	     8.185
  38.680         45.00	     7.348
  38.700         52.50	     7.937
  38.720         47.50	     7.550
  38.740         63.33	     8.718
  38.760         56.67	     8.246
  38.780         48.33	     7.616
  38.800         48.33	     7.616
  38.820         61.67	     8.602
  38.840         46.67	     7.483
  38.860         65.00	     8.832
  38.880         54.17	     8.062
  38.900         52.50	     7.937
  38.920         60.00	     8.485
  38.940         60.00	     8.485
  38.960         46.67	     7.483
  38.980         65.00	     8.832
  39.000         51.67	     7.874
  39.020         48.33	     7.616
  39.040         45.00	     7.348
  39.060         55.83	     8.185
  39.080         48.33	     7.616
  39.100         46.67	     7.483
  39.120         35.83	     6.557
  39.140         40.83	     7.000
  39.160         50.83	     7.810
  39.180         40.83	     7.000
  39.200         48.33	     7.616
  39.220         41.67	     7.071
  39.240         35.83	     6.557
  39.260         38.33	     6.782
  39.280         50.00	     7.746
  39.300         55.00	     8.124
  39.320         53.33	     8.000
  39.340         65.00	     8.832
  39.360         51.67	     7.874
  39.380         45.83	     7.416
  39.400         40.00	     6.928
  39.420         61.67	     8.602
  39.440         45.83	     7.416
  39.460         50.00	     7.746
  39.480         38.33	     6.782
  39.500         40.83	     7.000
  39.520         65.83	     8.888
  39.540         57.50	     8.307
  39.560         80.00	     9.798
  39.580        127.50	    12.369
  39.600        111.67	    11.576
  39.620         90.00	    10.392
  39.640         86.67	    10.198
  39.660        108.33	    11.402
  39.680        102.50	    11.091
  39.700         77.50	     9.644
  39.720         84.17	    10.050
  39.740         82.50	     9.950
  39.760         70.00	     9.165
  39.780         61.67	     8.602
  39.800         67.50	     9.000
  39.820         56.67	     8.246
  39.840         56.67	     8.246
  39.860         50.00	     7.746
  39.880         50.83	     7.810
  39.900         48.33	     7.616
  39.920         42.50	     7.141
  39.940         55.00	     8.124
  39.960         50.00	     7.746
  39.980         42.50	     7.141
  40.000         57.50	     8.307
  40.020         45.00	     7.348
  40.040         49.17	     7.681
  40.060         61.67	     8.602
  40.080         55.83	     8.185
  40.100         35.00	     6.481
  40.120         50.00	     7.746
  40.140         50.00	     7.746
  40.160         48.33	     7.616
  40.180         50.83	     7.810
  40.200         38.33	     6.782
  40.220         45.00	     7.348
  40.240         35.83	     6.557
  40.260         33.33	     6.325
  40.280         30.83	     6.083
  40.300         54.17	     8.062
  40.320         46.67	     7.483
  40.340         42.50	     7.141
  40.360         40.83	     7.000
  40.380         55.83	     8.185
  40.400         64.17	     8.775
  40.420         74.17	     9.434
  40.440         72.50	     9.327
  40.460         64.17	     8.775
  40.480         66.67	     8.944
  40.500         67.50	     9.000
  40.520         46.67	     7.483
  40.540         56.67	     8.246
  40.560         49.17	     7.681
  40.580         49.17	     7.681
  40.600         34.17	     6.403
  40.620         42.50	     7.141
  40.640         41.67	     7.071
  40.660         45.00	     7.348
  40.680         47.50	     7.550
  40.700         40.83	     7.000
  40.720         44.17	     7.280
  40.740         27.50	     5.745
  40.760         30.00	     6.000
  40.780         38.33	     6.782
  40.800         47.50	     7.550
  40.820         40.00	     6.928
  40.840         32.50	     6.245
  40.860         28.33	     5.831
  40.880         39.17	     6.856
  40.900         34.17	     6.403
  40.920         44.17	     7.280
  40.940         36.67	     6.633
  40.960         53.33	     8.000
  40.980         35.83	     6.557
  41.000         47.50	     7.550
  41.020         44.17	     7.280
  41.040         45.00	     7.348
  41.060         44.17	     7.280
  41.080         35.00	     6.481
  41.100         36.67	     6.633
  41.120         44.17	     7.280
  41.140         36.67	     6.633
  41.160         39.17	     6.856
  41.180         39.17	     6.856
  41.200         28.33	     5.831
  41.220         38.33	     6.782
  41.240         33.33	     6.325
  41.260         54.17	     8.062
  41.280         40.00	     6.928
  41.300         53.33	     8.000
  41.320         37.50	     6.708
  41.340         51.67	     7.874
  41.360         47.50	     7.550
  41.380         48.33	     7.616
  41.400         37.50	     6.708
  41.420         60.00	     8.485
  41.440         43.33	     7.211
  41.460         35.83	     6.557
  41.480         43.33	     7.211
  41.500         42.50	     7.141
  41.520         40.00	     6.928
  41.540         57.50	     8.307
  41.560         45.83	     7.416
  41.580         45.83	     7.416
  41.600         31.67	     6.164
  41.620         49.17	     7.681
  41.640         40.00	     6.928
  41.660         45.00	     7.348
  41.680         47.50	     7.550
  41.700         55.83	     8.185
  41.720         43.33	     7.211
  41.740         55.83	     8.185
  41.760         55.00	     8.124
  41.780         60.83	     8.544
  41.800         73.33	     9.381
  41.820         85.00	    10.100
  41.840         99.17	    10.909
  41.860        104.17	    11.180
  41.880        100.00	    10.954
  41.900         91.67	    10.488
  41.920         83.33	    10.000
  41.940         85.00	    10.100
  41.960         75.83	     9.539
  41.980         75.83	     9.539
  42.000         80.83	     9.849
  42.020        106.67	    11.314
  42.040         72.50	     9.327
  42.060         61.67	     8.602
  42.080         77.50	     9.644
  42.100         62.50	     8.660
  42.120         60.00	     8.485
  42.140         66.67	     8.944
  42.160         60.83	     8.544
  42.180         55.83	     8.185
  42.200         55.00	     8.124
  42.220         70.83	     9.220
  42.240         57.50	     8.307
  42.260         49.17	     7.681
  42.280         45.83	     7.416
  42.300         55.00	     8.124
  42.320         59.17	     8.426
  42.340         48.33	     7.616
  42.360         50.83	     7.810
  42.380         43.33	     7.211
  42.400         46.67	     7.483
  42.420         42.50	     7.141
  42.440         59.17	     8.426
  42.460         59.17	     8.426
  42.480         66.67	     8.944
  42.500         89.17	    10.344
  42.520         99.17	    10.909
  42.540         86.67	    10.198
  42.560         93.33	    10.583
  42.580        111.67	    11.576
  42.600         93.33	    10.583
  42.620         82.50	     9.950
  42.640         85.83	    10.149
  42.660         89.17	    10.344
  42.680         87.50	    10.247
  42.700         70.00	     9.165
  42.720         60.83	     8.544
  42.740         64.17	     8.775
  42.760         52.50	     7.937
  42.780         59.17	     8.426
  42.800         40.83	     7.000
  42.820         57.50	     8.307
  42.840         51.67	     7.874
  42.860         53.33	     8.000
  42.880         49.17	     7.681
  42.900         59.17	     8.426
  42.920         60.83	     8.544
  42.940         64.17	     8.775
  42.960         49.17	     7.681
  42.980         47.50	     7.550
  43.000         52.50	     7.937
  43.020         62.50	     8.660
  43.040         43.33	     7.211
  43.060         45.00	     7.348
  43.080         48.33	     7.616
  43.100         45.00	     7.348
  43.120         36.67	     6.633
  43.140         46.67	     7.483
  43.160         40.83	     7.000
  43.180         41.67	     7.071
  43.200         37.50	     6.708
  43.220         39.17	     6.856
  43.240         39.17	     6.856
  43.260         35.83	     6.557
  43.280         30.83	     6.083
  43.300         33.33	     6.325
  43.320         41.67	     7.071
  43.340         41.67	     7.071
  43.360         41.67	     7.071
  43.380         40.00	     6.928
  43.400         30.83	     6.083
  43.420         32.50	     6.245
  43.440         38.33	     6.782
  43.460         34.17	     6.403
  43.480         34.17	     6.403
  43.500         35.00	     6.481
  43.520         43.33	     7.211
  43.540         33.33	     6.325
  43.560         35.83	     6.557
  43.580         35.00	     6.481
  43.600         45.00	     7.348
  43.620         32.50	     6.245
  43.640         39.17	     6.856
  43.660         35.83	     6.557
  43.680         49.17	     7.681
  43.700         38.33	     6.782
  43.720         40.00	     6.928
  43.740         31.67	     6.164
  43.760         45.00	     7.348
  43.780         47.50	     7.550
  43.800         26.67	     5.657
  43.820         47.50	     7.550
  43.840         42.50	     7.141
  43.860         20.83	     5.000
  43.880         49.17	     7.681
  43.900         36.67	     6.633
  43.920         39.17	     6.856
  43.940         46.67	     7.483
  43.960         34.17	     6.403
  43.980         45.00	     7.348
  44.000         42.50	     7.141
  44.020         37.50	     6.708
  44.040         35.00	     6.481
  44.060         33.33	     6.325
  44.080         34.17	     6.403
  44.100         31.67	     6.164
  44.120         45.83	     7.416
  44.140         43.33	     7.211
  44.160         37.50	     6.708
  44.180         29.17	     5.916
  44.200         30.83	     6.083
  44.220         40.83	     7.000
  44.240         40.83	     7.000
  44.260         51.67	     7.874
  44.280         31.67	     6.164
  44.300         47.50	     7.550
  44.320         45.00	     7.348
  44.340         39.17	     6.856
  44.360         34.17	     6.403
  44.380         45.83	     7.416
  44.400         41.67	     7.071
  44.420         41.67	     7.071
  44.440         30.83	     6.083
  44.460         37.50	     6.708
  44.480         46.67	     7.483
  44.500         48.33	     7.616
  44.520         31.67	     6.164
  44.540         41.67	     7.071
  44.560         29.17	     5.916
  44.580         50.00	     7.746
  44.600         44.17	     7.280
  44.620         37.50	     6.708
  44.640         37.50	     6.708
  44.660         36.67	     6.633
  44.680         39.17	     6.856
  44.700         38.33	     6.782
  44.720         38.33	     6.782
  44.740         35.00	     6.481
  44.760         43.33	     7.211
  44.780         30.00	     6.000
  44.800         47.50	     7.550
  44.820         51.67	     7.874
  44.840         49.17	     7.681
  44.860         51.67	     7.874
  44.880         55.00	     8.124
  44.900         47.50	     7.550
  44.920         52.50	     7.937
  44.940         52.50	     7.937
  44.960         57.50	     8.307
  44.980         64.17	     8.775
  45.000         55.83	     8.185
  45.020         72.50	     9.327
  45.040         54.17	     8.062
  45.060         66.67	     8.944
  45.080         65.00	     8.832
  45.100        100.00	    10.954
  45.120         94.17	    10.630
  45.140         70.83	     9.220
  45.160         75.83	     9.539
  45.180         84.17	    10.050
  45.200         75.00	     9.487
  45.220         94.17	    10.630
  45.240         78.33	     9.695
  45.260         88.33	    10.296
  45.280         70.83	     9.220
  45.300        107.50	    11.358
  45.320        100.83	    11.000
  45.340         84.17	    10.050
  45.360         92.50	    10.536
  45.380         88.33	    10.296
  45.400         96.67	    10.770
  45.420         96.67	    10.770
  45.440         96.67	    10.770
  45.460        101.67	    11.045
  45.480        101.67	    11.045
  45.500        113.33	    11.662
  45.520         95.83	    10.724
  45.540        104.17	    11.180
  45.560        111.67	    11.576
  45.580        131.67	    12.570
  45.600        110.00	    11.489
  45.620        137.50	    12.845
  45.640        143.33	    13.115
  45.660        146.67	    13.266
  45.680        119.17	    11.958
  45.700        155.83	    13.675
  45.720        164.17	    14.036
  45.740        145.00	    13.191
  45.760        131.67	    12.570
  45.780        133.33	    12.649
  45.800        119.17	    11.958
  45.820        112.50	    11.619
  45.840        113.33	    11.662
  45.860        109.17	    11.446
  45.880        101.67	    11.045
  45.900        110.83	    11.533
  45.920        139.17	    12.923
  45.940        161.67	    13.928
  45.960        115.83	    11.790
  45.980         97.50	    10.817
  46.000         93.33	    10.583
  46.020         75.00	     9.487
  46.040         87.50	    10.247
  46.060         99.17	    10.909
  46.080         94.17	    10.630
  46.100         63.33	     8.718
  46.120         55.00	     8.124
  46.140         60.83	     8.544
  46.160         62.50	     8.660
  46.180         55.83	     8.185
  46.200         49.17	     7.681
  46.220         52.50	     7.937
  46.240         49.17	     7.681
  46.260         54.17	     8.062
  46.280         47.50	     7.550
  46.300         43.33	     7.211
  46.320         49.17	     7.681
  46.340         45.00	     7.348
  46.360         44.17	     7.280
  46.380         35.00	     6.481
  46.400         32.50	     6.245
  46.420         35.83	     6.557
  46.440         31.67	     6.164
  46.460         37.50	     6.708
  46.480         34.17	     6.403
  46.500         33.33	     6.325
  46.520         40.00	     6.928
  46.540         34.17	     6.403
  46.560         42.50	     7.141
  46.580         30.83	     6.083
  46.600         38.33	     6.782
  46.620         38.33	     6.782
  46.640         36.67	     6.633
  46.660         27.50	     5.745
  46.680         30.83	     6.083
  46.700         37.50	     6.708
  46.720         24.17	     5.385
  46.740         32.50	     6.245
  46.760         40.83	     7.000
  46.780         41.67	     7.071
  46.800         28.33	     5.831
  46.820         34.17	     6.403
  46.840         25.83	     5.568
  46.860         41.67	     7.071
  46.880         21.67	     5.099
  46.900         29.17	     5.916
  46.920         25.83	     5.568
  46.940         24.17	     5.385
  46.960         33.33	     6.325
  46.980         34.17	     6.403
  47.000         26.67	     5.657
  47.020         34.17	     6.403
  47.040         37.50	     6.708
  47.060         34.17	     6.403
  47.080         36.67	     6.633
  47.100         22.50	     5.196
  47.120         36.67	     6.633
  47.140         44.17	     7.280
  47.160         38.33	     6.782
  47.180         36.67	     6.633
  47.200         45.83	     7.416
  47.220         55.83	     8.185
  47.240         34.17	     6.403
  47.260         41.67	     7.071
  47.280         46.67	     7.483
  47.300         42.50	     7.141
  47.320         45.83	     7.416
  47.340         50.83	     7.810
  47.360         45.00	     7.348
  47.380         38.33	     6.782
  47.400         40.83	     7.000
  47.420         48.33	     7.616
  47.440         47.50	     7.550
  47.460         40.83	     7.000
  47.480         33.33	     6.325
  47.500         26.67	     5.657
  47.520         24.17	     5.385
  47.540         27.50	     5.745
  47.560         30.00	     6.000
  47.580         30.00	     6.000
  47.600         35.83	     6.557
  47.620         35.83	     6.557
  47.640         33.33	     6.325
  47.660         42.50	     7.141
  47.680         25.83	     5.568
  47.700         32.50	     6.245
  47.720         25.00	     5.477
  47.740         30.83	     6.083
  47.760         22.50	     5.196
  47.780         27.50	     5.745
  47.800         30.00	     6.000
  47.820         35.00	     6.481
  47.840         27.50	     5.745
  47.860         25.00	     5.477
  47.880         22.50	     5.196
  47.900         36.67	     6.633
  47.920         27.50	     5.745
  47.940         29.17	     5.916
  47.960         24.17	     5.385
  47.980         41.67	     7.071
  48.000         35.83	     6.557
  48.020         37.50	     6.708
  48.040         43.33	     7.211
  48.060         47.50	     7.550
  48.080         60.00	     8.485
  48.100         38.33	     6.782
  48.120         55.83	     8.185
  48.140         57.50	     8.307
  48.160         43.33	     7.211
  48.180         53.33	     8.000
  48.200         53.33	     8.000
  48.220         57.50	     8.307
  48.240         61.67	     8.602
  48.260         51.67	     7.874
  48.280         70.00	     9.165
  48.300         68.33	     9.055
  48.320         63.33	     8.718
  48.340         71.67	     9.274
  48.360         71.67	     9.274
  48.380         53.33	     8.000
  48.400         70.00	     9.165
  48.420         78.33	     9.695
  48.440         50.83	     7.810
  48.460         59.17	     8.426
  48.480         57.50	     8.307
  48.500         58.33	     8.367
  48.520         60.00	     8.485
  48.540         56.67	     8.246
  48.560         66.67	     8.944
  48.580         52.50	     7.937
  48.600         65.00	     8.832
  48.620         62.50	     8.660
  48.640         34.17	     6.403
  48.660         60.83	     8.544
  48.680         60.83	     8.544
  48.700         39.17	     6.856
  48.720         55.83	     8.185
  48.740         34.17	     6.403
  48.760         45.83	     7.416
  48.780         45.00	     7.348
  48.800         37.50	     6.708
  48.820         52.50	     7.937
  48.840         38.33	     6.782
  48.860         37.50	     6.708
  48.880         45.83	     7.416
  48.900         42.50	     7.141
  48.920         36.67	     6.633
  48.940         35.00	     6.481
  48.960         34.17	     6.403
  48.980         35.83	     6.557
  49.000         48.33	     7.616
  49.020         40.00	     6.928
  49.040         42.50	     7.141
  49.060         47.50	     7.550
  49.080         34.17	     6.403
  49.100         44.17	     7.280
  49.120         44.17	     7.280
  49.140         33.33	     6.325
  49.160         32.50	     6.245
  49.180         39.17	     6.856
  49.200         30.83	     6.083
  49.220         35.00	     6.481
  49.240         43.33	     7.211
  49.260         40.83	     7.000
  49.280         40.83	     7.000
  49.300         48.33	     7.616
  49.320         55.83	     8.185
  49.340         60.83	     8.544
  49.360         58.33	     8.367
  49.380         50.00	     7.746
  49.400         69.17	     9.110
  49.420         42.50	     7.141
  49.440         59.17	     8.426
  49.460         70.83	     9.220
  49.480         50.00	     7.746
  49.500         48.33	     7.616
  49.520         48.33	     7.616
  49.540         50.00	     7.746
  49.560         37.50	     6.708
  49.580         51.67	     7.874
  49.600         55.83	     8.185
  49.620         45.00	     7.348
  49.640         51.67	     7.874
  49.660         43.33	     7.211
  49.680         41.67	     7.071
  49.700         52.50	     7.937
  49.720         50.00	     7.746
  49.740         51.67	     7.874
  49.760         55.00	     8.124
  49.780         52.50	     7.937
  49.800         50.83	     7.810
  49.820         53.33	     8.000
  49.840         59.17	     8.426
  49.860         58.33	     8.367
  49.880         65.00	     8.832
  49.900         70.83	     9.220
  49.920         65.83	     8.888
  49.940         65.83	     8.888
  49.960         56.67	     8.246
  49.980         52.50	     7.937
  50.000         61.67	     8.602
  50.020         82.50	     9.950
  50.040         65.83	     8.888
  50.060         70.83	     9.220
  50.080         71.67	     9.274
  50.100         57.50	     8.307
  50.120         83.33	    10.000
  50.140         87.50	    10.247
  50.160         95.83	    10.724
  50.180        124.17	    12.207
  50.200        125.83	    12.288
  50.220        133.33	    12.649
  50.240        160.83	    13.892
  50.260        180.00	    14.697
  50.280        210.00	    15.875
  50.300        164.17	    14.036
  50.320        140.83	    13.000
  50.340        140.00	    12.961
  50.360        131.67	    12.570
  50.380        119.17	    11.958
  50.400        132.50	    12.610
  50.420        110.83	    11.533
  50.440        102.50	    11.091
  50.460         84.17	    10.050
  50.480         69.17	     9.110
  50.500         66.67	     8.944
  50.520         59.17	     8.426
  50.540         67.50	     9.000
  50.560         60.00	     8.485
  50.580         65.83	     8.888
  50.600         59.17	     8.426
  50.620         49.17	     7.681
  50.640         45.00	     7.348
  50.660         50.83	     7.810
  50.680         53.33	     8.000
  50.700         80.83	     9.849
  50.720         62.50	     8.660
  50.740         59.17	     8.426
  50.760         72.50	     9.327
  50.780         61.67	     8.602
  50.800         75.83	     9.539
  50.820         61.67	     8.602
  50.840         65.83	     8.888
  50.860         67.50	     9.000
  50.880         76.67	     9.592
  50.900         61.67	     8.602
  50.920         62.50	     8.660
  50.940         40.00	     6.928
  50.960         37.50	     6.708
  50.980         47.50	     7.550
  51.000         46.67	     7.483
  51.020         35.83	     6.557
  51.040         38.33	     6.782
  51.060         40.00	     6.928
  51.080         32.50	     6.245
  51.100         34.17	     6.403
  51.120         34.17	     6.403
  51.140         30.00	     6.000
  51.160         45.00	     7.348
  51.180         49.17	     7.681
  51.200         46.67	     7.483
  51.220         60.00	     8.485
  51.240         57.50	     8.307
  51.260         56.67	     8.246
  51.280         63.33	     8.718
  51.300         45.00	     7.348
  51.320         50.00	     7.746
  51.340         54.17	     8.062
  51.360         60.00	     8.485
  51.380         63.33	     8.718
  51.400         61.67	     8.602
  51.420         75.00	     9.487
  51.440         50.83	     7.810
  51.460         60.83	     8.544
  51.480         48.33	     7.616
  51.500         47.50	     7.550
  51.520         58.33	     8.367
  51.540         55.83	     8.185
  51.560         36.67	     6.633
  51.580         45.83	     7.416
  51.600         38.33	     6.782
  51.620         30.00	     6.000
  51.640         30.83	     6.083
  51.660         35.83	     6.557
  51.680         38.33	     6.782
  51.700         35.00	     6.481
  51.720         25.83	     5.568
  51.740         38.33	     6.782
  51.760         30.00	     6.000
  51.780         35.00	     6.481
  51.800         31.67	     6.164
  51.820         25.83	     5.568
  51.840         26.67	     5.657
  51.860         30.00	     6.000
  51.880         24.17	     5.385
  51.900         30.00	     6.000
  51.920         24.17	     5.385
  51.940         30.83	     6.083
  51.960         20.00	     4.899
  51.980         30.83	     6.083
  52.000         38.33	     6.782
  52.020         24.17	     5.385
  52.040         23.33	     5.292
  52.060         39.17	     6.856
  52.080         29.17	     5.916
  52.100         38.33	     6.782
  52.120         34.17	     6.403
  52.140         30.00	     6.000
  52.160         32.50	     6.245
  52.180         33.33	     6.325
  52.200         51.67	     7.874
  52.220         35.00	     6.481
  52.240         28.33	     5.831
  52.260         33.33	     6.325
  52.280         41.67	     7.071
  52.300         45.83	     7.416
  52.320         44.17	     7.280
  52.340         45.00	     7.348
  52.360         38.33	     6.782
  52.380         47.50	     7.550
  52.400         53.33	     8.000
  52.420         46.67	     7.483
  52.440         51.67	     7.874
  52.460         53.33	     8.000
  52.480         40.83	     7.000
  52.500         56.67	     8.246
  52.520         44.17	     7.280
  52.540         46.67	     7.483
  52.560         44.17	     7.280
  52.580         44.17	     7.280
  52.600         53.33	     8.000
  52.620         51.67	     7.874
  52.640         45.00	     7.348
  52.660         62.50	     8.660
  52.680         46.67	     7.483
  52.700         49.17	     7.681
  52.720         57.50	     8.307
  52.740         45.83	     7.416
  52.760         44.17	     7.280
  52.780         38.33	     6.782
  52.800         40.00	     6.928
  52.820         35.00	     6.481
  52.840         45.83	     7.416
  52.860         39.17	     6.856
  52.880         45.83	     7.416
  52.900         45.00	     7.348
  52.920         37.50	     6.708
  52.940         49.17	     7.681
  52.960         43.33	     7.211
  52.980         43.33	     7.211
  53.000         53.33	     8.000
  53.020         40.00	     6.928
  53.040         35.83	     6.557
  53.060         53.33	     8.000
  53.080         49.17	     7.681
  53.100         40.00	     6.928
  53.120         46.67	     7.483
  53.140         45.00	     7.348
  53.160         53.33	     8.000
  53.180         49.17	     7.681
  53.200         34.17	     6.403
  53.220         49.17	     7.681
  53.240         39.17	     6.856
  53.260         53.33	     8.000
  53.280         48.33	     7.616
  53.300         37.50	     6.708
  53.320         50.00	     7.746
  53.340         39.17	     6.856
  53.360         36.67	     6.633
  53.380         53.33	     8.000
  53.400         55.83	     8.185
  53.420         45.00	     7.348
  53.440         52.50	     7.937
  53.460         50.00	     7.746
  53.480         45.00	     7.348
  53.500         38.33	     6.782
  53.520         35.83	     6.557
  53.540         44.17	     7.280
  53.560         39.17	     6.856
  53.580         41.67	     7.071
  53.600         51.67	     7.874
  53.620         54.17	     8.062
  53.640         38.33	     6.782
  53.660         31.67	     6.164
  53.680         39.17	     6.856
  53.700         45.00	     7.348
  53.720         40.83	     7.000
  53.740         33.33	     6.325
  53.760         45.00	     7.348
  53.780         40.83	     7.000
  53.800         30.00	     6.000
  53.820         27.50	     5.745
  53.840         34.17	     6.403
  53.860         33.33	     6.325
  53.880         39.17	     6.856
  53.900         45.83	     7.416
  53.920         35.83	     6.557
  53.940         39.17	     6.856
  53.960         31.67	     6.164
  53.980         35.00	     6.481
  54.000         35.00	     6.481
  54.020         45.00	     7.348
  54.040         38.33	     6.782
  54.060         35.00	     6.481
  54.080         38.33	     6.782
  54.100         39.17	     6.856
  54.120         41.67	     7.071
  54.140         33.33	     6.325
  54.160         37.50	     6.708
  54.180         31.67	     6.164
  54.200         37.50	     6.708
  54.220         32.50	     6.245
  54.240         32.50	     6.245
  54.260         38.33	     6.782
  54.280         39.17	     6.856
  54.300         35.00	     6.481
  54.320         30.83	     6.083
  54.340         33.33	     6.325
  54.360         40.00	     6.928
  54.380         35.00	     6.481
  54.400         42.50	     7.141
  54.420         44.17	     7.280
  54.440         51.67	     7.874
  54.460         30.00	     6.000
  54.480         40.83	     7.000
  54.500         48.33	     7.616
  54.520         46.67	     7.483
  54.540         45.83	     7.416
  54.560         54.17	     8.062
  54.580         38.33	     6.782
  54.600         51.67	     7.874
  54.620         40.83	     7.000
  54.640         53.33	     8.000
  54.660         41.67	     7.071
  54.680         54.17	     8.062
  54.700         49.17	     7.681
  54.720         48.33	     7.616
  54.740         49.17	     7.681
  54.760         41.67	     7.071
  54.780         37.50	     6.708
  54.800         41.67	     7.071
  54.820         52.50	     7.937
  54.840         47.50	     7.550
  54.860         48.33	     7.616
  54.880         49.17	     7.681
  54.900         42.50	     7.141
  54.920         53.33	     8.000
  54.940         58.33	     8.367
  54.960         70.00	     9.165
  54.980         75.00	     9.487
  55.000         62.50	     8.660
  55.020         86.67	    10.198
  55.040         71.67	     9.274
  55.060         61.67	     8.602
  55.080         56.67	     8.246
  55.100         65.83	     8.888
  55.120         65.00	     8.832
  55.140         55.00	     8.124
  55.160         65.00	     8.832
  55.180         53.33	     8.000
  55.200         56.67	     8.246
  55.220         55.00	     8.124
  55.240         52.50	     7.937
  55.260         44.17	     7.280
  55.280         54.17	     8.062
  55.300         63.33	     8.718
  55.320         57.50	     8.307
  55.340         63.33	     8.718
  55.360         51.67	     7.874
  55.380         61.67	     8.602
  55.400         58.33	     8.367
  55.420         66.67	     8.944
  55.440         58.33	     8.367
  55.460         74.17	     9.434
  55.480         56.67	     8.246
  55.500         50.83	     7.810
  55.520         52.50	     7.937
  55.540         51.67	     7.874
  55.560         55.83	     8.185
  55.580         73.33	     9.381
  55.600         53.33	     8.000
  55.620         53.33	     8.000
  55.640         49.17	     7.681
  55.660         51.67	     7.874
  55.680         44.17	     7.280
  55.700         56.67	     8.246
  55.720         53.33	     8.000
  55.740         55.00	     8.124
  55.760         53.33	     8.000
  55.780         71.67	     9.274
  55.800         90.00	    10.392
  55.820         80.00	     9.798
  55.840         68.33	     9.055
  55.860         80.00	     9.798
  55.880         73.33	     9.381
  55.900         81.67	     9.899
  55.920         80.00	     9.798
  55.940         91.67	    10.488
  55.960         71.67	     9.274
  55.980         90.00	    10.392
  56.000         80.83	     9.849
  56.020         78.33	     9.695
  56.040         81.67	     9.899
  56.060         79.17	     9.747
  56.080         70.00	     9.165
  56.100         74.17	     9.434
  56.120         68.33	     9.055
  56.140         60.83	     8.544
  56.160         48.33	     7.616
  56.180         69.17	     9.110
  56.200         41.67	     7.071
  56.220         58.33	     8.367
  56.240         60.00	     8.485
  56.260         67.50	     9.000
  56.280         48.33	     7.616
  56.300         47.50	     7.550
  56.320         50.83	     7.810
  56.340         52.50	     7.937
  56.360         48.33	     7.616
  56.380         52.50	     7.937
  56.400         41.67	     7.071
  56.420         43.33	     7.211
  56.440         42.50	     7.141
  56.460         44.17	     7.280
  56.480         46.67	     7.483
  56.500         47.50	     7.550
  56.520         38.33	     6.782
  56.540         40.00	     6.928
  56.560         40.00	     6.928
  56.580         38.33	     6.782
  56.600         38.33	     6.782
  56.620         32.50	     6.245
  56.640         43.33	     7.211
  56.660         39.17	     6.856
  56.680         28.33	     5.831
  56.700         35.00	     6.481
  56.720         44.17	     7.280
  56.740         30.83	     6.083
  56.760         35.83	     6.557
  56.780         39.17	     6.856
  56.800         55.83	     8.185
  56.820         49.17	     7.681
  56.840         51.67	     7.874
  56.860         39.17	     6.856
  56.880         37.50	     6.708
  56.900         46.67	     7.483
  56.920         38.33	     6.782
  56.940         32.50	     6.245
  56.960         42.50	     7.141
  56.980         50.00	     7.746
  57.000         51.67	     7.874
  57.020         39.17	     6.856
  57.040         47.50	     7.550
  57.060         25.83	     5.568
  57.080         43.33	     7.211
  57.100         45.83	     7.416
  57.120         37.50	     6.708
  57.140         50.83	     7.810
  57.160         49.17	     7.681
  57.180         40.83	     7.000
  57.200         39.17	     6.856
  57.220         43.33	     7.211
  57.240         58.33	     8.367
  57.260         36.67	     6.633
  57.280         33.33	     6.325
  57.300         45.00	     7.348
  57.320         41.67	     7.071
  57.340         38.33	     6.782
  57.360         43.33	     7.211
  57.380         37.50	     6.708
  57.400         44.17	     7.280
  57.420         31.67	     6.164
  57.440         43.33	     7.211
  57.460         42.50	     7.141
  57.480         35.83	     6.557
  57.500         35.83	     6.557
  57.520         31.67	     6.164
  57.540         40.00	     6.928
  57.560         34.17	     6.403
  57.580         30.83	     6.083
  57.600         37.50	     6.708
  57.620         29.17	     5.916
  57.640         32.50	     6.245
  57.660         30.00	     6.000
  57.680         26.67	     5.657
  57.700         39.17	     6.856
  57.720         36.67	     6.633
  57.740         32.50	     6.245
  57.760         40.00	     6.928
  57.780         32.50	     6.245
  57.800         38.33	     6.782
  57.820         33.33	     6.325
  57.840         37.50	     6.708
  57.860         35.00	     6.481
  57.880         35.00	     6.481
  57.900         38.33	     6.782
  57.920         27.50	     5.745
  57.940         39.17	     6.856
  57.960         40.83	     7.000
  57.980         28.33	     5.831
  58.000         42.50	     7.141
  58.020         40.83	     7.000
  58.040         26.67	     5.657
  58.060         30.00	     6.000
  58.080         41.67	     7.071
  58.100         42.50	     7.141
  58.120         41.67	     7.071
  58.140         38.33	     6.782
  58.160         38.33	     6.782
  58.180         43.33	     7.211
  58.200         41.67	     7.071
  58.220         65.00	     8.832
  58.240         54.17	     8.062
  58.260         50.00	     7.746
  58.280         41.67	     7.071
  58.300         50.00	     7.746
  58.320         37.50	     6.708
  58.340         50.83	     7.810
  58.360         45.83	     7.416
  58.380         41.67	     7.071
  58.400         49.17	     7.681
  58.420         58.33	     8.367
  58.440         33.33	     6.325
  58.460         49.17	     7.681
  58.480         45.00	     7.348
  58.500         51.67	     7.874
  58.520         50.00	     7.746
  58.540         46.67	     7.483
  58.560         57.50	     8.307
  58.580         57.50	     8.307
  58.600         44.17	     7.280
  58.620         57.50	     8.307
  58.640         56.67	     8.246
  58.660         55.83	     8.185
  58.680         45.00	     7.348
  58.700         44.17	     7.280
  58.720         56.67	     8.246
  58.740         44.17	     7.280
  58.760         70.00	     9.165
  58.780         72.50	     9.327
  58.800         59.17	     8.426
  58.820         65.83	     8.888
  58.840         61.67	     8.602
  58.860         61.67	     8.602
  58.880         55.00	     8.124
  58.900         56.67	     8.246
  58.920         61.67	     8.602
  58.940         59.17	     8.426
  58.960         58.33	     8.367
  58.980         55.00	     8.124
  59.000         65.83	     8.888
  59.020         51.67	     7.874
  59.040         60.83	     8.544
  59.060         57.50	     8.307
  59.080         56.67	     8.246
  59.100         60.83	     8.544
  59.120         50.00	     7.746
  59.140         53.33	     8.000
  59.160         47.50	     7.550
  59.180         54.17	     8.062
  59.200         70.00	     9.165
  59.220         70.00	     9.165
  59.240         56.67	     8.246
  59.260         65.00	     8.832
  59.280         59.17	     8.426
  59.300         63.33	     8.718
  59.320         63.33	     8.718
  59.340         76.67	     9.592
  59.360         75.00	     9.487
  59.380         50.00	     7.746
  59.400         64.17	     8.775
  59.420         65.83	     8.888
  59.440         77.50	     9.644
  59.460         62.50	     8.660
  59.480         55.83	     8.185
  59.500         59.17	     8.426
  59.520         52.50	     7.937
  59.540         59.17	     8.426
  59.560         51.67	     7.874
  59.580         64.17	     8.775
  59.600         63.33	     8.718
  59.620         46.67	     7.483
  59.640         64.17	     8.775
  59.660         54.17	     8.062
  59.680         45.83	     7.416
  59.700         44.17	     7.280
  59.720         45.00	     7.348
  59.740         42.50	     7.141
  59.760         40.83	     7.000
  59.780         42.50	     7.141
  59.800         49.17	     7.681
  59.820         43.33	     7.211
  59.840         50.00	     7.746
  59.860         45.83	     7.416
  59.880         44.17	     7.280
  59.900         53.33	     8.000
  59.920         55.00	     8.124
  59.940         61.67	     8.602
  59.960         70.83	     9.220
  59.980         89.17	    10.344
  60.000        105.00	    11.225
  60.020        120.00	    12.000
  60.040        127.50	    12.369
  60.060        148.33	    13.342
  60.080        140.00	    12.961
  60.100        127.50	    12.369
  60.120        135.83	    12.767
  60.140        110.00	    11.489
  60.160        106.67	    11.314
  60.180         85.00	    10.100
  60.200         93.33	    10.583
  60.220        122.50	    12.124
  60.240        119.17	    11.958
  60.260         92.50	    10.536
  60.280         77.50	     9.644
  60.300         78.33	     9.695
  60.320         67.50	     9.000
  60.340         67.50	     9.000
  60.360         60.83	     8.544
  60.380         54.17	     8.062
  60.400         68.33	     9.055
  60.420         53.33	     8.000
  60.440         74.17	     9.434
  60.460         60.83	     8.544
  60.480         59.17	     8.426
  60.500         70.00	     9.165
  60.520         55.00	     8.124
  60.540         58.33	     8.367
  60.560         62.50	     8.660
  60.580         53.33	     8.000
  60.600         51.67	     7.874
  60.620         70.83	     9.220
  60.640         55.83	     8.185
  60.660         62.50	     8.660
  60.680         63.33	     8.718
  60.700         63.33	     8.718
  60.720         77.50	     9.644
  60.740         59.17	     8.426
  60.760         74.17	     9.434
  60.780         63.33	     8.718
  60.800         60.00	     8.485
  60.820         64.17	     8.775
  60.840         62.50	     8.660
  60.860         54.17	     8.062
  60.880         58.33	     8.367
  60.900         68.33	     9.055
  60.920         57.50	     8.307
  60.940         88.33	    10.296
  60.960         77.50	     9.644
  60.980         67.50	     9.000
  61.000         68.33	     9.055
  61.020         66.67	     8.944
  61.040         63.33	     8.718
  61.060         76.67	     9.592
  61.080         70.00	     9.165
  61.100         75.83	     9.539
  61.120         75.83	     9.539
  61.140         70.00	     9.165
  61.160         63.33	     8.718
  61.180         55.83	     8.185
  61.200         56.67	     8.246
  61.220         43.33	     7.211
  61.240         51.67	     7.874
  61.260         57.50	     8.307
  61.280         70.83	     9.220
  61.300         45.83	     7.416
  61.320         61.67	     8.602
  61.340         55.00	     8.124
  61.360         49.17	     7.681
  61.380         51.67	     7.874
  61.400         45.00	     7.348
  61.420         47.50	     7.550
  61.440         61.67	     8.602
  61.460         47.50	     7.550
  61.480         65.83	     8.888
  61.500         59.17	     8.426
  61.520         60.00	     8.485
  61.540         60.00	     8.485
  61.560         60.83	     8.544
  61.580         61.67	     8.602
  61.600         70.83	     9.220
  61.620         60.83	     8.544
  61.640         74.17	     9.434
  61.660         58.33	     8.367
  61.680         62.50	     8.660
  61.700         58.33	     8.367
  61.720         55.83	     8.185
  61.740         72.50	     9.327
  61.760         59.17	     8.426
  61.780         59.17	     8.426
  61.800         48.33	     7.616
  61.820         65.00	     8.832
  61.840         63.33	     8.718
  61.860         55.83	     8.185
  61.880         64.17	     8.775
  61.900         61.67	     8.602
  61.920         64.17	     8.775
  61.940         69.17	     9.110
  61.960         56.67	     8.246
  61.980         61.67	     8.602
  62.000         56.67	     8.246
  62.020         65.00	     8.832
  62.040         60.00	     8.485
  62.060         56.67	     8.246
  62.080         61.67	     8.602
  62.100         65.83	     8.888
  62.120         64.17	     8.775
  62.140         54.17	     8.062
  62.160         61.67	     8.602
  62.180         59.17	     8.426
  62.200         65.00	     8.832
  62.220         53.33	     8.000
  62.240         45.00	     7.348
  62.260         51.67	     7.874
  62.280         32.50	     6.245
  62.300         48.33	     7.616
  62.320         51.67	     7.874
  62.340         41.67	     7.071
  62.360         45.83	     7.416
  62.380         46.67	     7.483
  62.400         39.17	     6.856
  62.420         40.00	     6.928
  62.440         38.33	     6.782
  62.460         30.83	     6.083
  62.480         50.83	     7.810
  62.500         33.33	     6.325
  62.520         45.00	     7.348
  62.540         28.33	     5.831
  62.560         39.17	     6.856
  62.580         40.00	     6.928
  62.600         45.00	     7.348
  62.620         46.67	     7.483
  62.640         47.50	     7.550
  62.660         48.33	     7.616
  62.680         40.00	     6.928
  62.700         31.67	     6.164
  62.720         41.67	     7.071
  62.740         31.67	     6.164
  62.760         40.00	     6.928
  62.780         37.50	     6.708
  62.800         42.50	     7.141
  62.820         35.00	     6.481
  62.840         45.83	     7.416
  62.860         49.17	     7.681
  62.880         47.50	     7.550
  62.900         45.00	     7.348
  62.920         40.83	     7.000
  62.940         45.00	     7.348
  62.960         45.83	     7.416
  62.980         45.83	     7.416
  63.000         48.33	     7.616
  63.020         29.17	     5.916
  63.040         35.00	     6.481
  63.060         39.17	     6.856
  63.080         45.00	     7.348
  63.100         46.67	     7.483
  63.120         39.17	     6.856
  63.140         47.50	     7.550
  63.160         43.33	     7.211
  63.180         48.33	     7.616
  63.200         35.00	     6.481
  63.220         40.00	     6.928
  63.240         38.33	     6.782
  63.260         43.33	     7.211
  63.280         40.00	     6.928
  63.300         44.17	     7.280
  63.320         57.50	     8.307
  63.340         35.00	     6.481
  63.360         35.00	     6.481
  63.380         48.33	     7.616
  63.400         40.83	     7.000
  63.420         40.83	     7.000
  63.440         36.67	     6.633
  63.460         44.17	     7.280
  63.480         35.83	     6.557
  63.500         53.33	     8.000
  63.520         50.00	     7.746
  63.540         45.83	     7.416
  63.560         38.33	     6.782
  63.580         59.17	     8.426
  63.600         48.33	     7.616
  63.620         48.33	     7.616
  63.640         55.83	     8.185
  63.660         47.50	     7.550
  63.680         45.00	     7.348
  63.700         41.67	     7.071
  63.720         47.50	     7.550
  63.740         56.67	     8.246
  63.760         56.67	     8.246
  63.780         50.00	     7.746
  63.800         54.17	     8.062
  63.820         35.00	     6.481
  63.840         45.83	     7.416
  63.860         51.67	     7.874
  63.880         46.67	     7.483
  63.900         55.00	     8.124
  63.920         60.00	     8.485
  63.940         45.00	     7.348
  63.960         41.67	     7.071
  63.980         56.67	     8.246
  64.000         55.83	     8.185
  64.020         57.50	     8.307
  64.040         45.00	     7.348
  64.060         65.83	     8.888
  64.080         58.33	     8.367
  64.100         49.17	     7.681
  64.120         55.83	     8.185
  64.140         62.50	     8.660
  64.160         65.00	     8.832
  64.180         64.17	     8.775
  64.200         61.67	     8.602
  64.220         55.00	     8.124
  64.240         45.00	     7.348
  64.260         69.17	     9.110
  64.280         58.33	     8.367
  64.300         61.67	     8.602
  64.320         83.33	    10.000
  64.340         57.50	     8.307
  64.360         54.17	     8.062
  64.380         60.83	     8.544
  64.400         53.33	     8.000
  64.420         49.17	     7.681
  64.440         50.83	     7.810
  64.460         49.17	     7.681
  64.480         46.67	     7.483
  64.500         45.83	     7.416
  64.520         41.67	     7.071
  64.540         39.17	     6.856
  64.560         43.33	     7.211
  64.580         43.33	     7.211
  64.600         41.67	     7.071
  64.620         44.17	     7.280
  64.640         53.33	     8.000
  64.660         32.50	     6.245
  64.680         35.83	     6.557
  64.700         50.00	     7.746
  64.720         44.17	     7.280
  64.740         46.67	     7.483
  64.760         46.67	     7.483
  64.780         61.67	     8.602
  64.800         55.83	     8.185
  64.820         48.33	     7.616
  64.840         45.00	     7.348
  64.860         61.67	     8.602
  64.880         45.83	     7.416
  64.900         67.50	     9.000
  64.920         55.00	     8.124
  64.940         60.83	     8.544
  64.960         66.67	     8.944
  64.980         73.33	     9.381
  65.000         70.83	     9.220
