
Filename:
	C:\Program Files\Thermo Electron\WinXRD\Datafiles\F_HERMAN\GEO\GG_13_SFT.raw

File Created:
	October 13, 2020 - 09:24 AM

Specimen Id:
	GG_13_SFT

Specimen Name:
	

Specimen Description:
	

Comment:
Scan Type: 2Theta Scan
Start Angle: 3 deg.
Stop Angle: 65 deg.
Num Points: 3101
Step Size: 0.02 deg.
Scan Rate: 1.000000
Scan Mode: Continuous
Wavelength: 1.540562
\Kalpha1: 1.540562	\Kalpha2: 1.544390	\Kbeta: 1.392218

Optics:
		Detector:
			 Type: Fixed Slits
		Tube: 
			 Type: Fixed Slits


Datas:
 Pos [deg]       Rate [CPS]      ESD [-]

Range 1 ---> Iteration 1
   3.000        340.00	    20.199
   3.020        344.17	    20.322
   3.040        330.00	    19.900
   3.060        279.17	    18.303
   3.080        313.33	    19.391
   3.100        278.33	    18.276
   3.120        310.83	    19.313
   3.140        326.67	    19.799
   3.160        308.33	    19.235
   3.180        292.50	    18.735
   3.200        310.83	    19.313
   3.220        298.33	    18.921
   3.240        304.17	    19.105
   3.260        285.83	    18.520
   3.280        313.33	    19.391
   3.300        305.83	    19.157
   3.320        280.83	    18.358
   3.340        297.50	    18.894
   3.360        301.67	    19.026
   3.380        276.67	    18.221
   3.400        279.17	    18.303
   3.420        282.50	    18.412
   3.440        290.00	    18.655
   3.460        291.67	    18.708
   3.480        265.00	    17.833
   3.500        261.67	    17.720
   3.520        275.83	    18.193
   3.540        263.33	    17.776
   3.560        288.33	    18.601
   3.580        275.83	    18.193
   3.600        260.00	    17.664
   3.620        260.00	    17.664
   3.640        264.17	    17.804
   3.660        254.17	    17.464
   3.680        258.33	    17.607
   3.700        246.67	    17.205
   3.720        252.50	    17.407
   3.740        243.33	    17.088
   3.760        240.83	    17.000
   3.780        239.17	    16.941
   3.800        259.17	    17.635
   3.820        255.83	    17.521
   3.840        264.17	    17.804
   3.860        266.67	    17.889
   3.880        246.67	    17.205
   3.900        216.67	    16.125
   3.920        230.83	    16.643
   3.940        245.83	    17.176
   3.960        228.33	    16.553
   3.980        202.50	    15.588
   4.000        228.33	    16.553
   4.020        250.83	    17.349
   4.040        211.67	    15.937
   4.060        229.17	    16.583
   4.080        224.17	    16.401
   4.100        234.17	    16.763
   4.120        222.50	    16.340
   4.140        223.33	    16.371
   4.160        227.50	    16.523
   4.180        215.00	    16.062
   4.200        210.00	    15.875
   4.220        215.00	    16.062
   4.240        205.00	    15.684
   4.260        221.67	    16.310
   4.280        200.83	    15.524
   4.300        176.67	    14.560
   4.320        193.33	    15.232
   4.340        220.83	    16.279
   4.360        203.33	    15.620
   4.380        186.67	    14.967
   4.400        179.17	    14.663
   4.420        205.00	    15.684
   4.440        211.67	    15.937
   4.460        187.50	    15.000
   4.480        203.33	    15.620
   4.500        200.00	    15.492
   4.520        210.83	    15.906
   4.540        207.50	    15.780
   4.560        176.67	    14.560
   4.580        203.33	    15.620
   4.600        187.50	    15.000
   4.620        180.83	    14.731
   4.640        169.17	    14.248
   4.660        205.83	    15.716
   4.680        223.33	    16.371
   4.700        206.67	    15.748
   4.720        178.33	    14.629
   4.740        193.33	    15.232
   4.760        174.17	    14.457
   4.780        167.50	    14.177
   4.800        171.67	    14.353
   4.820        171.67	    14.353
   4.840        192.50	    15.199
   4.860        202.50	    15.588
   4.880        171.67	    14.353
   4.900        174.17	    14.457
   4.920        181.67	    14.765
   4.940        173.33	    14.422
   4.960        157.50	    13.748
   4.980        174.17	    14.457
   5.000        197.50	    15.395
   5.020        189.17	    15.067
   5.040        177.50	    14.595
   5.060        175.00	    14.491
   5.080        176.67	    14.560
   5.100        172.50	    14.387
   5.120        177.50	    14.595
   5.140        163.33	    14.000
   5.160        185.83	    14.933
   5.180        167.50	    14.177
   5.200        180.00	    14.697
   5.220        184.17	    14.866
   5.240        147.50	    13.304
   5.260        183.33	    14.832
   5.280        171.67	    14.353
   5.300        150.83	    13.454
   5.320        180.83	    14.731
   5.340        145.83	    13.229
   5.360        167.50	    14.177
   5.380        148.33	    13.342
   5.400        160.00	    13.856
   5.420        155.83	    13.675
   5.440        165.83	    14.107
   5.460        177.50	    14.595
   5.480        164.17	    14.036
   5.500        148.33	    13.342
   5.520        147.50	    13.304
   5.540        151.67	    13.491
   5.560        151.67	    13.491
   5.580        144.17	    13.153
   5.600        156.67	    13.711
   5.620        144.17	    13.153
   5.640        140.00	    12.961
   5.660        170.00	    14.283
   5.680        156.67	    13.711
   5.700        171.67	    14.353
   5.720        168.33	    14.213
   5.740        137.50	    12.845
   5.760        142.50	    13.077
   5.780        155.83	    13.675
   5.800        160.00	    13.856
   5.820        161.67	    13.928
   5.840        151.67	    13.491
   5.860        140.00	    12.961
   5.880        160.83	    13.892
   5.900        147.50	    13.304
   5.920        137.50	    12.845
   5.940        143.33	    13.115
   5.960        153.33	    13.565
   5.980        136.67	    12.806
   6.000        153.33	    13.565
   6.020        150.00	    13.416
   6.040        147.50	    13.304
   6.060        162.50	    13.964
   6.080        140.00	    12.961
   6.100        156.67	    13.711
   6.120        171.67	    14.353
   6.140        156.67	    13.711
   6.160        156.67	    13.711
   6.180        169.17	    14.248
   6.200        181.67	    14.765
   6.220        182.50	    14.799
   6.240        172.50	    14.387
   6.260        195.83	    15.330
   6.280        171.67	    14.353
   6.300        176.67	    14.560
   6.320        170.00	    14.283
   6.340        155.00	    13.638
   6.360        177.50	    14.595
   6.380        153.33	    13.565
   6.400        137.50	    12.845
   6.420        169.17	    14.248
   6.440        145.00	    13.191
   6.460        155.83	    13.675
   6.480        168.33	    14.213
   6.500        141.67	    13.038
   6.520        155.83	    13.675
   6.540        148.33	    13.342
   6.560        120.83	    12.042
   6.580        125.83	    12.288
   6.600        129.17	    12.450
   6.620        142.50	    13.077
   6.640        121.67	    12.083
   6.660        129.17	    12.450
   6.680        135.00	    12.728
   6.700        145.83	    13.229
   6.720        129.17	    12.450
   6.740        127.50	    12.369
   6.760        112.50	    11.619
   6.780        126.67	    12.329
   6.800        141.67	    13.038
   6.820        148.33	    13.342
   6.840        113.33	    11.662
   6.860        133.33	    12.649
   6.880        127.50	    12.369
   6.900        135.00	    12.728
   6.920        125.00	    12.247
   6.940        119.17	    11.958
   6.960        130.00	    12.490
   6.980        116.67	    11.832
   7.000        101.67	    11.045
   7.020        120.00	    12.000
   7.040        140.00	    12.961
   7.060        115.00	    11.747
   7.080        122.50	    12.124
   7.100        117.50	    11.874
   7.120        131.67	    12.570
   7.140        115.83	    11.790
   7.160        141.67	    13.038
   7.180        113.33	    11.662
   7.200        110.00	    11.489
   7.220        100.00	    10.954
   7.240        112.50	    11.619
   7.260        119.17	    11.958
   7.280        101.67	    11.045
   7.300        117.50	    11.874
   7.320        105.83	    11.269
   7.340        113.33	    11.662
   7.360        132.50	    12.610
   7.380        109.17	    11.446
   7.400        102.50	    11.091
   7.420        122.50	    12.124
   7.440        112.50	    11.619
   7.460        112.50	    11.619
   7.480        114.17	    11.705
   7.500         90.83	    10.440
   7.520        122.50	    12.124
   7.540        105.00	    11.225
   7.560        112.50	    11.619
   7.580         99.17	    10.909
   7.600         99.17	    10.909
   7.620        120.83	    12.042
   7.640        105.83	    11.269
   7.660        109.17	    11.446
   7.680        121.67	    12.083
   7.700         98.33	    10.863
   7.720         98.33	    10.863
   7.740         98.33	    10.863
   7.760        113.33	    11.662
   7.780         96.67	    10.770
   7.800        110.00	    11.489
   7.820        100.00	    10.954
   7.840        103.33	    11.136
   7.860        101.67	    11.045
   7.880        117.50	    11.874
   7.900         85.83	    10.149
   7.920         95.00	    10.677
   7.940         91.67	    10.488
   7.960         99.17	    10.909
   7.980        114.17	    11.705
   8.000        107.50	    11.358
   8.020         93.33	    10.583
   8.040         98.33	    10.863
   8.060         99.17	    10.909
   8.080         82.50	     9.950
   8.100        105.83	    11.269
   8.120        100.83	    11.000
   8.140         99.17	    10.909
   8.160         80.83	     9.849
   8.180        100.00	    10.954
   8.200         90.00	    10.392
   8.220         86.67	    10.198
   8.240         96.67	    10.770
   8.260         80.83	     9.849
   8.280         85.83	    10.149
   8.300        112.50	    11.619
   8.320        100.00	    10.954
   8.340        101.67	    11.045
   8.360         95.00	    10.677
   8.380         97.50	    10.817
   8.400         90.83	    10.440
   8.420         84.17	    10.050
   8.440        106.67	    11.314
   8.460         94.17	    10.630
   8.480         98.33	    10.863
   8.500        101.67	    11.045
   8.520         92.50	    10.536
   8.540         95.83	    10.724
   8.560        116.67	    11.832
   8.580         90.00	    10.392
   8.600        101.67	    11.045
   8.620         90.00	    10.392
   8.640        100.83	    11.000
   8.660         84.17	    10.050
   8.680         78.33	     9.695
   8.700         90.83	    10.440
   8.720        118.33	    11.916
   8.740        110.00	    11.489
   8.760         91.67	    10.488
   8.780         97.50	    10.817
   8.800         88.33	    10.296
   8.820        117.50	    11.874
   8.840        110.00	    11.489
   8.860        124.17	    12.207
   8.880         97.50	    10.817
   8.900        104.17	    11.180
   8.920         97.50	    10.817
   8.940        113.33	    11.662
   8.960        130.00	    12.490
   8.980        142.50	    13.077
   9.000        110.00	    11.489
   9.020        125.00	    12.247
   9.040        151.67	    13.491
   9.060        169.17	    14.248
   9.080        164.17	    14.036
   9.100        203.33	    15.620
   9.120        203.33	    15.620
   9.140        258.33	    17.607
   9.160        260.00	    17.664
   9.180        198.33	    15.427
   9.200        107.50	    11.358
   9.220         93.33	    10.583
   9.240         99.17	    10.909
   9.260         94.17	    10.630
   9.280         80.00	     9.798
   9.300         95.00	    10.677
   9.320         86.67	    10.198
   9.340         89.17	    10.344
   9.360         84.17	    10.050
   9.380         95.83	    10.724
   9.400         97.50	    10.817
   9.420         80.83	     9.849
   9.440         89.17	    10.344
   9.460         64.17	     8.775
   9.480         73.33	     9.381
   9.500         70.83	     9.220
   9.520         81.67	     9.899
   9.540         89.17	    10.344
   9.560         84.17	    10.050
   9.580         78.33	     9.695
   9.600         89.17	    10.344
   9.620         77.50	     9.644
   9.640         72.50	     9.327
   9.660         67.50	     9.000
   9.680         65.83	     8.888
   9.700         80.83	     9.849
   9.720         89.17	    10.344
   9.740         97.50	    10.817
   9.760         69.17	     9.110
   9.780         72.50	     9.327
   9.800         74.17	     9.434
   9.820         84.17	    10.050
   9.840         77.50	     9.644
   9.860         86.67	    10.198
   9.880         80.00	     9.798
   9.900         86.67	    10.198
   9.920         93.33	    10.583
   9.940         88.33	    10.296
   9.960         66.67	     8.944
   9.980         70.83	     9.220
  10.000         82.50	     9.950
  10.020         71.67	     9.274
  10.040         90.00	    10.392
  10.060         65.83	     8.888
  10.080         74.17	     9.434
  10.100         69.17	     9.110
  10.120         58.33	     8.367
  10.140         65.83	     8.888
  10.160         57.50	     8.307
  10.180         70.83	     9.220
  10.200         69.17	     9.110
  10.220         69.17	     9.110
  10.240         65.00	     8.832
  10.260         73.33	     9.381
  10.280         62.50	     8.660
  10.300         65.00	     8.832
  10.320         70.83	     9.220
  10.340         50.83	     7.810
  10.360         75.00	     9.487
  10.380         55.00	     8.124
  10.400         61.67	     8.602
  10.420         62.50	     8.660
  10.440         75.00	     9.487
  10.460         52.50	     7.937
  10.480         65.00	     8.832
  10.500         69.17	     9.110
  10.520         70.83	     9.220
  10.540         76.67	     9.592
  10.560         78.33	     9.695
  10.580         58.33	     8.367
  10.600         87.50	    10.247
  10.620         73.33	     9.381
  10.640         69.17	     9.110
  10.660         60.83	     8.544
  10.680         73.33	     9.381
  10.700         70.00	     9.165
  10.720         99.17	    10.909
  10.740         94.17	    10.630
  10.760         78.33	     9.695
  10.780         86.67	    10.198
  10.800         85.00	    10.100
  10.820         62.50	     8.660
  10.840         57.50	     8.307
  10.860         60.00	     8.485
  10.880         61.67	     8.602
  10.900         64.17	     8.775
  10.920         65.83	     8.888
  10.940         63.33	     8.718
  10.960         68.33	     9.055
  10.980         75.00	     9.487
  11.000         62.50	     8.660
  11.020         57.50	     8.307
  11.040         45.83	     7.416
  11.060         60.83	     8.544
  11.080         50.00	     7.746
  11.100         51.67	     7.874
  11.120         49.17	     7.681
  11.140         57.50	     8.307
  11.160         61.67	     8.602
  11.180         56.67	     8.246
  11.200         50.83	     7.810
  11.220         65.00	     8.832
  11.240         69.17	     9.110
  11.260         66.67	     8.944
  11.280         69.17	     9.110
  11.300         50.00	     7.746
  11.320         67.50	     9.000
  11.340         64.17	     8.775
  11.360         59.17	     8.426
  11.380         56.67	     8.246
  11.400         57.50	     8.307
  11.420         52.50	     7.937
  11.440         47.50	     7.550
  11.460         53.33	     8.000
  11.480         55.83	     8.185
  11.500         53.33	     8.000
  11.520         74.17	     9.434
  11.540         65.83	     8.888
  11.560         55.83	     8.185
  11.580         58.33	     8.367
  11.600         57.50	     8.307
  11.620         59.17	     8.426
  11.640         63.33	     8.718
  11.660         75.00	     9.487
  11.680         57.50	     8.307
  11.700         55.83	     8.185
  11.720         52.50	     7.937
  11.740         56.67	     8.246
  11.760         56.67	     8.246
  11.780         58.33	     8.367
  11.800         51.67	     7.874
  11.820         65.00	     8.832
  11.840         60.83	     8.544
  11.860         56.67	     8.246
  11.880         66.67	     8.944
  11.900         48.33	     7.616
  11.920         60.83	     8.544
  11.940         72.50	     9.327
  11.960         60.83	     8.544
  11.980         64.17	     8.775
  12.000         58.33	     8.367
  12.020         55.00	     8.124
  12.040         51.67	     7.874
  12.060         56.67	     8.246
  12.080         72.50	     9.327
  12.100         54.17	     8.062
  12.120         55.83	     8.185
  12.140         50.00	     7.746
  12.160         67.50	     9.000
  12.180         70.00	     9.165
  12.200         85.83	    10.149
  12.220         79.17	     9.747
  12.240         84.17	    10.050
  12.260         69.17	     9.110
  12.280         65.00	     8.832
  12.300         73.33	     9.381
  12.320         88.33	    10.296
  12.340        110.83	    11.533
  12.360        110.00	    11.489
  12.380        141.67	    13.038
  12.400        168.33	    14.213
  12.420        196.67	    15.362
  12.440        201.67	    15.556
  12.460        162.50	    13.964
  12.480        123.33	    12.166
  12.500        106.67	    11.314
  12.520        101.67	    11.045
  12.540         87.50	    10.247
  12.560        100.83	    11.000
  12.580        108.33	    11.402
  12.600        116.67	    11.832
  12.620        103.33	    11.136
  12.640        115.00	    11.747
  12.660        109.17	    11.446
  12.680        127.50	    12.369
  12.700        160.83	    13.892
  12.720        167.50	    14.177
  12.740        190.00	    15.100
  12.760        145.83	    13.229
  12.780        112.50	    11.619
  12.800         89.17	    10.344
  12.820         69.17	     9.110
  12.840         61.67	     8.602
  12.860         50.83	     7.810
  12.880         56.67	     8.246
  12.900         71.67	     9.274
  12.920         49.17	     7.681
  12.940         45.00	     7.348
  12.960         55.00	     8.124
  12.980         52.50	     7.937
  13.000         48.33	     7.616
  13.020         58.33	     8.367
  13.040         56.67	     8.246
  13.060         62.50	     8.660
  13.080         50.00	     7.746
  13.100         46.67	     7.483
  13.120         66.67	     8.944
  13.140         44.17	     7.280
  13.160         42.50	     7.141
  13.180         60.00	     8.485
  13.200         42.50	     7.141
  13.220         55.00	     8.124
  13.240         42.50	     7.141
  13.260         48.33	     7.616
  13.280         45.83	     7.416
  13.300         48.33	     7.616
  13.320         57.50	     8.307
  13.340         55.83	     8.185
  13.360         49.17	     7.681
  13.380         54.17	     8.062
  13.400         41.67	     7.071
  13.420         42.50	     7.141
  13.440         58.33	     8.367
  13.460         50.00	     7.746
  13.480         48.33	     7.616
  13.500         43.33	     7.211
  13.520         50.83	     7.810
  13.540         44.17	     7.280
  13.560         48.33	     7.616
  13.580         48.33	     7.616
  13.600         56.67	     8.246
  13.620         46.67	     7.483
  13.640         55.00	     8.124
  13.660         45.83	     7.416
  13.680         45.00	     7.348
  13.700         35.00	     6.481
  13.720         44.17	     7.280
  13.740         50.83	     7.810
  13.760         41.67	     7.071
  13.780         44.17	     7.280
  13.800         45.83	     7.416
  13.820         49.17	     7.681
  13.840         57.50	     8.307
  13.860         60.00	     8.485
  13.880         54.17	     8.062
  13.900         59.17	     8.426
  13.920         55.83	     8.185
  13.940         74.17	     9.434
  13.960         40.00	     6.928
  13.980         59.17	     8.426
  14.000         69.17	     9.110
  14.020         63.33	     8.718
  14.040         73.33	     9.381
  14.060         75.00	     9.487
  14.080         66.67	     8.944
  14.100         79.17	     9.747
  14.120         76.67	     9.592
  14.140         77.50	     9.644
  14.160         78.33	     9.695
  14.180         46.67	     7.483
  14.200         55.00	     8.124
  14.220         46.67	     7.483
  14.240         55.00	     8.124
  14.260         50.00	     7.746
  14.280         51.67	     7.874
  14.300         52.50	     7.937
  14.320         50.83	     7.810
  14.340         37.50	     6.708
  14.360         38.33	     6.782
  14.380         43.33	     7.211
  14.400         40.83	     7.000
  14.420         48.33	     7.616
  14.440         45.00	     7.348
  14.460         40.00	     6.928
  14.480         52.50	     7.937
  14.500         43.33	     7.211
  14.520         34.17	     6.403
  14.540         59.17	     8.426
  14.560         41.67	     7.071
  14.580         40.00	     6.928
  14.600         37.50	     6.708
  14.620         33.33	     6.325
  14.640         36.67	     6.633
  14.660         51.67	     7.874
  14.680         45.00	     7.348
  14.700         32.50	     6.245
  14.720         33.33	     6.325
  14.740         34.17	     6.403
  14.760         40.00	     6.928
  14.780         45.00	     7.348
  14.800         38.33	     6.782
  14.820         44.17	     7.280
  14.840         38.33	     6.782
  14.860         52.50	     7.937
  14.880         41.67	     7.071
  14.900         39.17	     6.856
  14.920         43.33	     7.211
  14.940         41.67	     7.071
  14.960         45.00	     7.348
  14.980         40.00	     6.928
  15.000         35.83	     6.557
  15.020         48.33	     7.616
  15.040         41.67	     7.071
  15.060         50.00	     7.746
  15.080         44.17	     7.280
  15.100         40.00	     6.928
  15.120         50.00	     7.746
  15.140         45.83	     7.416
  15.160         44.17	     7.280
  15.180         44.17	     7.280
  15.200         57.50	     8.307
  15.220         51.67	     7.874
  15.240         55.83	     8.185
  15.260         42.50	     7.141
  15.280         42.50	     7.141
  15.300         35.00	     6.481
  15.320         44.17	     7.280
  15.340         42.50	     7.141
  15.360         41.67	     7.071
  15.380         40.83	     7.000
  15.400         30.00	     6.000
  15.420         50.83	     7.810
  15.440         38.33	     6.782
  15.460         32.50	     6.245
  15.480         36.67	     6.633
  15.500         43.33	     7.211
  15.520         34.17	     6.403
  15.540         40.83	     7.000
  15.560         31.67	     6.164
  15.580         32.50	     6.245
  15.600         29.17	     5.916
  15.620         40.00	     6.928
  15.640         30.00	     6.000
  15.660         37.50	     6.708
  15.680         35.83	     6.557
  15.700         30.83	     6.083
  15.720         38.33	     6.782
  15.740         39.17	     6.856
  15.760         30.00	     6.000
  15.780         27.50	     5.745
  15.800         52.50	     7.937
  15.820         33.33	     6.325
  15.840         37.50	     6.708
  15.860         34.17	     6.403
  15.880         38.33	     6.782
  15.900         40.83	     7.000
  15.920         44.17	     7.280
  15.940         35.83	     6.557
  15.960         31.67	     6.164
  15.980         50.83	     7.810
  16.000         41.67	     7.071
  16.020         44.17	     7.280
  16.040         53.33	     8.000
  16.060         46.67	     7.483
  16.080         60.00	     8.485
  16.100         40.00	     6.928
  16.120         36.67	     6.633
  16.140         35.83	     6.557
  16.160         35.00	     6.481
  16.180         47.50	     7.550
  16.200         35.83	     6.557
  16.220         44.17	     7.280
  16.240         36.67	     6.633
  16.260         30.83	     6.083
  16.280         30.83	     6.083
  16.300         41.67	     7.071
  16.320         34.17	     6.403
  16.340         35.00	     6.481
  16.360         45.00	     7.348
  16.380         45.00	     7.348
  16.400         35.83	     6.557
  16.420         28.33	     5.831
  16.440         43.33	     7.211
  16.460         31.67	     6.164
  16.480         32.50	     6.245
  16.500         41.67	     7.071
  16.520         45.00	     7.348
  16.540         37.50	     6.708
  16.560         35.00	     6.481
  16.580         29.17	     5.916
  16.600         39.17	     6.856
  16.620         29.17	     5.916
  16.640         29.17	     5.916
  16.660         28.33	     5.831
  16.680         30.00	     6.000
  16.700         38.33	     6.782
  16.720         32.50	     6.245
  16.740         32.50	     6.245
  16.760         34.17	     6.403
  16.780         35.00	     6.481
  16.800         39.17	     6.856
  16.820         38.33	     6.782
  16.840         26.67	     5.657
  16.860         35.00	     6.481
  16.880         25.00	     5.477
  16.900         28.33	     5.831
  16.920         36.67	     6.633
  16.940         39.17	     6.856
  16.960         30.00	     6.000
  16.980         29.17	     5.916
  17.000         38.33	     6.782
  17.020         36.67	     6.633
  17.040         40.00	     6.928
  17.060         27.50	     5.745
  17.080         35.00	     6.481
  17.100         27.50	     5.745
  17.120         36.67	     6.633
  17.140         30.83	     6.083
  17.160         35.83	     6.557
  17.180         32.50	     6.245
  17.200         28.33	     5.831
  17.220         40.00	     6.928
  17.240         44.17	     7.280
  17.260         36.67	     6.633
  17.280         35.00	     6.481
  17.300         38.33	     6.782
  17.320         33.33	     6.325
  17.340         35.00	     6.481
  17.360         31.67	     6.164
  17.380         36.67	     6.633
  17.400         38.33	     6.782
  17.420         45.83	     7.416
  17.440         43.33	     7.211
  17.460         43.33	     7.211
  17.480         26.67	     5.657
  17.500         41.67	     7.071
  17.520         40.83	     7.000
  17.540         25.83	     5.568
  17.560         40.00	     6.928
  17.580         30.83	     6.083
  17.600         38.33	     6.782
  17.620         41.67	     7.071
  17.640         49.17	     7.681
  17.660         39.17	     6.856
  17.680         38.33	     6.782
  17.700         38.33	     6.782
  17.720         41.67	     7.071
  17.740         40.00	     6.928
  17.760         40.83	     7.000
  17.780         45.83	     7.416
  17.800         34.17	     6.403
  17.820         47.50	     7.550
  17.840         53.33	     8.000
  17.860         46.67	     7.483
  17.880         50.00	     7.746
  17.900         65.00	     8.832
  17.920         57.50	     8.307
  17.940         55.00	     8.124
  17.960         68.33	     9.055
  17.980         67.50	     9.000
  18.000         95.83	    10.724
  18.020         90.00	    10.392
  18.040         84.17	    10.050
  18.060        118.33	    11.916
  18.080        165.83	    14.107
  18.100        145.00	    13.191
  18.120        133.33	    12.649
  18.140         83.33	    10.000
  18.160         65.00	     8.832
  18.180         39.17	     6.856
  18.200         55.83	     8.185
  18.220         44.17	     7.280
  18.240         43.33	     7.211
  18.260         35.00	     6.481
  18.280         48.33	     7.616
  18.300         45.00	     7.348
  18.320         51.67	     7.874
  18.340         47.50	     7.550
  18.360         41.67	     7.071
  18.380         36.67	     6.633
  18.400         32.50	     6.245
  18.420         28.33	     5.831
  18.440         30.00	     6.000
  18.460         35.00	     6.481
  18.480         35.00	     6.481
  18.500         32.50	     6.245
  18.520         36.67	     6.633
  18.540         26.67	     5.657
  18.560         31.67	     6.164
  18.580         52.50	     7.937
  18.600         32.50	     6.245
  18.620         36.67	     6.633
  18.640         40.83	     7.000
  18.660         31.67	     6.164
  18.680         45.00	     7.348
  18.700         50.83	     7.810
  18.720         41.67	     7.071
  18.740         53.33	     8.000
  18.760         55.00	     8.124
  18.780         54.17	     8.062
  18.800         54.17	     8.062
  18.820         46.67	     7.483
  18.840         42.50	     7.141
  18.860         51.67	     7.874
  18.880         50.83	     7.810
  18.900         53.33	     8.000
  18.920         60.83	     8.544
  18.940         53.33	     8.000
  18.960         80.83	     9.849
  18.980         70.83	     9.220
  19.000         96.67	    10.770
  19.020         85.83	    10.149
  19.040         89.17	    10.344
  19.060         81.67	     9.899
  19.080         67.50	     9.000
  19.100         45.83	     7.416
  19.120         50.83	     7.810
  19.140         50.00	     7.746
  19.160         53.33	     8.000
  19.180         48.33	     7.616
  19.200         42.50	     7.141
  19.220         39.17	     6.856
  19.240         44.17	     7.280
  19.260         33.33	     6.325
  19.280         34.17	     6.403
  19.300         32.50	     6.245
  19.320         38.33	     6.782
  19.340         41.67	     7.071
  19.360         47.50	     7.550
  19.380         37.50	     6.708
  19.400         45.83	     7.416
  19.420         53.33	     8.000
  19.440         56.67	     8.246
  19.460         57.50	     8.307
  19.480         55.83	     8.185
  19.500         49.17	     7.681
  19.520         53.33	     8.000
  19.540         45.00	     7.348
  19.560         44.17	     7.280
  19.580         47.50	     7.550
  19.600         47.50	     7.550
  19.620         41.67	     7.071
  19.640         49.17	     7.681
  19.660         52.50	     7.937
  19.680         46.67	     7.483
  19.700         45.00	     7.348
  19.720         41.67	     7.071
  19.740         50.00	     7.746
  19.760         52.50	     7.937
  19.780         46.67	     7.483
  19.800         41.67	     7.071
  19.820         55.83	     8.185
  19.840         47.50	     7.550
  19.860         58.33	     8.367
  19.880         55.83	     8.185
  19.900         65.83	     8.888
  19.920         58.33	     8.367
  19.940         52.50	     7.937
  19.960         63.33	     8.718
  19.980         81.67	     9.899
  20.000         84.17	    10.050
  20.020         60.83	     8.544
  20.040         65.83	     8.888
  20.060         71.67	     9.274
  20.080         88.33	    10.296
  20.100         86.67	    10.198
  20.120         66.67	     8.944
  20.140         68.33	     9.055
  20.160         65.83	     8.888
  20.180         48.33	     7.616
  20.200         55.00	     8.124
  20.220         52.50	     7.937
  20.240         45.83	     7.416
  20.260         36.67	     6.633
  20.280         45.00	     7.348
  20.300         49.17	     7.681
  20.320         60.83	     8.544
  20.340         46.67	     7.483
  20.360         41.67	     7.071
  20.380         40.00	     6.928
  20.400         51.67	     7.874
  20.420         49.17	     7.681
  20.440         42.50	     7.141
  20.460         40.83	     7.000
  20.480         55.83	     8.185
  20.500         35.83	     6.557
  20.520         40.83	     7.000
  20.540         32.50	     6.245
  20.560         32.50	     6.245
  20.580         38.33	     6.782
  20.600         46.67	     7.483
  20.620         40.83	     7.000
  20.640         33.33	     6.325
  20.660         27.50	     5.745
  20.680         48.33	     7.616
  20.700         39.17	     6.856
  20.720         40.00	     6.928
  20.740         41.67	     7.071
  20.760         54.17	     8.062
  20.780         48.33	     7.616
  20.800         50.00	     7.746
  20.820         65.00	     8.832
  20.840         80.00	     9.798
  20.860         82.50	     9.950
  20.880         90.83	    10.440
  20.900        125.83	    12.288
  20.920        195.00	    15.297
  20.940        273.33	    18.111
  20.960        290.00	    18.655
  20.980        222.50	    16.340
  21.000        226.67	    16.492
  21.020        220.00	    16.248
  21.040        220.83	    16.279
  21.060        324.17	    19.723
  21.080        385.83	    21.517
  21.100        399.17	    21.886
  21.120        415.00	    22.316
  21.140        298.33	    18.921
  21.160        204.17	    15.652
  21.180        177.50	    14.595
  21.200        120.00	    12.000
  21.220        102.50	    11.091
  21.240         89.17	    10.344
  21.260         57.50	     8.307
  21.280         67.50	     9.000
  21.300         55.83	     8.185
  21.320         69.17	     9.110
  21.340         52.50	     7.937
  21.360         46.67	     7.483
  21.380         55.83	     8.185
  21.400         37.50	     6.708
  21.420         40.00	     6.928
  21.440         36.67	     6.633
  21.460         35.00	     6.481
  21.480         43.33	     7.211
  21.500         45.00	     7.348
  21.520         42.50	     7.141
  21.540         40.00	     6.928
  21.560         36.67	     6.633
  21.580         41.67	     7.071
  21.600         38.33	     6.782
  21.620         44.17	     7.280
  21.640         43.33	     7.211
  21.660         45.00	     7.348
  21.680         43.33	     7.211
  21.700         40.83	     7.000
  21.720         27.50	     5.745
  21.740         35.83	     6.557
  21.760         44.17	     7.280
  21.780         44.17	     7.280
  21.800         48.33	     7.616
  21.820         43.33	     7.211
  21.840         40.83	     7.000
  21.860         52.50	     7.937
  21.880         45.83	     7.416
  21.900         44.17	     7.280
  21.920         37.50	     6.708
  21.940         35.00	     6.481
  21.960         48.33	     7.616
  21.980         39.17	     6.856
  22.000         34.17	     6.403
  22.020         41.67	     7.071
  22.040         47.50	     7.550
  22.060         60.83	     8.544
  22.080         70.00	     9.165
  22.100         75.83	     9.539
  22.120         63.33	     8.718
  22.140         70.00	     9.165
  22.160         95.00	    10.677
  22.180        124.17	    12.207
  22.200        170.00	    14.283
  22.220        180.83	    14.731
  22.240        241.67	    17.029
  22.260        230.00	    16.613
  22.280        184.17	    14.866
  22.300        160.00	    13.856
  22.320        138.33	    12.884
  22.340        108.33	    11.402
  22.360         85.00	    10.100
  22.380         58.33	     8.367
  22.400         59.17	     8.426
  22.420         43.33	     7.211
  22.440         36.67	     6.633
  22.460         37.50	     6.708
  22.480         30.83	     6.083
  22.500         36.67	     6.633
  22.520         45.00	     7.348
  22.540         55.00	     8.124
  22.560         50.00	     7.746
  22.580         49.17	     7.681
  22.600         45.83	     7.416
  22.620         43.33	     7.211
  22.640         39.17	     6.856
  22.660         51.67	     7.874
  22.680         38.33	     6.782
  22.700         57.50	     8.307
  22.720         46.67	     7.483
  22.740         45.00	     7.348
  22.760         55.83	     8.185
  22.780         45.83	     7.416
  22.800         40.83	     7.000
  22.820         51.67	     7.874
  22.840         41.67	     7.071
  22.860         42.50	     7.141
  22.880         48.33	     7.616
  22.900         48.33	     7.616
  22.920         45.83	     7.416
  22.940         53.33	     8.000
  22.960         50.83	     7.810
  22.980         55.00	     8.124
  23.000         65.83	     8.888
  23.020         59.17	     8.426
  23.040         67.50	     9.000
  23.060         67.50	     9.000
  23.080         76.67	     9.592
  23.100         75.00	     9.487
  23.120         65.83	     8.888
  23.140         75.83	     9.539
  23.160         85.83	    10.149
  23.180         84.17	    10.050
  23.200         80.83	     9.849
  23.220         69.17	     9.110
  23.240         65.00	     8.832
  23.260         65.00	     8.832
  23.280         55.83	     8.185
  23.300         58.33	     8.367
  23.320         55.00	     8.124
  23.340         58.33	     8.367
  23.360         53.33	     8.000
  23.380         55.83	     8.185
  23.400         35.83	     6.557
  23.420         51.67	     7.874
  23.440         42.50	     7.141
  23.460         31.67	     6.164
  23.480         47.50	     7.550
  23.500         40.00	     6.928
  23.520         30.83	     6.083
  23.540         37.50	     6.708
  23.560         44.17	     7.280
  23.580         45.83	     7.416
  23.600         37.50	     6.708
  23.620         52.50	     7.937
  23.640         57.50	     8.307
  23.660         66.67	     8.944
  23.680         84.17	    10.050
  23.700         92.50	    10.536
  23.720        140.83	    13.000
  23.740        160.83	    13.892
  23.760        165.00	    14.071
  23.780        165.83	    14.107
  23.800        172.50	    14.387
  23.820        143.33	    13.115
  23.840        121.67	    12.083
  23.860        105.83	    11.269
  23.880         82.50	     9.950
  23.900         85.00	    10.100
  23.920         70.00	     9.165
  23.940         75.00	     9.487
  23.960         70.00	     9.165
  23.980         80.00	     9.798
  24.000         73.33	     9.381
  24.020        111.67	    11.576
  24.040         70.00	     9.165
  24.060         85.00	    10.100
  24.080         74.17	     9.434
  24.100         65.83	     8.888
  24.120         65.00	     8.832
  24.140         77.50	     9.644
  24.160         52.50	     7.937
  24.180         74.17	     9.434
  24.200         55.00	     8.124
  24.220         73.33	     9.381
  24.240         84.17	    10.050
  24.260         62.50	     8.660
  24.280         75.00	     9.487
  24.300         84.17	    10.050
  24.320        100.00	    10.954
  24.340        117.50	    11.874
  24.360        116.67	    11.832
  24.380        133.33	    12.649
  24.400        154.17	    13.601
  24.420        151.67	    13.491
  24.440        130.00	    12.490
  24.460        125.83	    12.288
  24.480        137.50	    12.845
  24.500        136.67	    12.806
  24.520        136.67	    12.806
  24.540        135.83	    12.767
  24.560        108.33	    11.402
  24.580        105.00	    11.225
  24.600         86.67	    10.198
  24.620         76.67	     9.592
  24.640         82.50	     9.950
  24.660         70.00	     9.165
  24.680         78.33	     9.695
  24.700         91.67	    10.488
  24.720         96.67	    10.770
  24.740        105.83	    11.269
  24.760        143.33	    13.115
  24.780        147.50	    13.304
  24.800        181.67	    14.765
  24.820        178.33	    14.629
  24.840        205.00	    15.684
  24.860        168.33	    14.213
  24.880        202.50	    15.588
  24.900        171.67	    14.353
  24.920        155.83	    13.675
  24.940        121.67	    12.083
  24.960        110.83	    11.533
  24.980         97.50	    10.817
  25.000         95.00	    10.677
  25.020         69.17	     9.110
  25.040         98.33	    10.863
  25.060         81.67	     9.899
  25.080         62.50	     8.660
  25.100         75.00	     9.487
  25.120         70.00	     9.165
  25.140         65.83	     8.888
  25.160         65.00	     8.832
  25.180         79.17	     9.747
  25.200         80.00	     9.798
  25.220         70.83	     9.220
  25.240         74.17	     9.434
  25.260         96.67	    10.770
  25.280        109.17	    11.446
  25.300        130.83	    12.530
  25.320        139.17	    12.923
  25.340        139.17	    12.923
  25.360        153.33	    13.565
  25.380        159.17	    13.820
  25.400        165.83	    14.107
  25.420        150.83	    13.454
  25.440        103.33	    11.136
  25.460         99.17	    10.909
  25.480         95.83	    10.724
  25.500         85.83	    10.149
  25.520         77.50	     9.644
  25.540         72.50	     9.327
  25.560         95.00	    10.677
  25.580         84.17	    10.050
  25.600        104.17	    11.180
  25.620        105.00	    11.225
  25.640        134.17	    12.689
  25.660        147.50	    13.304
  25.680        143.33	    13.115
  25.700        169.17	    14.248
  25.720        184.17	    14.866
  25.740        203.33	    15.620
  25.760        203.33	    15.620
  25.780        154.17	    13.601
  25.800        141.67	    13.038
  25.820        141.67	    13.038
  25.840        116.67	    11.832
  25.860        116.67	    11.832
  25.880        106.67	    11.314
  25.900        121.67	    12.083
  25.920        105.00	    11.225
  25.940         80.83	     9.849
  25.960         71.67	     9.274
  25.980         61.67	     8.602
  26.000         78.33	     9.695
  26.020         76.67	     9.592
  26.040         49.17	     7.681
  26.060         60.00	     8.485
  26.080         50.83	     7.810
  26.100         72.50	     9.327
  26.120         63.33	     8.718
  26.140         58.33	     8.367
  26.160         57.50	     8.307
  26.180         53.33	     8.000
  26.200         55.83	     8.185
  26.220         55.00	     8.124
  26.240         59.17	     8.426
  26.260         53.33	     8.000
  26.280         60.00	     8.485
  26.300         60.83	     8.544
  26.320         52.50	     7.937
  26.340         63.33	     8.718
  26.360         63.33	     8.718
  26.380         69.17	     9.110
  26.400         69.17	     9.110
  26.420         78.33	     9.695
  26.440         94.17	    10.630
  26.460         80.00	     9.798
  26.480         95.83	    10.724
  26.500         86.67	    10.198
  26.520        105.83	    11.269
  26.540        110.00	    11.489
  26.560        122.50	    12.124
  26.580        160.83	    13.892
  26.600        166.67	    14.142
  26.620        205.83	    15.716
  26.640        210.83	    15.906
  26.660        270.83	    18.028
  26.680        365.00	    20.928
  26.700        517.50	    24.920
  26.720        510.00	    24.739
  26.740        459.17	    23.473
  26.760        549.17	    25.671
  26.780        697.50	    28.931
  26.800       1009.17	    34.799
  26.820       1615.00	    44.023
  26.840       2133.33	    50.596
  26.860       2369.17	    53.320
  26.880       2751.67	    57.463
  26.900       3414.17	    64.008
  26.920       2930.83	    59.304
  26.940       1770.00	    46.087
  26.960       1580.00	    43.543
  26.980       1425.00	    41.352
  27.000        860.83	    32.140
  27.020        474.17	    23.854
  27.040        385.00	    21.494
  27.060        386.67	    21.541
  27.080        380.83	    21.378
  27.100        380.83	    21.378
  27.120        453.33	    23.324
  27.140        485.83	    24.145
  27.160        441.67	    23.022
  27.180        318.33	    19.545
  27.200        277.50	    18.248
  27.220        244.17	    17.117
  27.240        194.17	    15.264
  27.260        129.17	    12.450
  27.280        131.67	    12.570
  27.300        125.83	    12.288
  27.320        124.17	    12.207
  27.340        107.50	    11.358
  27.360        105.83	    11.269
  27.380        118.33	    11.916
  27.400        105.83	    11.269
  27.420         92.50	    10.536
  27.440         99.17	    10.909
  27.460         83.33	    10.000
  27.480        100.00	    10.954
  27.500         97.50	    10.817
  27.520         95.00	    10.677
  27.540        103.33	    11.136
  27.560         85.83	    10.149
  27.580        100.83	    11.000
  27.600         85.83	    10.149
  27.620        114.17	    11.705
  27.640        185.00	    14.900
  27.660        223.33	    16.371
  27.680        169.17	    14.248
  27.700        175.00	    14.491
  27.720        185.83	    14.933
  27.740        194.17	    15.264
  27.760        150.83	    13.454
  27.780        136.67	    12.806
  27.800        110.00	    11.489
  27.820        105.00	    11.225
  27.840        111.67	    11.576
  27.860        131.67	    12.570
  27.880        155.83	    13.675
  27.900        213.33	    16.000
  27.920        235.83	    16.823
  27.940        238.33	    16.912
  27.960        315.83	    19.468
  27.980        276.67	    18.221
  28.000        260.83	    17.692
  28.020        325.83	    19.774
  28.040        272.50	    18.083
  28.060        268.33	    17.944
  28.080        284.17	    18.466
  28.100        331.67	    19.950
  28.120        360.83	    20.809
  28.140        415.00	    22.316
  28.160        435.83	    22.869
  28.180        520.00	    24.980
  28.200        410.83	    22.204
  28.220        323.33	    19.698
  28.240        290.00	    18.655
  28.260        255.00	    17.493
  28.280        211.67	    15.937
  28.300        229.17	    16.583
  28.320        190.00	    15.100
  28.340        159.17	    13.820
  28.360        166.67	    14.142
  28.380        170.83	    14.318
  28.400        133.33	    12.649
  28.420        127.50	    12.369
  28.440        140.83	    13.000
  28.460        127.50	    12.369
  28.480        124.17	    12.207
  28.500        130.00	    12.490
  28.520        135.00	    12.728
  28.540        120.83	    12.042
  28.560        125.83	    12.288
  28.580        114.17	    11.705
  28.600         95.83	    10.724
  28.620         79.17	     9.747
  28.640         83.33	    10.000
  28.660         73.33	     9.381
  28.680         65.00	     8.832
  28.700         70.00	     9.165
  28.720         80.83	     9.849
  28.740        100.83	    11.000
  28.760         77.50	     9.644
  28.780        102.50	    11.091
  28.800         92.50	    10.536
  28.820        115.83	    11.790
  28.840        133.33	    12.649
  28.860        137.50	    12.845
  28.880        145.83	    13.229
  28.900        147.50	    13.304
  28.920        136.67	    12.806
  28.940         99.17	    10.909
  28.960        120.00	    12.000
  28.980        107.50	    11.358
  29.000         81.67	     9.899
  29.020         73.33	     9.381
  29.040         90.00	    10.392
  29.060         62.50	     8.660
  29.080         54.17	     8.062
  29.100         54.17	     8.062
  29.120         45.83	     7.416
  29.140         46.67	     7.483
  29.160         48.33	     7.616
  29.180         49.17	     7.681
  29.200         30.00	     6.000
  29.220         40.83	     7.000
  29.240         45.83	     7.416
  29.260         42.50	     7.141
  29.280         49.17	     7.681
  29.300         35.83	     6.557
  29.320         35.83	     6.557
  29.340         40.00	     6.928
  29.360         39.17	     6.856
  29.380         36.67	     6.633
  29.400         38.33	     6.782
  29.420         46.67	     7.483
  29.440         36.67	     6.633
  29.460         31.67	     6.164
  29.480         39.17	     6.856
  29.500         30.83	     6.083
  29.520         40.00	     6.928
  29.540         28.33	     5.831
  29.560         41.67	     7.071
  29.580         38.33	     6.782
  29.600         39.17	     6.856
  29.620         31.67	     6.164
  29.640         34.17	     6.403
  29.660         38.33	     6.782
  29.680         44.17	     7.280
  29.700         40.83	     7.000
  29.720         37.50	     6.708
  29.740         45.83	     7.416
  29.760         45.83	     7.416
  29.780         41.67	     7.071
  29.800         48.33	     7.616
  29.820         55.00	     8.124
  29.840         36.67	     6.633
  29.860         48.33	     7.616
  29.880         56.67	     8.246
  29.900         53.33	     8.000
  29.920         58.33	     8.367
  29.940         67.50	     9.000
  29.960         77.50	     9.644
  29.980         88.33	    10.296
  30.000        102.50	    11.091
  30.020         96.67	    10.770
  30.040        127.50	    12.369
  30.060        124.17	    12.207
  30.080        146.67	    13.266
  30.100        155.00	    13.638
  30.120        151.67	    13.491
  30.140        155.83	    13.675
  30.160        140.83	    13.000
  30.180        144.17	    13.153
  30.200        121.67	    12.083
  30.220        125.83	    12.288
  30.240         90.00	    10.392
  30.260         96.67	    10.770
  30.280         88.33	    10.296
  30.300         93.33	    10.583
  30.320         91.67	    10.488
  30.340        110.83	    11.533
  30.360        101.67	    11.045
  30.380         99.17	    10.909
  30.400         94.17	    10.630
  30.420        110.83	    11.533
  30.440        140.00	    12.961
  30.460        115.00	    11.747
  30.480        117.50	    11.874
  30.500        106.67	    11.314
  30.520         98.33	    10.863
  30.540        110.00	    11.489
  30.560         84.17	    10.050
  30.580         93.33	    10.583
  30.600        102.50	    11.091
  30.620        103.33	    11.136
  30.640         91.67	    10.488
  30.660        108.33	    11.402
  30.680        109.17	    11.446
  30.700        129.17	    12.450
  30.720         96.67	    10.770
  30.740         93.33	    10.583
  30.760         81.67	     9.899
  30.780        100.00	    10.954
  30.800         94.17	    10.630
  30.820         57.50	     8.307
  30.840         65.83	     8.888
  30.860         60.00	     8.485
  30.880         52.50	     7.937
  30.900         51.67	     7.874
  30.920         57.50	     8.307
  30.940         71.67	     9.274
  30.960         65.00	     8.832
  30.980         60.83	     8.544
  31.000         89.17	    10.344
  31.020        103.33	    11.136
  31.040         99.17	    10.909
  31.060        104.17	    11.180
  31.080        124.17	    12.207
  31.100        108.33	    11.402
  31.120         84.17	    10.050
  31.140         96.67	    10.770
  31.160         80.83	     9.849
  31.180         74.17	     9.434
  31.200         80.00	     9.798
  31.220         64.17	     8.775
  31.240         67.50	     9.000
  31.260         64.17	     8.775
  31.280         71.67	     9.274
  31.300         70.00	     9.165
  31.320         74.17	     9.434
  31.340         68.33	     9.055
  31.360         72.50	     9.327
  31.380         94.17	    10.630
  31.400         90.83	    10.440
  31.420        101.67	    11.045
  31.440        124.17	    12.207
  31.460         94.17	    10.630
  31.480        111.67	    11.576
  31.500         95.00	    10.677
  31.520         93.33	    10.583
  31.540         91.67	    10.488
  31.560         75.83	     9.539
  31.580         75.83	     9.539
  31.600         64.17	     8.775
  31.620         49.17	     7.681
  31.640         61.67	     8.602
  31.660         53.33	     8.000
  31.680         49.17	     7.681
  31.700         54.17	     8.062
  31.720         71.67	     9.274
  31.740         65.00	     8.832
  31.760         75.83	     9.539
  31.780         63.33	     8.718
  31.800         63.33	     8.718
  31.820         60.83	     8.544
  31.840         66.67	     8.944
  31.860         57.50	     8.307
  31.880         53.33	     8.000
  31.900         42.50	     7.141
  31.920         49.17	     7.681
  31.940         34.17	     6.403
  31.960         35.00	     6.481
  31.980         37.50	     6.708
  32.000         44.17	     7.280
  32.020         42.50	     7.141
  32.040         55.00	     8.124
  32.060         50.83	     7.810
  32.080         53.33	     8.000
  32.100         52.50	     7.937
  32.120         63.33	     8.718
  32.140         62.50	     8.660
  32.160         52.50	     7.937
  32.180         53.33	     8.000
  32.200         56.67	     8.246
  32.220         68.33	     9.055
  32.240         67.50	     9.000
  32.260         74.17	     9.434
  32.280         78.33	     9.695
  32.300         64.17	     8.775
  32.320         90.00	    10.392
  32.340         58.33	     8.367
  32.360         79.17	     9.747
  32.380         62.50	     8.660
  32.400         73.33	     9.381
  32.420         55.00	     8.124
  32.440         49.17	     7.681
  32.460         47.50	     7.550
  32.480         46.67	     7.483
  32.500         44.17	     7.280
  32.520         50.83	     7.810
  32.540         47.50	     7.550
  32.560         48.33	     7.616
  32.580         37.50	     6.708
  32.600         30.00	     6.000
  32.620         35.00	     6.481
  32.640         37.50	     6.708
  32.660         35.83	     6.557
  32.680         31.67	     6.164
  32.700         34.17	     6.403
  32.720         32.50	     6.245
  32.740         27.50	     5.745
  32.760         39.17	     6.856
  32.780         31.67	     6.164
  32.800         35.00	     6.481
  32.820         20.00	     4.899
  32.840         24.17	     5.385
  32.860         31.67	     6.164
  32.880         35.00	     6.481
  32.900         24.17	     5.385
  32.920         29.17	     5.916
  32.940         23.33	     5.292
  32.960         25.00	     5.477
  32.980         38.33	     6.782
  33.000         29.17	     5.916
  33.020         32.50	     6.245
  33.040         35.83	     6.557
  33.060         34.17	     6.403
  33.080         34.17	     6.403
  33.100         31.67	     6.164
  33.120         47.50	     7.550
  33.140         36.67	     6.633
  33.160         36.67	     6.633
  33.180         45.00	     7.348
  33.200         51.67	     7.874
  33.220         54.17	     8.062
  33.240         66.67	     8.944
  33.260         88.33	    10.296
  33.280         90.00	    10.392
  33.300         78.33	     9.695
  33.320         78.33	     9.695
  33.340         68.33	     9.055
  33.360         68.33	     9.055
  33.380         69.17	     9.110
  33.400         43.33	     7.211
  33.420         40.83	     7.000
  33.440         26.67	     5.657
  33.460         37.50	     6.708
  33.480         26.67	     5.657
  33.500         27.50	     5.745
  33.520         37.50	     6.708
  33.540         43.33	     7.211
  33.560         43.33	     7.211
  33.580         47.50	     7.550
  33.600         35.83	     6.557
  33.620         44.17	     7.280
  33.640         44.17	     7.280
  33.660         22.50	     5.196
  33.680         31.67	     6.164
  33.700         36.67	     6.633
  33.720         39.17	     6.856
  33.740         34.17	     6.403
  33.760         35.83	     6.557
  33.780         37.50	     6.708
  33.800         27.50	     5.745
  33.820         33.33	     6.325
  33.840         30.83	     6.083
  33.860         40.00	     6.928
  33.880         31.67	     6.164
  33.900         41.67	     7.071
  33.920         40.83	     7.000
  33.940         54.17	     8.062
  33.960         60.00	     8.485
  33.980         58.33	     8.367
  34.000         47.50	     7.550
  34.020         65.00	     8.832
  34.040         59.17	     8.426
  34.060         65.83	     8.888
  34.080         62.50	     8.660
  34.100         70.83	     9.220
  34.120         69.17	     9.110
  34.140         80.00	     9.798
  34.160         70.83	     9.220
  34.180         66.67	     8.944
  34.200         69.17	     9.110
  34.220         80.83	     9.849
  34.240         76.67	     9.592
  34.260         65.00	     8.832
  34.280         43.33	     7.211
  34.300         62.50	     8.660
  34.320         66.67	     8.944
  34.340         57.50	     8.307
  34.360         48.33	     7.616
  34.380         46.67	     7.483
  34.400         47.50	     7.550
  34.420         43.33	     7.211
  34.440         51.67	     7.874
  34.460         48.33	     7.616
  34.480         62.50	     8.660
  34.500         67.50	     9.000
  34.520         74.17	     9.434
  34.540         67.50	     9.000
  34.560         83.33	    10.000
  34.580         85.00	    10.100
  34.600        100.00	    10.954
  34.620        118.33	    11.916
  34.640        108.33	    11.402
  34.660        118.33	    11.916
  34.680        144.17	    13.153
  34.700        146.67	    13.266
  34.720        147.50	    13.304
  34.740        139.17	    12.923
  34.760        137.50	    12.845
  34.780        150.83	    13.454
  34.800        134.17	    12.689
  34.820        125.83	    12.288
  34.840        102.50	    11.091
  34.860         99.17	    10.909
  34.880         99.17	    10.909
  34.900         72.50	     9.327
  34.920         84.17	    10.050
  34.940         69.17	     9.110
  34.960         56.67	     8.246
  34.980         72.50	     9.327
  35.000         69.17	     9.110
  35.020         64.17	     8.775
  35.040         96.67	    10.770
  35.060        105.83	    11.269
  35.080         91.67	    10.488
  35.100        105.00	    11.225
  35.120        128.33	    12.410
  35.140        127.50	    12.369
  35.160        118.33	    11.916
  35.180        126.67	    12.329
  35.200        153.33	    13.565
  35.220        141.67	    13.038
  35.240        153.33	    13.565
  35.260        160.83	    13.892
  35.280        150.00	    13.416
  35.300        110.83	    11.533
  35.320        119.17	    11.958
  35.340        120.00	    12.000
  35.360        118.33	    11.916
  35.380        109.17	    11.446
  35.400        105.83	    11.269
  35.420        102.50	    11.091
  35.440         77.50	     9.644
  35.460         98.33	    10.863
  35.480         83.33	    10.000
  35.500         97.50	    10.817
  35.520         75.00	     9.487
  35.540         80.00	     9.798
  35.560         84.17	    10.050
  35.580         80.00	     9.798
  35.600         61.67	     8.602
  35.620        101.67	    11.045
  35.640        105.83	    11.269
  35.660        111.67	    11.576
  35.680        116.67	    11.832
  35.700        121.67	    12.083
  35.720        153.33	    13.565
  35.740        125.00	    12.247
  35.760        136.67	    12.806
  35.780        135.00	    12.728
  35.800        113.33	    11.662
  35.820        115.00	    11.747
  35.840        115.83	    11.790
  35.860        100.00	    10.954
  35.880        102.50	    11.091
  35.900         86.67	    10.198
  35.920         70.00	     9.165
  35.940         59.17	     8.426
  35.960         65.83	     8.888
  35.980         51.67	     7.874
  36.000         64.17	     8.775
  36.020         60.83	     8.544
  36.040         52.50	     7.937
  36.060         60.00	     8.485
  36.080         80.83	     9.849
  36.100         69.17	     9.110
  36.120         64.17	     8.775
  36.140         63.33	     8.718
  36.160         65.83	     8.888
  36.180         58.33	     8.367
  36.200         55.83	     8.185
  36.220         59.17	     8.426
  36.240         60.00	     8.485
  36.260         62.50	     8.660
  36.280         68.33	     9.055
  36.300         59.17	     8.426
  36.320         66.67	     8.944
  36.340         52.50	     7.937
  36.360         75.00	     9.487
  36.380         72.50	     9.327
  36.400         54.17	     8.062
  36.420         44.17	     7.280
  36.440         50.00	     7.746
  36.460         70.00	     9.165
  36.480         55.83	     8.185
  36.500         45.83	     7.416
  36.520         50.83	     7.810
  36.540         59.17	     8.426
  36.560         59.17	     8.426
  36.580         67.50	     9.000
  36.600         71.67	     9.274
  36.620         60.00	     8.485
  36.640         69.17	     9.110
  36.660         89.17	    10.344
  36.680        107.50	    11.358
  36.700        126.67	    12.329
  36.720        190.83	    15.133
  36.740        260.00	    17.664
  36.760        248.33	    17.263
  36.780        223.33	    16.371
  36.800        162.50	    13.964
  36.820        145.83	    13.229
  36.840        182.50	    14.799
  36.860        160.83	    13.892
  36.880        122.50	    12.124
  36.900         99.17	    10.909
  36.920         90.00	    10.392
  36.940         85.83	    10.149
  36.960         80.00	     9.798
  36.980         70.00	     9.165
  37.000         55.83	     8.185
  37.020         78.33	     9.695
  37.040         75.83	     9.539
  37.060         58.33	     8.367
  37.080         58.33	     8.367
  37.100         47.50	     7.550
  37.120         50.83	     7.810
  37.140         48.33	     7.616
  37.160         56.67	     8.246
  37.180         61.67	     8.602
  37.200         45.83	     7.416
  37.220         50.00	     7.746
  37.240         55.00	     8.124
  37.260         45.00	     7.348
  37.280         47.50	     7.550
  37.300         48.33	     7.616
  37.320         60.00	     8.485
  37.340         55.00	     8.124
  37.360         47.50	     7.550
  37.380         57.50	     8.307
  37.400         57.50	     8.307
  37.420         47.50	     7.550
  37.440         45.00	     7.348
  37.460         63.33	     8.718
  37.480         58.33	     8.367
  37.500         48.33	     7.616
  37.520         56.67	     8.246
  37.540         58.33	     8.367
  37.560         56.67	     8.246
  37.580         60.83	     8.544
  37.600         75.83	     9.539
  37.620         65.83	     8.888
  37.640         65.00	     8.832
  37.660         71.67	     9.274
  37.680         73.33	     9.381
  37.700         62.50	     8.660
  37.720         70.00	     9.165
  37.740         77.50	     9.644
  37.760         61.67	     8.602
  37.780         70.83	     9.220
  37.800         87.50	    10.247
  37.820         97.50	    10.817
  37.840         95.83	    10.724
  37.860         87.50	    10.247
  37.880         85.00	    10.100
  37.900         84.17	    10.050
  37.920         67.50	     9.000
  37.940         85.83	    10.149
  37.960         81.67	     9.899
  37.980         83.33	    10.000
  38.000         69.17	     9.110
  38.020         59.17	     8.426
  38.040         70.00	     9.165
  38.060         58.33	     8.367
  38.080         39.17	     6.856
  38.100         43.33	     7.211
  38.120         40.83	     7.000
  38.140         33.33	     6.325
  38.160         35.83	     6.557
  38.180         33.33	     6.325
  38.200         30.83	     6.083
  38.220         29.17	     5.916
  38.240         34.17	     6.403
  38.260         24.17	     5.385
  38.280         35.00	     6.481
  38.300         26.67	     5.657
  38.320         20.83	     5.000
  38.340         26.67	     5.657
  38.360         45.83	     7.416
  38.380         45.00	     7.348
  38.400         34.17	     6.403
  38.420         33.33	     6.325
  38.440         45.83	     7.416
  38.460         32.50	     6.245
  38.480         36.67	     6.633
  38.500         35.00	     6.481
  38.520         21.67	     5.099
  38.540         22.50	     5.196
  38.560         29.17	     5.916
  38.580         25.83	     5.568
  38.600         38.33	     6.782
  38.620         31.67	     6.164
  38.640         42.50	     7.141
  38.660         45.83	     7.416
  38.680         40.00	     6.928
  38.700         32.50	     6.245
  38.720         21.67	     5.099
  38.740         33.33	     6.325
  38.760         40.00	     6.928
  38.780         36.67	     6.633
  38.800         45.00	     7.348
  38.820         39.17	     6.856
  38.840         46.67	     7.483
  38.860         46.67	     7.483
  38.880         45.00	     7.348
  38.900         35.00	     6.481
  38.920         42.50	     7.141
  38.940         48.33	     7.616
  38.960         45.00	     7.348
  38.980         55.00	     8.124
  39.000         40.83	     7.000
  39.020         48.33	     7.616
  39.040         50.83	     7.810
  39.060         49.17	     7.681
  39.080         42.50	     7.141
  39.100         45.00	     7.348
  39.120         46.67	     7.483
  39.140         51.67	     7.874
  39.160         45.00	     7.348
  39.180         39.17	     6.856
  39.200         33.33	     6.325
  39.220         39.17	     6.856
  39.240         43.33	     7.211
  39.260         43.33	     7.211
  39.280         32.50	     6.245
  39.300         32.50	     6.245
  39.320         41.67	     7.071
  39.340         45.83	     7.416
  39.360         42.50	     7.141
  39.380         28.33	     5.831
  39.400         33.33	     6.325
  39.420         30.83	     6.083
  39.440         34.17	     6.403
  39.460         36.67	     6.633
  39.480         36.67	     6.633
  39.500         25.83	     5.568
  39.520         46.67	     7.483
  39.540         50.83	     7.810
  39.560         53.33	     8.000
  39.580         63.33	     8.718
  39.600         67.50	     9.000
  39.620         90.83	    10.440
  39.640        149.17	    13.379
  39.660        169.17	    14.248
  39.680        144.17	    13.153
  39.700        136.67	    12.806
  39.720        100.00	    10.954
  39.740        102.50	    11.091
  39.760        125.83	    12.288
  39.780        100.83	    11.000
  39.800        103.33	    11.136
  39.820         65.00	     8.832
  39.840         64.17	     8.775
  39.860         53.33	     8.000
  39.880         44.17	     7.280
  39.900         49.17	     7.681
  39.920         65.00	     8.832
  39.940         59.17	     8.426
  39.960         42.50	     7.141
  39.980         48.33	     7.616
  40.000         62.50	     8.660
  40.020         40.00	     6.928
  40.040         56.67	     8.246
  40.060         45.83	     7.416
  40.080         47.50	     7.550
  40.100         39.17	     6.856
  40.120         38.33	     6.782
  40.140         45.00	     7.348
  40.160         51.67	     7.874
  40.180         51.67	     7.874
  40.200         47.50	     7.550
  40.220         45.00	     7.348
  40.240         46.67	     7.483
  40.260         35.00	     6.481
  40.280         41.67	     7.071
  40.300         40.83	     7.000
  40.320         40.00	     6.928
  40.340         42.50	     7.141
  40.360         35.83	     6.557
  40.380         54.17	     8.062
  40.400         51.67	     7.874
  40.420         76.67	     9.592
  40.440         76.67	     9.592
  40.460         90.83	    10.440
  40.480        124.17	    12.207
  40.500         98.33	    10.863
  40.520         88.33	    10.296
  40.540         77.50	     9.644
  40.560         80.00	     9.798
  40.580         73.33	     9.381
  40.600         80.00	     9.798
  40.620         83.33	    10.000
  40.640         66.67	     8.944
  40.660         45.83	     7.416
  40.680         48.33	     7.616
  40.700         49.17	     7.681
  40.720         20.00	     4.899
  40.740         35.00	     6.481
  40.760         33.33	     6.325
  40.780         35.83	     6.557
  40.800         36.67	     6.633
  40.820         43.33	     7.211
  40.840         32.50	     6.245
  40.860         41.67	     7.071
  40.880         32.50	     6.245
  40.900         31.67	     6.164
  40.920         40.83	     7.000
  40.940         32.50	     6.245
  40.960         40.83	     7.000
  40.980         48.33	     7.616
  41.000         31.67	     6.164
  41.020         39.17	     6.856
  41.040         41.67	     7.071
  41.060         40.83	     7.000
  41.080         46.67	     7.483
  41.100         44.17	     7.280
  41.120         40.00	     6.928
  41.140         44.17	     7.280
  41.160         40.00	     6.928
  41.180         44.17	     7.280
  41.200         54.17	     8.062
  41.220         35.00	     6.481
  41.240         30.00	     6.000
  41.260         46.67	     7.483
  41.280         36.67	     6.633
  41.300         40.00	     6.928
  41.320         35.00	     6.481
  41.340         35.83	     6.557
  41.360         50.83	     7.810
  41.380         40.83	     7.000
  41.400         51.67	     7.874
  41.420         37.50	     6.708
  41.440         42.50	     7.141
  41.460         47.50	     7.550
  41.480         44.17	     7.280
  41.500         42.50	     7.141
  41.520         44.17	     7.280
  41.540         48.33	     7.616
  41.560         43.33	     7.211
  41.580         54.17	     8.062
  41.600         45.00	     7.348
  41.620         48.33	     7.616
  41.640         44.17	     7.280
  41.660         47.50	     7.550
  41.680         40.83	     7.000
  41.700         30.83	     6.083
  41.720         36.67	     6.633
  41.740         55.83	     8.185
  41.760         55.00	     8.124
  41.780         42.50	     7.141
  41.800         55.83	     8.185
  41.820         44.17	     7.280
  41.840         56.67	     8.246
  41.860         57.50	     8.307
  41.880         60.83	     8.544
  41.900         65.83	     8.888
  41.920         94.17	    10.630
  41.940         90.83	    10.440
  41.960         80.00	     9.798
  41.980         77.50	     9.644
  42.000         73.33	     9.381
  42.020         60.00	     8.485
  42.040         77.50	     9.644
  42.060         62.50	     8.660
  42.080         68.33	     9.055
  42.100         56.67	     8.246
  42.120         64.17	     8.775
  42.140         66.67	     8.944
  42.160         65.00	     8.832
  42.180         59.17	     8.426
  42.200         54.17	     8.062
  42.220         65.83	     8.888
  42.240         49.17	     7.681
  42.260         56.67	     8.246
  42.280         56.67	     8.246
  42.300         44.17	     7.280
  42.320         45.00	     7.348
  42.340         54.17	     8.062
  42.360         40.00	     6.928
  42.380         49.17	     7.681
  42.400         58.33	     8.367
  42.420         55.00	     8.124
  42.440         58.33	     8.367
  42.460         63.33	     8.718
  42.480         70.83	     9.220
  42.500         67.50	     9.000
  42.520         57.50	     8.307
  42.540         71.67	     9.274
  42.560         89.17	    10.344
  42.580        113.33	    11.662
  42.600        100.83	    11.000
  42.620        132.50	    12.610
  42.640        205.00	    15.684
  42.660        220.83	    16.279
  42.680        204.17	    15.652
  42.700        146.67	    13.266
  42.720        120.83	    12.042
  42.740        116.67	    11.832
  42.760        130.83	    12.530
  42.780        143.33	    13.115
  42.800         92.50	    10.536
  42.820         79.17	     9.747
  42.840         56.67	     8.246
  42.860         50.00	     7.746
  42.880         43.33	     7.211
  42.900         46.67	     7.483
  42.920         43.33	     7.211
  42.940         44.17	     7.280
  42.960         49.17	     7.681
  42.980         50.83	     7.810
  43.000         40.83	     7.000
  43.020         38.33	     6.782
  43.040         50.00	     7.746
  43.060         55.83	     8.185
  43.080         65.83	     8.888
  43.100         65.83	     8.888
  43.120         46.67	     7.483
  43.140         37.50	     6.708
  43.160         48.33	     7.616
  43.180         60.83	     8.544
  43.200         40.83	     7.000
  43.220         43.33	     7.211
  43.240         55.83	     8.185
  43.260         49.17	     7.681
  43.280         47.50	     7.550
  43.300         49.17	     7.681
  43.320         31.67	     6.164
  43.340         32.50	     6.245
  43.360         34.17	     6.403
  43.380         33.33	     6.325
  43.400         30.00	     6.000
  43.420         37.50	     6.708
  43.440         39.17	     6.856
  43.460         44.17	     7.280
  43.480         38.33	     6.782
  43.500         33.33	     6.325
  43.520         24.17	     5.385
  43.540         41.67	     7.071
  43.560         37.50	     6.708
  43.580         36.67	     6.633
  43.600         41.67	     7.071
  43.620         43.33	     7.211
  43.640         36.67	     6.633
  43.660         28.33	     5.831
  43.680         43.33	     7.211
  43.700         32.50	     6.245
  43.720         35.00	     6.481
  43.740         40.83	     7.000
  43.760         43.33	     7.211
  43.780         33.33	     6.325
  43.800         37.50	     6.708
  43.820         37.50	     6.708
  43.840         52.50	     7.937
  43.860         34.17	     6.403
  43.880         30.00	     6.000
  43.900         45.00	     7.348
  43.920         43.33	     7.211
  43.940         31.67	     6.164
  43.960         40.83	     7.000
  43.980         40.00	     6.928
  44.000         40.83	     7.000
  44.020         40.83	     7.000
  44.040         33.33	     6.325
  44.060         42.50	     7.141
  44.080         42.50	     7.141
  44.100         37.50	     6.708
  44.120         28.33	     5.831
  44.140         32.50	     6.245
  44.160         30.83	     6.083
  44.180         23.33	     5.292
  44.200         35.83	     6.557
  44.220         33.33	     6.325
  44.240         35.00	     6.481
  44.260         33.33	     6.325
  44.280         30.83	     6.083
  44.300         32.50	     6.245
  44.320         38.33	     6.782
  44.340         40.83	     7.000
  44.360         37.50	     6.708
  44.380         40.83	     7.000
  44.400         43.33	     7.211
  44.420         45.00	     7.348
  44.440         33.33	     6.325
  44.460         38.33	     6.782
  44.480         40.00	     6.928
  44.500         38.33	     6.782
  44.520         44.17	     7.280
  44.540         32.50	     6.245
  44.560         29.17	     5.916
  44.580         34.17	     6.403
  44.600         38.33	     6.782
  44.620         25.83	     5.568
  44.640         34.17	     6.403
  44.660         28.33	     5.831
  44.680         37.50	     6.708
  44.700         49.17	     7.681
  44.720         29.17	     5.916
  44.740         28.33	     5.831
  44.760         29.17	     5.916
  44.780         37.50	     6.708
  44.800         31.67	     6.164
  44.820         33.33	     6.325
  44.840         26.67	     5.657
  44.860         30.83	     6.083
  44.880         34.17	     6.403
  44.900         28.33	     5.831
  44.920         34.17	     6.403
  44.940         34.17	     6.403
  44.960         37.50	     6.708
  44.980         45.83	     7.416
  45.000         41.67	     7.071
  45.020         41.67	     7.071
  45.040         42.50	     7.141
  45.060         46.67	     7.483
  45.080         52.50	     7.937
  45.100         47.50	     7.550
  45.120         51.67	     7.874
  45.140         49.17	     7.681
  45.160         58.33	     8.367
  45.180         57.50	     8.307
  45.200         70.83	     9.220
  45.220         60.83	     8.544
  45.240         73.33	     9.381
  45.260         72.50	     9.327
  45.280         79.17	     9.747
  45.300         67.50	     9.000
  45.320         75.83	     9.539
  45.340         63.33	     8.718
  45.360         66.67	     8.944
  45.380         68.33	     9.055
  45.400         44.17	     7.280
  45.420         67.50	     9.000
  45.440         49.17	     7.681
  45.460         70.00	     9.165
  45.480         54.17	     8.062
  45.500         61.67	     8.602
  45.520         60.83	     8.544
  45.540         82.50	     9.950
  45.560         68.33	     9.055
  45.580         70.83	     9.220
  45.600         74.17	     9.434
  45.620         76.67	     9.592
  45.640         91.67	    10.488
  45.660        120.00	    12.000
  45.680        119.17	    11.958
  45.700        100.00	    10.954
  45.720        111.67	    11.576
  45.740        121.67	    12.083
  45.760        105.00	    11.225
  45.780        140.00	    12.961
  45.800        145.00	    13.191
  45.820        156.67	    13.711
  45.840        189.17	    15.067
  45.860        187.50	    15.000
  45.880        168.33	    14.213
  45.900        136.67	    12.806
  45.920        120.00	    12.000
  45.940        128.33	    12.410
  45.960        143.33	    13.115
  45.980        161.67	    13.928
  46.000        146.67	    13.266
  46.020        140.83	    13.000
  46.040         94.17	    10.630
  46.060         72.50	     9.327
  46.080         72.50	     9.327
  46.100         79.17	     9.747
  46.120         79.17	     9.747
  46.140         89.17	    10.344
  46.160         70.83	     9.220
  46.180         78.33	     9.695
  46.200         67.50	     9.000
  46.220         67.50	     9.000
  46.240         54.17	     8.062
  46.260         49.17	     7.681
  46.280         44.17	     7.280
  46.300         41.67	     7.071
  46.320         45.00	     7.348
  46.340         64.17	     8.775
  46.360         48.33	     7.616
  46.380         40.83	     7.000
  46.400         62.50	     8.660
  46.420         41.67	     7.071
  46.440         40.00	     6.928
  46.460         41.67	     7.071
  46.480         43.33	     7.211
  46.500         39.17	     6.856
  46.520         30.83	     6.083
  46.540         36.67	     6.633
  46.560         35.83	     6.557
  46.580         30.00	     6.000
  46.600         23.33	     5.292
  46.620         37.50	     6.708
  46.640         42.50	     7.141
  46.660         40.83	     7.000
  46.680         30.00	     6.000
  46.700         40.83	     7.000
  46.720         36.67	     6.633
  46.740         33.33	     6.325
  46.760         41.67	     7.071
  46.780         35.00	     6.481
  46.800         41.67	     7.071
  46.820         33.33	     6.325
  46.840         29.17	     5.916
  46.860         29.17	     5.916
  46.880         27.50	     5.745
  46.900         27.50	     5.745
  46.920         42.50	     7.141
  46.940         47.50	     7.550
  46.960         25.00	     5.477
  46.980         30.83	     6.083
  47.000         28.33	     5.831
  47.020         32.50	     6.245
  47.040         29.17	     5.916
  47.060         27.50	     5.745
  47.080         40.00	     6.928
  47.100         33.33	     6.325
  47.120         31.67	     6.164
  47.140         35.00	     6.481
  47.160         28.33	     5.831
  47.180         29.17	     5.916
  47.200         43.33	     7.211
  47.220         49.17	     7.681
  47.240         28.33	     5.831
  47.260         41.67	     7.071
  47.280         32.50	     6.245
  47.300         45.83	     7.416
  47.320         50.00	     7.746
  47.340         51.67	     7.874
  47.360         64.17	     8.775
  47.380         35.00	     6.481
  47.400         50.83	     7.810
  47.420         35.00	     6.481
  47.440         49.17	     7.681
  47.460         45.83	     7.416
  47.480         43.33	     7.211
  47.500         26.67	     5.657
  47.520         40.00	     6.928
  47.540         29.17	     5.916
  47.560         27.50	     5.745
  47.580         35.83	     6.557
  47.600         39.17	     6.856
  47.620         36.67	     6.633
  47.640         22.50	     5.196
  47.660         35.00	     6.481
  47.680         36.67	     6.633
  47.700         35.00	     6.481
  47.720         25.83	     5.568
  47.740         27.50	     5.745
  47.760         25.83	     5.568
  47.780         29.17	     5.916
  47.800         29.17	     5.916
  47.820         28.33	     5.831
  47.840         30.00	     6.000
  47.860         29.17	     5.916
  47.880         34.17	     6.403
  47.900         26.67	     5.657
  47.920         23.33	     5.292
  47.940         23.33	     5.292
  47.960         20.83	     5.000
  47.980         27.50	     5.745
  48.000         29.17	     5.916
  48.020         28.33	     5.831
  48.040         32.50	     6.245
  48.060         33.33	     6.325
  48.080         34.17	     6.403
  48.100         42.50	     7.141
  48.120         38.33	     6.782
  48.140         42.50	     7.141
  48.160         43.33	     7.211
  48.180         50.00	     7.746
  48.200         45.83	     7.416
  48.220         47.50	     7.550
  48.240         42.50	     7.141
  48.260         45.83	     7.416
  48.280         32.50	     6.245
  48.300         44.17	     7.280
  48.320         60.00	     8.485
  48.340         62.50	     8.660
  48.360         50.00	     7.746
  48.380         36.67	     6.633
  48.400         50.83	     7.810
  48.420         55.00	     8.124
  48.440         48.33	     7.616
  48.460         58.33	     8.367
  48.480         53.33	     8.000
  48.500         46.67	     7.483
  48.520         50.00	     7.746
  48.540         40.00	     6.928
  48.560         40.00	     6.928
  48.580         58.33	     8.367
  48.600         59.17	     8.426
  48.620         45.00	     7.348
  48.640         37.50	     6.708
  48.660         29.17	     5.916
  48.680         35.00	     6.481
  48.700         42.50	     7.141
  48.720         40.83	     7.000
  48.740         35.00	     6.481
  48.760         25.00	     5.477
  48.780         34.17	     6.403
  48.800         37.50	     6.708
  48.820         28.33	     5.831
  48.840         35.83	     6.557
  48.860         29.17	     5.916
  48.880         36.67	     6.633
  48.900         40.83	     7.000
  48.920         27.50	     5.745
  48.940         40.00	     6.928
  48.960         45.83	     7.416
  48.980         52.50	     7.937
  49.000         41.67	     7.071
  49.020         37.50	     6.708
  49.040         55.83	     8.185
  49.060         45.83	     7.416
  49.080         36.67	     6.633
  49.100         24.17	     5.385
  49.120         38.33	     6.782
  49.140         45.83	     7.416
  49.160         34.17	     6.403
  49.180         38.33	     6.782
  49.200         34.17	     6.403
  49.220         35.83	     6.557
  49.240         35.83	     6.557
  49.260         43.33	     7.211
  49.280         31.67	     6.164
  49.300         36.67	     6.633
  49.320         50.00	     7.746
  49.340         36.67	     6.633
  49.360         63.33	     8.718
  49.380         78.33	     9.695
  49.400         95.00	    10.677
  49.420         76.67	     9.592
  49.440         57.50	     8.307
  49.460         55.00	     8.124
  49.480         48.33	     7.616
  49.500         37.50	     6.708
  49.520         63.33	     8.718
  49.540         70.00	     9.165
  49.560         57.50	     8.307
  49.580         50.83	     7.810
  49.600         52.50	     7.937
  49.620         38.33	     6.782
  49.640         58.33	     8.367
  49.660         95.83	    10.724
  49.680         85.00	    10.100
  49.700         45.83	     7.416
  49.720         42.50	     7.141
  49.740         45.00	     7.348
  49.760         46.67	     7.483
  49.780         56.67	     8.246
  49.800         50.00	     7.746
  49.820         50.00	     7.746
  49.840         56.67	     8.246
  49.860         37.50	     6.708
  49.880         37.50	     6.708
  49.900         50.00	     7.746
  49.920         45.83	     7.416
  49.940         49.17	     7.681
  49.960         47.50	     7.550
  49.980         56.67	     8.246
  50.000         47.50	     7.550
  50.020         67.50	     9.000
  50.040         56.67	     8.246
  50.060         50.83	     7.810
  50.080         70.00	     9.165
  50.100         61.67	     8.602
  50.120         79.17	     9.747
  50.140         86.67	    10.198
  50.160         79.17	     9.747
  50.180         84.17	    10.050
  50.200         84.17	    10.050
  50.220        101.67	    11.045
  50.240        123.33	    12.166
  50.260        179.17	    14.663
  50.280        266.67	    17.889
  50.300        386.67	    21.541
  50.320        493.33	    24.331
  50.340        535.83	    25.357
  50.360        492.50	    24.310
  50.380        355.83	    20.664
  50.400        300.00	    18.974
  50.420        231.67	    16.673
  50.440        265.00	    17.833
  50.460        297.50	    18.894
  50.480        290.83	    18.682
  50.500        260.00	    17.664
  50.520        180.00	    14.697
  50.540        110.83	    11.533
  50.560         70.83	     9.220
  50.580         53.33	     8.000
  50.600         60.00	     8.485
  50.620         56.67	     8.246
  50.640         45.00	     7.348
  50.660         50.00	     7.746
  50.680         42.50	     7.141
  50.700         50.00	     7.746
  50.720         55.00	     8.124
  50.740         47.50	     7.550
  50.760         70.83	     9.220
  50.780         65.00	     8.832
  50.800         64.17	     8.775
  50.820         60.83	     8.544
  50.840         47.50	     7.550
  50.860         50.00	     7.746
  50.880         58.33	     8.367
  50.900         65.83	     8.888
  50.920         70.00	     9.165
  50.940         68.33	     9.055
  50.960         66.67	     8.944
  50.980         60.00	     8.485
  51.000         45.83	     7.416
  51.020         31.67	     6.164
  51.040         34.17	     6.403
  51.060         32.50	     6.245
  51.080         43.33	     7.211
  51.100         39.17	     6.856
  51.120         40.83	     7.000
  51.140         35.00	     6.481
  51.160         39.17	     6.856
  51.180         39.17	     6.856
  51.200         35.00	     6.481
  51.220         35.00	     6.481
  51.240         27.50	     5.745
  51.260         28.33	     5.831
  51.280         45.83	     7.416
  51.300         50.00	     7.746
  51.320         73.33	     9.381
  51.340         69.17	     9.110
  51.360         72.50	     9.327
  51.380         70.00	     9.165
  51.400         60.83	     8.544
  51.420         71.67	     9.274
  51.440         53.33	     8.000
  51.460         68.33	     9.055
  51.480         57.50	     8.307
  51.500         64.17	     8.775
  51.520         57.50	     8.307
  51.540         61.67	     8.602
  51.560         56.67	     8.246
  51.580         40.00	     6.928
  51.600         39.17	     6.856
  51.620         26.67	     5.657
  51.640         39.17	     6.856
  51.660         24.17	     5.385
  51.680         30.83	     6.083
  51.700         27.50	     5.745
  51.720         30.83	     6.083
  51.740         34.17	     6.403
  51.760         26.67	     5.657
  51.780         37.50	     6.708
  51.800         34.17	     6.403
  51.820         29.17	     5.916
  51.840         37.50	     6.708
  51.860         26.67	     5.657
  51.880         27.50	     5.745
  51.900         36.67	     6.633
  51.920         25.83	     5.568
  51.940         27.50	     5.745
  51.960         29.17	     5.916
  51.980         30.00	     6.000
  52.000         30.83	     6.083
  52.020         36.67	     6.633
  52.040         29.17	     5.916
  52.060         24.17	     5.385
  52.080         28.33	     5.831
  52.100         28.33	     5.831
  52.120         31.67	     6.164
  52.140         24.17	     5.385
  52.160         31.67	     6.164
  52.180         25.83	     5.568
  52.200         30.00	     6.000
  52.220         26.67	     5.657
  52.240         22.50	     5.196
  52.260         34.17	     6.403
  52.280         29.17	     5.916
  52.300         42.50	     7.141
  52.320         41.67	     7.071
  52.340         51.67	     7.874
  52.360         54.17	     8.062
  52.380         41.67	     7.071
  52.400         34.17	     6.403
  52.420         34.17	     6.403
  52.440         39.17	     6.856
  52.460         29.17	     5.916
  52.480         44.17	     7.280
  52.500         48.33	     7.616
  52.520         41.67	     7.071
  52.540         45.83	     7.416
  52.560         51.67	     7.874
  52.580         41.67	     7.071
  52.600         46.67	     7.483
  52.620         54.17	     8.062
  52.640         52.50	     7.937
  52.660         50.83	     7.810
  52.680         52.50	     7.937
  52.700         55.00	     8.124
  52.720         65.00	     8.832
  52.740         50.83	     7.810
  52.760         46.67	     7.483
  52.780         37.50	     6.708
  52.800         44.17	     7.280
  52.820         34.17	     6.403
  52.840         35.83	     6.557
  52.860         40.00	     6.928
  52.880         45.00	     7.348
  52.900         40.83	     7.000
  52.920         51.67	     7.874
  52.940         42.50	     7.141
  52.960         33.33	     6.325
  52.980         34.17	     6.403
  53.000         39.17	     6.856
  53.020         40.83	     7.000
  53.040         56.67	     8.246
  53.060         47.50	     7.550
  53.080         39.17	     6.856
  53.100         36.67	     6.633
  53.120         48.33	     7.616
  53.140         37.50	     6.708
  53.160         43.33	     7.211
  53.180         55.83	     8.185
  53.200         41.67	     7.071
  53.220         42.50	     7.141
  53.240         45.00	     7.348
  53.260         42.50	     7.141
  53.280         57.50	     8.307
  53.300         50.83	     7.810
  53.320         48.33	     7.616
  53.340         40.83	     7.000
  53.360         43.33	     7.211
  53.380         45.83	     7.416
  53.400         65.83	     8.888
  53.420         65.83	     8.888
  53.440         65.83	     8.888
  53.460         45.83	     7.416
  53.480         52.50	     7.937
  53.500         37.50	     6.708
  53.520         56.67	     8.246
  53.540         35.00	     6.481
  53.560         44.17	     7.280
  53.580         48.33	     7.616
  53.600         32.50	     6.245
  53.620         42.50	     7.141
  53.640         39.17	     6.856
  53.660         41.67	     7.071
  53.680         50.83	     7.810
  53.700         34.17	     6.403
  53.720         38.33	     6.782
  53.740         40.83	     7.000
  53.760         35.83	     6.557
  53.780         37.50	     6.708
  53.800         34.17	     6.403
  53.820         44.17	     7.280
  53.840         30.00	     6.000
  53.860         23.33	     5.292
  53.880         41.67	     7.071
  53.900         35.00	     6.481
  53.920         34.17	     6.403
  53.940         30.83	     6.083
  53.960         38.33	     6.782
  53.980         35.83	     6.557
  54.000         33.33	     6.325
  54.020         30.00	     6.000
  54.040         28.33	     5.831
  54.060         38.33	     6.782
  54.080         32.50	     6.245
  54.100         38.33	     6.782
  54.120         30.83	     6.083
  54.140         33.33	     6.325
  54.160         41.67	     7.071
  54.180         32.50	     6.245
  54.200         38.33	     6.782
  54.220         36.67	     6.633
  54.240         30.00	     6.000
  54.260         33.33	     6.325
  54.280         34.17	     6.403
  54.300         36.67	     6.633
  54.320         49.17	     7.681
  54.340         36.67	     6.633
  54.360         20.00	     4.899
  54.380         24.17	     5.385
  54.400         38.33	     6.782
  54.420         33.33	     6.325
  54.440         40.83	     7.000
  54.460         40.00	     6.928
  54.480         50.83	     7.810
  54.500         64.17	     8.775
  54.520         42.50	     7.141
  54.540         50.83	     7.810
  54.560         51.67	     7.874
  54.580         56.67	     8.246
  54.600         36.67	     6.633
  54.620         55.00	     8.124
  54.640         58.33	     8.367
  54.660         46.67	     7.483
  54.680         49.17	     7.681
  54.700         52.50	     7.937
  54.720         52.50	     7.937
  54.740         50.83	     7.810
  54.760         42.50	     7.141
  54.780         56.67	     8.246
  54.800         55.00	     8.124
  54.820         43.33	     7.211
  54.840         47.50	     7.550
  54.860         36.67	     6.633
  54.880         43.33	     7.211
  54.900         54.17	     8.062
  54.920         54.17	     8.062
  54.940         48.33	     7.616
  54.960         57.50	     8.307
  54.980         67.50	     9.000
  55.000         63.33	     8.718
  55.020         83.33	    10.000
  55.040        109.17	    11.446
  55.060        127.50	    12.369
  55.080        106.67	    11.314
  55.100        102.50	    11.091
  55.120        106.67	    11.314
  55.140         85.00	    10.100
  55.160         98.33	    10.863
  55.180         85.00	    10.100
  55.200        101.67	    11.045
  55.220        114.17	    11.705
  55.240        111.67	    11.576
  55.260         88.33	    10.296
  55.280         56.67	     8.246
  55.300         51.67	     7.874
  55.320         60.83	     8.544
  55.340         58.33	     8.367
  55.360         65.00	     8.832
  55.380         72.50	     9.327
  55.400         63.33	     8.718
  55.420         77.50	     9.644
  55.440         65.00	     8.832
  55.460         90.00	    10.392
  55.480         80.00	     9.798
  55.500        114.17	    11.705
  55.520        111.67	    11.576
  55.540         98.33	    10.863
  55.560         79.17	     9.747
  55.580         72.50	     9.327
  55.600         69.17	     9.110
  55.620         66.67	     8.944
  55.640         70.00	     9.165
  55.660         73.33	     9.381
  55.680         83.33	    10.000
  55.700         61.67	     8.602
  55.720         61.67	     8.602
  55.740         48.33	     7.616
  55.760         60.83	     8.544
  55.780         62.50	     8.660
  55.800         67.50	     9.000
  55.820         58.33	     8.367
  55.840         66.67	     8.944
  55.860         66.67	     8.944
  55.880         70.00	     9.165
  55.900         77.50	     9.644
  55.920         75.83	     9.539
  55.940         88.33	    10.296
  55.960         94.17	    10.630
  55.980         99.17	    10.909
  56.000        110.83	    11.533
  56.020        128.33	    12.410
  56.040        118.33	    11.916
  56.060        123.33	    12.166
  56.080        118.33	    11.916
  56.100        107.50	    11.358
  56.120        106.67	    11.314
  56.140        102.50	    11.091
  56.160         94.17	    10.630
  56.180         84.17	    10.050
  56.200         84.17	    10.050
  56.220         75.83	     9.539
  56.240         66.67	     8.944
  56.260         95.83	    10.724
  56.280         55.83	     8.185
  56.300         69.17	     9.110
  56.320         55.00	     8.124
  56.340         43.33	     7.211
  56.360         48.33	     7.616
  56.380         42.50	     7.141
  56.400         45.00	     7.348
  56.420         42.50	     7.141
  56.440         48.33	     7.616
  56.460         37.50	     6.708
  56.480         45.83	     7.416
  56.500         41.67	     7.071
  56.520         45.00	     7.348
  56.540         43.33	     7.211
  56.560         45.00	     7.348
  56.580         43.33	     7.211
  56.600         28.33	     5.831
  56.620         22.50	     5.196
  56.640         18.33	     4.690
  56.660         33.33	     6.325
  56.680         30.00	     6.000
  56.700         39.17	     6.856
  56.720         35.00	     6.481
  56.740         36.67	     6.633
  56.760         35.83	     6.557
  56.780         32.50	     6.245
  56.800         44.17	     7.280
  56.820         47.50	     7.550
  56.840         39.17	     6.856
  56.860         37.50	     6.708
  56.880         40.83	     7.000
  56.900         42.50	     7.141
  56.920         31.67	     6.164
  56.940         45.00	     7.348
  56.960         30.83	     6.083
  56.980         46.67	     7.483
  57.000         29.17	     5.916
  57.020         28.33	     5.831
  57.040         40.83	     7.000
  57.060         35.00	     6.481
  57.080         38.33	     6.782
  57.100         38.33	     6.782
  57.120         41.67	     7.071
  57.140         34.17	     6.403
  57.160         35.83	     6.557
  57.180         30.83	     6.083
  57.200         22.50	     5.196
  57.220         32.50	     6.245
  57.240         21.67	     5.099
  57.260         38.33	     6.782
  57.280         36.67	     6.633
  57.300         36.67	     6.633
  57.320         45.00	     7.348
  57.340         37.50	     6.708
  57.360         42.50	     7.141
  57.380         45.83	     7.416
  57.400         34.17	     6.403
  57.420         45.00	     7.348
  57.440         43.33	     7.211
  57.460         45.00	     7.348
  57.480         38.33	     6.782
  57.500         30.00	     6.000
  57.520         45.83	     7.416
  57.540         38.33	     6.782
  57.560         40.00	     6.928
  57.580         37.50	     6.708
  57.600         25.83	     5.568
  57.620         36.67	     6.633
  57.640         27.50	     5.745
  57.660         33.33	     6.325
  57.680         36.67	     6.633
  57.700         35.83	     6.557
  57.720         40.83	     7.000
  57.740         29.17	     5.916
  57.760         29.17	     5.916
  57.780         37.50	     6.708
  57.800         30.00	     6.000
  57.820         40.00	     6.928
  57.840         35.83	     6.557
  57.860         32.50	     6.245
  57.880         50.00	     7.746
  57.900         53.33	     8.000
  57.920         45.83	     7.416
  57.940         40.83	     7.000
  57.960         33.33	     6.325
  57.980         45.00	     7.348
  58.000         36.67	     6.633
  58.020         31.67	     6.164
  58.040         37.50	     6.708
  58.060         32.50	     6.245
  58.080         26.67	     5.657
  58.100         35.00	     6.481
  58.120         41.67	     7.071
  58.140         31.67	     6.164
  58.160         29.17	     5.916
  58.180         35.83	     6.557
  58.200         47.50	     7.550
  58.220         48.33	     7.616
  58.240         56.67	     8.246
  58.260         50.83	     7.810
  58.280         44.17	     7.280
  58.300         45.83	     7.416
  58.320         41.67	     7.071
  58.340         35.83	     6.557
  58.360         29.17	     5.916
  58.380         50.00	     7.746
  58.400         39.17	     6.856
  58.420         47.50	     7.550
  58.440         44.17	     7.280
  58.460         43.33	     7.211
  58.480         43.33	     7.211
  58.500         42.50	     7.141
  58.520         23.33	     5.292
  58.540         35.83	     6.557
  58.560         39.17	     6.856
  58.580         30.83	     6.083
  58.600         41.67	     7.071
  58.620         22.50	     5.196
  58.640         45.83	     7.416
  58.660         33.33	     6.325
  58.680         33.33	     6.325
  58.700         43.33	     7.211
  58.720         50.83	     7.810
  58.740         56.67	     8.246
  58.760         40.00	     6.928
  58.780         45.83	     7.416
  58.800         41.67	     7.071
  58.820         45.83	     7.416
  58.840         44.17	     7.280
  58.860         47.50	     7.550
  58.880         63.33	     8.718
  58.900         57.50	     8.307
  58.920         46.67	     7.483
  58.940         39.17	     6.856
  58.960         49.17	     7.681
  58.980         45.00	     7.348
  59.000         37.50	     6.708
  59.020         55.83	     8.185
  59.040         45.83	     7.416
  59.060         46.67	     7.483
  59.080         54.17	     8.062
  59.100         60.83	     8.544
  59.120         50.00	     7.746
  59.140         51.67	     7.874
  59.160         53.33	     8.000
  59.180         40.83	     7.000
  59.200         48.33	     7.616
  59.220         60.83	     8.544
  59.240         59.17	     8.426
  59.260         55.00	     8.124
  59.280         60.83	     8.544
  59.300         48.33	     7.616
  59.320         55.83	     8.185
  59.340         85.00	    10.100
  59.360         75.00	     9.487
  59.380         85.00	    10.100
  59.400         65.00	     8.832
  59.420         56.67	     8.246
  59.440         64.17	     8.775
  59.460         56.67	     8.246
  59.480         42.50	     7.141
  59.500         66.67	     8.944
  59.520         60.00	     8.485
  59.540         52.50	     7.937
  59.560         50.00	     7.746
  59.580         49.17	     7.681
  59.600         42.50	     7.141
  59.620         56.67	     8.246
  59.640         43.33	     7.211
  59.660         35.00	     6.481
  59.680         41.67	     7.071
  59.700         34.17	     6.403
  59.720         46.67	     7.483
  59.740         36.67	     6.633
  59.760         41.67	     7.071
  59.780         33.33	     6.325
  59.800         42.50	     7.141
  59.820         49.17	     7.681
  59.840         56.67	     8.246
  59.860         40.00	     6.928
  59.880         40.83	     7.000
  59.900         35.00	     6.481
  59.920         43.33	     7.211
  59.940         44.17	     7.280
  59.960         53.33	     8.000
  59.980         59.17	     8.426
  60.000         60.00	     8.485
  60.020         71.67	     9.274
  60.040         78.33	     9.695
  60.060        108.33	    11.402
  60.080        136.67	    12.806
  60.100        195.00	    15.297
  60.120        249.17	    17.292
  60.140        283.33	    18.439
  60.160        234.17	    16.763
  60.180        195.83	    15.330
  60.200        170.00	    14.283
  60.220        124.17	    12.207
  60.240        137.50	    12.845
  60.260        137.50	    12.845
  60.280        166.67	    14.142
  60.300        160.00	    13.856
  60.320        144.17	    13.153
  60.340        137.50	    12.845
  60.360        105.83	    11.269
  60.380         86.67	    10.198
  60.400         76.67	     9.592
  60.420         39.17	     6.856
  60.440         43.33	     7.211
  60.460         45.83	     7.416
  60.480         50.83	     7.810
  60.500         59.17	     8.426
  60.520         49.17	     7.681
  60.540         55.83	     8.185
  60.560         46.67	     7.483
  60.580         48.33	     7.616
  60.600         42.50	     7.141
  60.620         47.50	     7.550
  60.640         45.83	     7.416
  60.660         41.67	     7.071
  60.680         49.17	     7.681
  60.700         53.33	     8.000
  60.720         43.33	     7.211
  60.740         54.17	     8.062
  60.760         48.33	     7.616
  60.780         36.67	     6.633
  60.800         55.83	     8.185
  60.820         44.17	     7.280
  60.840         47.50	     7.550
  60.860         50.83	     7.810
  60.880         38.33	     6.782
  60.900         57.50	     8.307
  60.920         62.50	     8.660
  60.940         59.17	     8.426
  60.960         64.17	     8.775
  60.980         63.33	     8.718
  61.000         61.67	     8.602
  61.020         65.00	     8.832
  61.040         60.00	     8.485
  61.060         47.50	     7.550
  61.080         56.67	     8.246
  61.100         65.83	     8.888
  61.120         72.50	     9.327
  61.140         64.17	     8.775
  61.160         50.00	     7.746
  61.180         59.17	     8.426
  61.200         45.00	     7.348
  61.220         49.17	     7.681
  61.240         54.17	     8.062
  61.260         52.50	     7.937
  61.280         49.17	     7.681
  61.300         50.00	     7.746
  61.320         45.00	     7.348
  61.340         38.33	     6.782
  61.360         43.33	     7.211
  61.380         65.83	     8.888
  61.400         41.67	     7.071
  61.420         41.67	     7.071
  61.440         48.33	     7.616
  61.460         41.67	     7.071
  61.480         47.50	     7.550
  61.500         41.67	     7.071
  61.520         40.83	     7.000
  61.540         50.83	     7.810
  61.560         59.17	     8.426
  61.580         68.33	     9.055
  61.600         53.33	     8.000
  61.620         66.67	     8.944
  61.640         79.17	     9.747
  61.660         67.50	     9.000
  61.680         65.00	     8.832
  61.700         65.00	     8.832
  61.720         77.50	     9.644
  61.740         74.17	     9.434
  61.760         76.67	     9.592
  61.780         72.50	     9.327
  61.800         66.67	     8.944
  61.820         71.67	     9.274
  61.840         87.50	    10.247
  61.860         65.00	     8.832
  61.880         56.67	     8.246
  61.900         54.17	     8.062
  61.920         65.83	     8.888
  61.940         59.17	     8.426
  61.960         58.33	     8.367
  61.980         56.67	     8.246
  62.000         54.17	     8.062
  62.020         41.67	     7.071
  62.040         55.00	     8.124
  62.060         57.50	     8.307
  62.080         41.67	     7.071
  62.100         56.67	     8.246
  62.120         48.33	     7.616
  62.140         58.33	     8.367
  62.160         44.17	     7.280
  62.180         48.33	     7.616
  62.200         49.17	     7.681
  62.220         40.00	     6.928
  62.240         46.67	     7.483
  62.260         56.67	     8.246
  62.280         43.33	     7.211
  62.300         50.83	     7.810
  62.320         42.50	     7.141
  62.340         40.83	     7.000
  62.360         40.00	     6.928
  62.380         42.50	     7.141
  62.400         37.50	     6.708
  62.420         38.33	     6.782
  62.440         38.33	     6.782
  62.460         45.00	     7.348
  62.480         40.83	     7.000
  62.500         41.67	     7.071
  62.520         45.00	     7.348
  62.540         25.83	     5.568
  62.560         27.50	     5.745
  62.580         39.17	     6.856
  62.600         40.83	     7.000
  62.620         42.50	     7.141
  62.640         34.17	     6.403
  62.660         47.50	     7.550
  62.680         51.67	     7.874
  62.700         54.17	     8.062
  62.720         43.33	     7.211
  62.740         56.67	     8.246
  62.760         36.67	     6.633
  62.780         39.17	     6.856
  62.800         43.33	     7.211
  62.820         39.17	     6.856
  62.840         39.17	     6.856
  62.860         51.67	     7.874
  62.880         40.00	     6.928
  62.900         42.50	     7.141
  62.920         50.00	     7.746
  62.940         36.67	     6.633
  62.960         45.00	     7.348
  62.980         44.17	     7.280
  63.000         30.00	     6.000
  63.020         34.17	     6.403
  63.040         36.67	     6.633
  63.060         31.67	     6.164
  63.080         35.83	     6.557
  63.100         35.00	     6.481
  63.120         36.67	     6.633
  63.140         31.67	     6.164
  63.160         37.50	     6.708
  63.180         44.17	     7.280
  63.200         34.17	     6.403
  63.220         43.33	     7.211
  63.240         27.50	     5.745
  63.260         31.67	     6.164
  63.280         38.33	     6.782
  63.300         42.50	     7.141
  63.320         33.33	     6.325
  63.340         33.33	     6.325
  63.360         37.50	     6.708
  63.380         34.17	     6.403
  63.400         48.33	     7.616
  63.420         41.67	     7.071
  63.440         41.67	     7.071
  63.460         31.67	     6.164
  63.480         39.17	     6.856
  63.500         37.50	     6.708
  63.520         44.17	     7.280
  63.540         49.17	     7.681
  63.560         25.00	     5.477
  63.580         34.17	     6.403
  63.600         59.17	     8.426
  63.620         50.00	     7.746
  63.640         50.83	     7.810
  63.660         57.50	     8.307
  63.680         40.00	     6.928
  63.700         45.00	     7.348
  63.720         38.33	     6.782
  63.740         43.33	     7.211
  63.760         39.17	     6.856
  63.780         35.83	     6.557
  63.800         35.83	     6.557
  63.820         45.00	     7.348
  63.840         37.50	     6.708
  63.860         34.17	     6.403
  63.880         40.83	     7.000
  63.900         45.00	     7.348
  63.920         33.33	     6.325
  63.940         40.00	     6.928
  63.960         40.83	     7.000
  63.980         43.33	     7.211
  64.000         39.17	     6.856
  64.020         45.83	     7.416
  64.040         35.83	     6.557
  64.060         45.83	     7.416
  64.080         31.67	     6.164
  64.100         44.17	     7.280
  64.120         59.17	     8.426
  64.140         60.83	     8.544
  64.160         80.83	     9.849
  64.180         90.83	    10.440
  64.200         85.00	    10.100
  64.220         83.33	    10.000
  64.240         90.83	    10.440
  64.260        103.33	    11.136
  64.280        109.17	    11.446
  64.300        102.50	    11.091
  64.320         84.17	    10.050
  64.340         82.50	     9.950
  64.360         72.50	     9.327
  64.380         59.17	     8.426
  64.400         65.83	     8.888
  64.420         67.50	     9.000
  64.440         75.83	     9.539
  64.460         70.83	     9.220
  64.480         75.83	     9.539
  64.500         56.67	     8.246
  64.520         65.83	     8.888
  64.540         64.17	     8.775
  64.560         50.83	     7.810
  64.580         36.67	     6.633
  64.600         40.00	     6.928
  64.620         43.33	     7.211
  64.640         36.67	     6.633
  64.660         41.67	     7.071
  64.680         35.00	     6.481
  64.700         40.00	     6.928
  64.720         49.17	     7.681
  64.740         30.00	     6.000
  64.760         27.50	     5.745
  64.780         44.17	     7.280
  64.800         59.17	     8.426
  64.820         45.83	     7.416
  64.840         61.67	     8.602
  64.860         51.67	     7.874
  64.880         44.17	     7.280
  64.900         58.33	     8.367
  64.920         57.50	     8.307
  64.940         56.67	     8.246
  64.960         40.00	     6.928
  64.980         52.50	     7.937
  65.000         48.33	     7.616
