
Filename:
	C:\Program Files\Thermo Electron\WinXRD\Datafiles\F_HERMAN\GEO\GG_11B_SFT.raw

File Created:
	October 12, 2020 - 10:38 PM

Specimen Id:
	GG_11B_SFT

Specimen Name:
	

Specimen Description:
	

Comment:
Scan Type: 2Theta Scan
Start Angle: 3 deg.
Stop Angle: 65 deg.
Num Points: 3101
Step Size: 0.02 deg.
Scan Rate: 1.000000
Scan Mode: Continuous
Wavelength: 1.540562
\Kalpha1: 1.540562	\Kalpha2: 1.544390	\Kbeta: 1.392218

Optics:
		Detector:
			 Type: Fixed Slits
		Tube: 
			 Type: Fixed Slits


Datas:
 Pos [deg]       Rate [CPS]      ESD [-]

Range 1 ---> Iteration 1
   3.000        454.17	    23.345
   3.020        470.00	    23.749
   3.040        434.17	    22.825
   3.060        421.67	    22.494
   3.080        431.67	    22.760
   3.100        456.67	    23.409
   3.120        449.17	    23.216
   3.140        405.00	    22.045
   3.160        402.50	    21.977
   3.180        410.00	    22.181
   3.200        417.50	    22.383
   3.220        400.83	    21.932
   3.240        376.67	    21.260
   3.260        397.50	    21.840
   3.280        400.00	    21.909
   3.300        376.67	    21.260
   3.320        415.00	    22.316
   3.340        408.33	    22.136
   3.360        371.67	    21.119
   3.380        370.00	    21.071
   3.400        408.33	    22.136
   3.420        390.00	    21.633
   3.440        370.00	    21.071
   3.460        378.33	    21.307
   3.480        370.00	    21.071
   3.500        366.67	    20.976
   3.520        359.17	    20.761
   3.540        369.17	    21.048
   3.560        395.00	    21.772
   3.580        370.83	    21.095
   3.600        370.83	    21.095
   3.620        339.17	    20.174
   3.640        369.17	    21.048
   3.660        365.83	    20.952
   3.680        341.67	    20.248
   3.700        346.67	    20.396
   3.720        368.33	    21.024
   3.740        377.50	    21.284
   3.760        312.50	    19.365
   3.780        339.17	    20.174
   3.800        329.17	    19.875
   3.820        360.00	    20.785
   3.840        359.17	    20.761
   3.860        349.17	    20.469
   3.880        357.50	    20.712
   3.900        327.50	    19.824
   3.920        341.67	    20.248
   3.940        346.67	    20.396
   3.960        326.67	    19.799
   3.980        332.50	    19.975
   4.000        327.50	    19.824
   4.020        357.50	    20.712
   4.040        333.33	    20.000
   4.060        305.83	    19.157
   4.080        322.50	    19.672
   4.100        313.33	    19.391
   4.120        325.83	    19.774
   4.140        304.17	    19.105
   4.160        316.67	    19.494
   4.180        289.17	    18.628
   4.200        319.17	    19.570
   4.220        323.33	    19.698
   4.240        305.83	    19.157
   4.260        270.00	    18.000
   4.280        317.50	    19.519
   4.300        308.33	    19.235
   4.320        285.00	    18.493
   4.340        306.67	    19.183
   4.360        281.67	    18.385
   4.380        309.17	    19.261
   4.400        324.17	    19.723
   4.420        303.33	    19.079
   4.440        286.67	    18.547
   4.460        297.50	    18.894
   4.480        322.50	    19.672
   4.500        299.17	    18.947
   4.520        294.17	    18.788
   4.540        293.33	    18.762
   4.560        292.50	    18.735
   4.580        296.67	    18.868
   4.600        259.17	    17.635
   4.620        277.50	    18.248
   4.640        287.50	    18.574
   4.660        278.33	    18.276
   4.680        284.17	    18.466
   4.700        280.00	    18.330
   4.720        249.17	    17.292
   4.740        279.17	    18.303
   4.760        289.17	    18.628
   4.780        261.67	    17.720
   4.800        269.17	    17.972
   4.820        229.17	    16.583
   4.840        270.00	    18.000
   4.860        266.67	    17.889
   4.880        281.67	    18.385
   4.900        250.83	    17.349
   4.920        247.50	    17.234
   4.940        253.33	    17.436
   4.960        270.00	    18.000
   4.980        257.50	    17.578
   5.000        230.00	    16.613
   5.020        244.17	    17.117
   5.040        224.17	    16.401
   5.060        278.33	    18.276
   5.080        256.67	    17.550
   5.100        230.00	    16.613
   5.120        233.33	    16.733
   5.140        258.33	    17.607
   5.160        253.33	    17.436
   5.180        236.67	    16.852
   5.200        246.67	    17.205
   5.220        235.00	    16.793
   5.240        234.17	    16.763
   5.260        254.17	    17.464
   5.280        250.83	    17.349
   5.300        236.67	    16.852
   5.320        267.50	    17.916
   5.340        258.33	    17.607
   5.360        270.00	    18.000
   5.380        255.83	    17.521
   5.400        233.33	    16.733
   5.420        230.83	    16.643
   5.440        230.83	    16.643
   5.460        250.83	    17.349
   5.480        249.17	    17.292
   5.500        243.33	    17.088
   5.520        230.83	    16.643
   5.540        238.33	    16.912
   5.560        221.67	    16.310
   5.580        255.00	    17.493
   5.600        243.33	    17.088
   5.620        236.67	    16.852
   5.640        246.67	    17.205
   5.660        220.00	    16.248
   5.680        261.67	    17.720
   5.700        257.50	    17.578
   5.720        237.50	    16.882
   5.740        240.83	    17.000
   5.760        261.67	    17.720
   5.780        244.17	    17.117
   5.800        266.67	    17.889
   5.820        290.00	    18.655
   5.840        292.50	    18.735
   5.860        274.17	    18.138
   5.880        308.33	    19.235
   5.900        295.83	    18.841
   5.920        305.00	    19.131
   5.940        290.00	    18.655
   5.960        315.00	    19.442
   5.980        300.00	    18.974
   6.000        350.83	    20.518
   6.020        345.00	    20.347
   6.040        393.33	    21.726
   6.060        397.50	    21.840
   6.080        431.67	    22.760
   6.100        431.67	    22.760
   6.120        505.00	    24.617
   6.140        536.67	    25.377
   6.160        606.67	    26.981
   6.180        640.83	    27.731
   6.200        670.83	    28.373
   6.220        776.67	    30.529
   6.240        789.17	    30.773
   6.260        890.83	    32.696
   6.280        887.50	    32.634
   6.300        840.83	    31.765
   6.320        760.00	    30.199
   6.340        710.00	    29.189
   6.360        585.00	    26.495
   6.380        465.83	    23.643
   6.400        448.33	    23.195
   6.420        410.83	    22.204
   6.440        376.67	    21.260
   6.460        353.33	    20.591
   6.480        366.67	    20.976
   6.500        363.33	    20.881
   6.520        365.83	    20.952
   6.540        350.83	    20.518
   6.560        320.00	    19.596
   6.580        334.17	    20.025
   6.600        290.83	    18.682
   6.620        297.50	    18.894
   6.640        318.33	    19.545
   6.660        316.67	    19.494
   6.680        326.67	    19.799
   6.700        302.50	    19.053
   6.720        297.50	    18.894
   6.740        286.67	    18.547
   6.760        286.67	    18.547
   6.780        261.67	    17.720
   6.800        302.50	    19.053
   6.820        297.50	    18.894
   6.840        303.33	    19.079
   6.860        282.50	    18.412
   6.880        287.50	    18.574
   6.900        278.33	    18.276
   6.920        276.67	    18.221
   6.940        288.33	    18.601
   6.960        248.33	    17.263
   6.980        283.33	    18.439
   7.000        260.83	    17.692
   7.020        267.50	    17.916
   7.040        290.83	    18.682
   7.060        268.33	    17.944
   7.080        247.50	    17.234
   7.100        251.67	    17.378
   7.120        279.17	    18.303
   7.140        261.67	    17.720
   7.160        275.83	    18.193
   7.180        250.83	    17.349
   7.200        254.17	    17.464
   7.220        269.17	    17.972
   7.240        244.17	    17.117
   7.260        266.67	    17.889
   7.280        262.50	    17.748
   7.300        265.00	    17.833
   7.320        224.17	    16.401
   7.340        226.67	    16.492
   7.360        247.50	    17.234
   7.380        240.83	    17.000
   7.400        253.33	    17.436
   7.420        229.17	    16.583
   7.440        224.17	    16.401
   7.460        232.50	    16.703
   7.480        221.67	    16.310
   7.500        205.00	    15.684
   7.520        235.00	    16.793
   7.540        200.83	    15.524
   7.560        266.67	    17.889
   7.580        232.50	    16.703
   7.600        214.17	    16.031
   7.620        218.33	    16.186
   7.640        195.83	    15.330
   7.660        213.33	    16.000
   7.680        237.50	    16.882
   7.700        195.00	    15.297
   7.720        215.83	    16.093
   7.740        210.00	    15.875
   7.760        203.33	    15.620
   7.780        259.17	    17.635
   7.800        196.67	    15.362
   7.820        222.50	    16.340
   7.840        220.83	    16.279
   7.860        220.83	    16.279
   7.880        225.83	    16.462
   7.900        200.00	    15.492
   7.920        212.50	    15.969
   7.940        210.83	    15.906
   7.960        215.00	    16.062
   7.980        201.67	    15.556
   8.000        220.00	    16.248
   8.020        223.33	    16.371
   8.040        210.00	    15.875
   8.060        225.83	    16.462
   8.080        200.83	    15.524
   8.100        222.50	    16.340
   8.120        226.67	    16.492
   8.140        215.83	    16.093
   8.160        229.17	    16.583
   8.180        204.17	    15.652
   8.200        255.83	    17.521
   8.220        237.50	    16.882
   8.240        238.33	    16.912
   8.260        280.00	    18.330
   8.280        229.17	    16.583
   8.300        246.67	    17.205
   8.320        217.50	    16.155
   8.340        275.83	    18.193
   8.360        251.67	    17.378
   8.380        271.67	    18.055
   8.400        279.17	    18.303
   8.420        289.17	    18.628
   8.440        289.17	    18.628
   8.460        313.33	    19.391
   8.480        307.50	    19.209
   8.500        325.83	    19.774
   8.520        320.83	    19.621
   8.540        318.33	    19.545
   8.560        350.83	    20.518
   8.580        359.17	    20.761
   8.600        425.83	    22.605
   8.620        394.17	    21.749
   8.640        449.17	    23.216
   8.660        425.83	    22.605
   8.680        477.50	    23.937
   8.700        474.17	    23.854
   8.720        541.67	    25.495
   8.740        511.67	    24.779
   8.760        605.00	    26.944
   8.780        634.17	    27.586
   8.800        706.67	    29.120
   8.820        758.33	    30.166
   8.840        805.83	    31.097
   8.860        888.33	    32.650
   8.880       1040.00	    35.327
   8.900       1093.33	    36.222
   8.920       1168.33	    37.443
   8.940       1216.67	    38.210
   8.960       1065.00	    35.749
   8.980        845.00	    31.843
   9.000        672.50	    28.408
   9.020        550.00	    25.690
   9.040        391.67	    21.679
   9.060        315.83	    19.468
   9.080        310.83	    19.313
   9.100        255.83	    17.521
   9.120        264.17	    17.804
   9.140        272.50	    18.083
   9.160        259.17	    17.635
   9.180        237.50	    16.882
   9.200        223.33	    16.371
   9.220        255.00	    17.493
   9.240        219.17	    16.217
   9.260        245.83	    17.176
   9.280        193.33	    15.232
   9.300        205.00	    15.684
   9.320        220.83	    16.279
   9.340        196.67	    15.362
   9.360        208.33	    15.811
   9.380        210.83	    15.906
   9.400        229.17	    16.583
   9.420        229.17	    16.583
   9.440        283.33	    18.439
   9.460        315.83	    19.468
   9.480        299.17	    18.947
   9.500        310.83	    19.313
   9.520        316.67	    19.494
   9.540        281.67	    18.385
   9.560        237.50	    16.882
   9.580        194.17	    15.264
   9.600        165.83	    14.107
   9.620        150.83	    13.454
   9.640        130.83	    12.530
   9.660        140.00	    12.961
   9.680        150.00	    13.416
   9.700        135.00	    12.728
   9.720        135.00	    12.728
   9.740        128.33	    12.410
   9.760        148.33	    13.342
   9.780        138.33	    12.884
   9.800        139.17	    12.923
   9.820        156.67	    13.711
   9.840        136.67	    12.806
   9.860        138.33	    12.884
   9.880        148.33	    13.342
   9.900        131.67	    12.570
   9.920        136.67	    12.806
   9.940        119.17	    11.958
   9.960        117.50	    11.874
   9.980        123.33	    12.166
  10.000        118.33	    11.916
  10.020        123.33	    12.166
  10.040        121.67	    12.083
  10.060        137.50	    12.845
  10.080        126.67	    12.329
  10.100        117.50	    11.874
  10.120        116.67	    11.832
  10.140        118.33	    11.916
  10.160        108.33	    11.402
  10.180        135.00	    12.728
  10.200        110.00	    11.489
  10.220        138.33	    12.884
  10.240        109.17	    11.446
  10.260        118.33	    11.916
  10.280         98.33	    10.863
  10.300        125.83	    12.288
  10.320        126.67	    12.329
  10.340         98.33	    10.863
  10.360        108.33	    11.402
  10.380        115.00	    11.747
  10.400        120.00	    12.000
  10.420        144.17	    13.153
  10.440        125.00	    12.247
  10.460        145.83	    13.229
  10.480        160.00	    13.856
  10.500        173.33	    14.422
  10.520        209.17	    15.843
  10.540        263.33	    17.776
  10.560        253.33	    17.436
  10.580        255.83	    17.521
  10.600        222.50	    16.340
  10.620        201.67	    15.556
  10.640        185.00	    14.900
  10.660        165.00	    14.071
  10.680        125.83	    12.288
  10.700        119.17	    11.958
  10.720        129.17	    12.450
  10.740        116.67	    11.832
  10.760         95.00	    10.677
  10.780        109.17	    11.446
  10.800        121.67	    12.083
  10.820        107.50	    11.358
  10.840        101.67	    11.045
  10.860         97.50	    10.817
  10.880        104.17	    11.180
  10.900         71.67	     9.274
  10.920        105.83	    11.269
  10.940        102.50	    11.091
  10.960         76.67	     9.592
  10.980        112.50	    11.619
  11.000        100.00	    10.954
  11.020        106.67	    11.314
  11.040        107.50	    11.358
  11.060        107.50	    11.358
  11.080         94.17	    10.630
  11.100         96.67	    10.770
  11.120        104.17	    11.180
  11.140         91.67	    10.488
  11.160        102.50	    11.091
  11.180        100.83	    11.000
  11.200        103.33	    11.136
  11.220        113.33	    11.662
  11.240        103.33	    11.136
  11.260        119.17	    11.958
  11.280        105.00	    11.225
  11.300        116.67	    11.832
  11.320        105.83	    11.269
  11.340         97.50	    10.817
  11.360        115.83	    11.790
  11.380        101.67	    11.045
  11.400         98.33	    10.863
  11.420         99.17	    10.909
  11.440        107.50	    11.358
  11.460        102.50	    11.091
  11.480        120.83	    12.042
  11.500        115.83	    11.790
  11.520        110.00	    11.489
  11.540        120.83	    12.042
  11.560        112.50	    11.619
  11.580        112.50	    11.619
  11.600        124.17	    12.207
  11.620        119.17	    11.958
  11.640        127.50	    12.369
  11.660        126.67	    12.329
  11.680        115.83	    11.790
  11.700        121.67	    12.083
  11.720        146.67	    13.266
  11.740        136.67	    12.806
  11.760        152.50	    13.528
  11.780        135.83	    12.767
  11.800        139.17	    12.923
  11.820        141.67	    13.038
  11.840        147.50	    13.304
  11.860        132.50	    12.610
  11.880        153.33	    13.565
  11.900        147.50	    13.304
  11.920        140.00	    12.961
  11.940        149.17	    13.379
  11.960        180.00	    14.697
  11.980        178.33	    14.629
  12.000        207.50	    15.780
  12.020        220.00	    16.248
  12.040        240.83	    17.000
  12.060        271.67	    18.055
  12.080        315.83	    19.468
  12.100        401.67	    21.954
  12.120        481.67	    24.042
  12.140        607.50	    27.000
  12.160        783.33	    30.659
  12.180       1039.17	    35.313
  12.200       1298.33	    39.472
  12.220       1543.33	    43.035
  12.240       1966.67	    48.580
  12.260       2025.00	    49.295
  12.280       1770.00	    46.087
  12.300       1434.17	    41.485
  12.320       1072.50	    35.875
  12.340        793.33	    30.854
  12.360        707.50	    29.138
  12.380        736.67	    29.732
  12.400        757.50	    30.150
  12.420        814.17	    31.257
  12.440        877.50	    32.450
  12.460        929.17	    33.392
  12.480       1041.67	    35.355
  12.500       1126.67	    36.770
  12.520       1203.33	    38.000
  12.540       1368.33	    40.522
  12.560       1238.33	    38.549
  12.580       1135.83	    36.919
  12.600        876.67	    32.435
  12.620        586.67	    26.533
  12.640        425.83	    22.605
  12.660        306.67	    19.183
  12.680        242.50	    17.059
  12.700        222.50	    16.340
  12.720        210.00	    15.875
  12.740        170.83	    14.318
  12.760        165.00	    14.071
  12.780        160.00	    13.856
  12.800        160.83	    13.892
  12.820        138.33	    12.884
  12.840        140.83	    13.000
  12.860        133.33	    12.649
  12.880        110.00	    11.489
  12.900        117.50	    11.874
  12.920        122.50	    12.124
  12.940        107.50	    11.358
  12.960        104.17	    11.180
  12.980         98.33	    10.863
  13.000         75.00	     9.487
  13.020        101.67	    11.045
  13.040         93.33	    10.583
  13.060        106.67	    11.314
  13.080         85.00	    10.100
  13.100         96.67	    10.770
  13.120         96.67	    10.770
  13.140        104.17	    11.180
  13.160         95.00	    10.677
  13.180         69.17	     9.110
  13.200         71.67	     9.274
  13.220         76.67	     9.592
  13.240         85.83	    10.149
  13.260         90.00	    10.392
  13.280         92.50	    10.536
  13.300         77.50	     9.644
  13.320         99.17	    10.909
  13.340         73.33	     9.381
  13.360         80.83	     9.849
  13.380         89.17	    10.344
  13.400         87.50	    10.247
  13.420         96.67	    10.770
  13.440         80.00	     9.798
  13.460         90.83	    10.440
  13.480         80.83	     9.849
  13.500        104.17	    11.180
  13.520         83.33	    10.000
  13.540         95.00	    10.677
  13.560         95.00	    10.677
  13.580         74.17	     9.434
  13.600         73.33	     9.381
  13.620         75.00	     9.487
  13.640         72.50	     9.327
  13.660         82.50	     9.950
  13.680         79.17	     9.747
  13.700         70.00	     9.165
  13.720         78.33	     9.695
  13.740         55.83	     8.185
  13.760         69.17	     9.110
  13.780         74.17	     9.434
  13.800         94.17	    10.630
  13.820         78.33	     9.695
  13.840         66.67	     8.944
  13.860         80.83	     9.849
  13.880         80.83	     9.849
  13.900         91.67	    10.488
  13.920         76.67	     9.592
  13.940         95.00	    10.677
  13.960         76.67	     9.592
  13.980         77.50	     9.644
  14.000         80.83	     9.849
  14.020         78.33	     9.695
  14.040         73.33	     9.381
  14.060         70.00	     9.165
  14.080         65.00	     8.832
  14.100         71.67	     9.274
  14.120         84.17	    10.050
  14.140         61.67	     8.602
  14.160         62.50	     8.660
  14.180         69.17	     9.110
  14.200         63.33	     8.718
  14.220         70.00	     9.165
  14.240         62.50	     8.660
  14.260         60.83	     8.544
  14.280         53.33	     8.000
  14.300         57.50	     8.307
  14.320         63.33	     8.718
  14.340         65.00	     8.832
  14.360         64.17	     8.775
  14.380         60.00	     8.485
  14.400         55.83	     8.185
  14.420         64.17	     8.775
  14.440         53.33	     8.000
  14.460         75.83	     9.539
  14.480         60.83	     8.544
  14.500         54.17	     8.062
  14.520         59.17	     8.426
  14.540         60.83	     8.544
  14.560         59.17	     8.426
  14.580         61.67	     8.602
  14.600         50.00	     7.746
  14.620         53.33	     8.000
  14.640         44.17	     7.280
  14.660         54.17	     8.062
  14.680         50.00	     7.746
  14.700         49.17	     7.681
  14.720         53.33	     8.000
  14.740         58.33	     8.367
  14.760         52.50	     7.937
  14.780         71.67	     9.274
  14.800         65.00	     8.832
  14.820         50.83	     7.810
  14.840         61.67	     8.602
  14.860         60.00	     8.485
  14.880         63.33	     8.718
  14.900         67.50	     9.000
  14.920         55.83	     8.185
  14.940         54.17	     8.062
  14.960         60.00	     8.485
  14.980         71.67	     9.274
  15.000         75.00	     9.487
  15.020         50.83	     7.810
  15.040         60.83	     8.544
  15.060         65.83	     8.888
  15.080         52.50	     7.937
  15.100         57.50	     8.307
  15.120         48.33	     7.616
  15.140         65.00	     8.832
  15.160         50.00	     7.746
  15.180         66.67	     8.944
  15.200         53.33	     8.000
  15.220         50.00	     7.746
  15.240         49.17	     7.681
  15.260         49.17	     7.681
  15.280         61.67	     8.602
  15.300         55.00	     8.124
  15.320         56.67	     8.246
  15.340         55.00	     8.124
  15.360         74.17	     9.434
  15.380         51.67	     7.874
  15.400         45.00	     7.348
  15.420         59.17	     8.426
  15.440         58.33	     8.367
  15.460         50.00	     7.746
  15.480         45.83	     7.416
  15.500         60.83	     8.544
  15.520         37.50	     6.708
  15.540         67.50	     9.000
  15.560         55.00	     8.124
  15.580         53.33	     8.000
  15.600         42.50	     7.141
  15.620         60.83	     8.544
  15.640         47.50	     7.550
  15.660         50.00	     7.746
  15.680         48.33	     7.616
  15.700         49.17	     7.681
  15.720         46.67	     7.483
  15.740         50.83	     7.810
  15.760         55.00	     8.124
  15.780         62.50	     8.660
  15.800         55.00	     8.124
  15.820         55.00	     8.124
  15.840         55.00	     8.124
  15.860         37.50	     6.708
  15.880         60.83	     8.544
  15.900         46.67	     7.483
  15.920         53.33	     8.000
  15.940         60.83	     8.544
  15.960         46.67	     7.483
  15.980         50.00	     7.746
  16.000         45.83	     7.416
  16.020         45.83	     7.416
  16.040         52.50	     7.937
  16.060         55.00	     8.124
  16.080         40.83	     7.000
  16.100         50.00	     7.746
  16.120         45.83	     7.416
  16.140         56.67	     8.246
  16.160         53.33	     8.000
  16.180         49.17	     7.681
  16.200         50.83	     7.810
  16.220         42.50	     7.141
  16.240         54.17	     8.062
  16.260         60.83	     8.544
  16.280         59.17	     8.426
  16.300         47.50	     7.550
  16.320         65.83	     8.888
  16.340         55.00	     8.124
  16.360         64.17	     8.775
  16.380         62.50	     8.660
  16.400         50.00	     7.746
  16.420         60.00	     8.485
  16.440         42.50	     7.141
  16.460         45.83	     7.416
  16.480         46.67	     7.483
  16.500         50.00	     7.746
  16.520         53.33	     8.000
  16.540         65.00	     8.832
  16.560         57.50	     8.307
  16.580         54.17	     8.062
  16.600         45.83	     7.416
  16.620         62.50	     8.660
  16.640         60.83	     8.544
  16.660         47.50	     7.550
  16.680         55.00	     8.124
  16.700         49.17	     7.681
  16.720         49.17	     7.681
  16.740         48.33	     7.616
  16.760         54.17	     8.062
  16.780         60.83	     8.544
  16.800         55.00	     8.124
  16.820         43.33	     7.211
  16.840         57.50	     8.307
  16.860         56.67	     8.246
  16.880         48.33	     7.616
  16.900         58.33	     8.367
  16.920         45.00	     7.348
  16.940         43.33	     7.211
  16.960         49.17	     7.681
  16.980         65.83	     8.888
  17.000         52.50	     7.937
  17.020         60.83	     8.544
  17.040         61.67	     8.602
  17.060         47.50	     7.550
  17.080         67.50	     9.000
  17.100         58.33	     8.367
  17.120         51.67	     7.874
  17.140         60.83	     8.544
  17.160         57.50	     8.307
  17.180         63.33	     8.718
  17.200         71.67	     9.274
  17.220         50.83	     7.810
  17.240         56.67	     8.246
  17.260         50.83	     7.810
  17.280         57.50	     8.307
  17.300         49.17	     7.681
  17.320         52.50	     7.937
  17.340         55.83	     8.185
  17.360         64.17	     8.775
  17.380         53.33	     8.000
  17.400         60.83	     8.544
  17.420         59.17	     8.426
  17.440         56.67	     8.246
  17.460         46.67	     7.483
  17.480         61.67	     8.602
  17.500         53.33	     8.000
  17.520         57.50	     8.307
  17.540         60.00	     8.485
  17.560         52.50	     7.937
  17.580         65.00	     8.832
  17.600         63.33	     8.718
  17.620         68.33	     9.055
  17.640         69.17	     9.110
  17.660         78.33	     9.695
  17.680         82.50	     9.950
  17.700         84.17	    10.050
  17.720         87.50	    10.247
  17.740         90.00	    10.392
  17.760        114.17	    11.705
  17.780        147.50	    13.304
  17.800        186.67	    14.967
  17.820        227.50	    16.523
  17.840        255.83	    17.521
  17.860        342.50	    20.273
  17.880        305.83	    19.157
  17.900        301.67	    19.026
  17.920        268.33	    17.944
  17.940        225.83	    16.462
  17.960        167.50	    14.177
  17.980        152.50	    13.528
  18.000        107.50	    11.358
  18.020         93.33	    10.583
  18.040         81.67	     9.899
  18.060         95.00	    10.677
  18.080         88.33	    10.296
  18.100         89.17	    10.344
  18.120         66.67	     8.944
  18.140         79.17	     9.747
  18.160         61.67	     8.602
  18.180         81.67	     9.899
  18.200         65.83	     8.888
  18.220         73.33	     9.381
  18.240         70.83	     9.220
  18.260         55.83	     8.185
  18.280         70.83	     9.220
  18.300         69.17	     9.110
  18.320         65.00	     8.832
  18.340         87.50	    10.247
  18.360         68.33	     9.055
  18.380         77.50	     9.644
  18.400         76.67	     9.592
  18.420         72.50	     9.327
  18.440         88.33	    10.296
  18.460         73.33	     9.381
  18.480         90.83	    10.440
  18.500        101.67	    11.045
  18.520        100.00	    10.954
  18.540        102.50	    11.091
  18.560        126.67	    12.329
  18.580        123.33	    12.166
  18.600        161.67	    13.928
  18.620        146.67	    13.266
  18.640        190.83	    15.133
  18.660        184.17	    14.866
  18.680        166.67	    14.142
  18.700        181.67	    14.765
  18.720        170.83	    14.318
  18.740        213.33	    16.000
  18.760        243.33	    17.088
  18.780        346.67	    20.396
  18.800        335.83	    20.075
  18.820        365.00	    20.928
  18.840        418.33	    22.405
  18.860        381.67	    21.401
  18.880        356.67	    20.688
  18.900        320.00	    19.596
  18.920        219.17	    16.217
  18.940        180.00	    14.697
  18.960        135.83	    12.767
  18.980        110.83	    11.533
  19.000        108.33	    11.402
  19.020        102.50	    11.091
  19.040         92.50	    10.536
  19.060         85.83	    10.149
  19.080         80.83	     9.849
  19.100         75.83	     9.539
  19.120         67.50	     9.000
  19.140         69.17	     9.110
  19.160         48.33	     7.616
  19.180         65.83	     8.888
  19.200         56.67	     8.246
  19.220         60.00	     8.485
  19.240         50.00	     7.746
  19.260         64.17	     8.775
  19.280         70.83	     9.220
  19.300         53.33	     8.000
  19.320         61.67	     8.602
  19.340         60.00	     8.485
  19.360         67.50	     9.000
  19.380         45.00	     7.348
  19.400         49.17	     7.681
  19.420         45.83	     7.416
  19.440         56.67	     8.246
  19.460         61.67	     8.602
  19.480         51.67	     7.874
  19.500         51.67	     7.874
  19.520         54.17	     8.062
  19.540         50.83	     7.810
  19.560         51.67	     7.874
  19.580         35.83	     6.557
  19.600         43.33	     7.211
  19.620         45.00	     7.348
  19.640         45.83	     7.416
  19.660         46.67	     7.483
  19.680         60.83	     8.544
  19.700         65.83	     8.888
  19.720         55.83	     8.185
  19.740         48.33	     7.616
  19.760         61.67	     8.602
  19.780         65.83	     8.888
  19.800         45.00	     7.348
  19.820         52.50	     7.937
  19.840         70.83	     9.220
  19.860         68.33	     9.055
  19.880         63.33	     8.718
  19.900         64.17	     8.775
  19.920         53.33	     8.000
  19.940         53.33	     8.000
  19.960         50.00	     7.746
  19.980         52.50	     7.937
  20.000         55.83	     8.185
  20.020         41.67	     7.071
  20.040         51.67	     7.874
  20.060         47.50	     7.550
  20.080         60.00	     8.485
  20.100         46.67	     7.483
  20.120         45.83	     7.416
  20.140         40.83	     7.000
  20.160         47.50	     7.550
  20.180         46.67	     7.483
  20.200         58.33	     8.367
  20.220         48.33	     7.616
  20.240         43.33	     7.211
  20.260         56.67	     8.246
  20.280         36.67	     6.633
  20.300         42.50	     7.141
  20.320         41.67	     7.071
  20.340         50.00	     7.746
  20.360         45.83	     7.416
  20.380         60.00	     8.485
  20.400         53.33	     8.000
  20.420         46.67	     7.483
  20.440         46.67	     7.483
  20.460         52.50	     7.937
  20.480         53.33	     8.000
  20.500         42.50	     7.141
  20.520         40.83	     7.000
  20.540         48.33	     7.616
  20.560         43.33	     7.211
  20.580         48.33	     7.616
  20.600         42.50	     7.141
  20.620         43.33	     7.211
  20.640         35.83	     6.557
  20.660         47.50	     7.550
  20.680         37.50	     6.708
  20.700         48.33	     7.616
  20.720         45.83	     7.416
  20.740         45.00	     7.348
  20.760         33.33	     6.325
  20.780         49.17	     7.681
  20.800         49.17	     7.681
  20.820         49.17	     7.681
  20.840         58.33	     8.367
  20.860         65.83	     8.888
  20.880         89.17	    10.344
  20.900        102.50	    11.091
  20.920         93.33	    10.583
  20.940        109.17	    11.446
  20.960         77.50	     9.644
  20.980         78.33	     9.695
  21.000         85.83	    10.149
  21.020         65.83	     8.888
  21.040         58.33	     8.367
  21.060         50.83	     7.810
  21.080         71.67	     9.274
  21.100         64.17	     8.775
  21.120         56.67	     8.246
  21.140         53.33	     8.000
  21.160         55.83	     8.185
  21.180         59.17	     8.426
  21.200         45.83	     7.416
  21.220         50.00	     7.746
  21.240         40.00	     6.928
  21.260         43.33	     7.211
  21.280         51.67	     7.874
  21.300         43.33	     7.211
  21.320         60.83	     8.544
  21.340         45.83	     7.416
  21.360         39.17	     6.856
  21.380         37.50	     6.708
  21.400         55.00	     8.124
  21.420         32.50	     6.245
  21.440         41.67	     7.071
  21.460         46.67	     7.483
  21.480         40.00	     6.928
  21.500         43.33	     7.211
  21.520         45.00	     7.348
  21.540         28.33	     5.831
  21.560         40.00	     6.928
  21.580         40.00	     6.928
  21.600         38.33	     6.782
  21.620         36.67	     6.633
  21.640         42.50	     7.141
  21.660         50.00	     7.746
  21.680         41.67	     7.071
  21.700         54.17	     8.062
  21.720         40.00	     6.928
  21.740         40.83	     7.000
  21.760         45.83	     7.416
  21.780         38.33	     6.782
  21.800         46.67	     7.483
  21.820         36.67	     6.633
  21.840         37.50	     6.708
  21.860         35.00	     6.481
  21.880         41.67	     7.071
  21.900         55.00	     8.124
  21.920         41.67	     7.071
  21.940         35.00	     6.481
  21.960         47.50	     7.550
  21.980         31.67	     6.164
  22.000         56.67	     8.246
  22.020         50.00	     7.746
  22.040         65.00	     8.832
  22.060         60.00	     8.485
  22.080         90.83	    10.440
  22.100         93.33	    10.583
  22.120         81.67	     9.899
  22.140        100.00	    10.954
  22.160         65.83	     8.888
  22.180         57.50	     8.307
  22.200         51.67	     7.874
  22.220         60.83	     8.544
  22.240         60.00	     8.485
  22.260         60.00	     8.485
  22.280         62.50	     8.660
  22.300         43.33	     7.211
  22.320         39.17	     6.856
  22.340         44.17	     7.280
  22.360         46.67	     7.483
  22.380         53.33	     8.000
  22.400         45.00	     7.348
  22.420         47.50	     7.550
  22.440         47.50	     7.550
  22.460         41.67	     7.071
  22.480         46.67	     7.483
  22.500         37.50	     6.708
  22.520         52.50	     7.937
  22.540         39.17	     6.856
  22.560         37.50	     6.708
  22.580         45.00	     7.348
  22.600         49.17	     7.681
  22.620         41.67	     7.071
  22.640         39.17	     6.856
  22.660         40.00	     6.928
  22.680         33.33	     6.325
  22.700         37.50	     6.708
  22.720         50.00	     7.746
  22.740         50.00	     7.746
  22.760         55.83	     8.185
  22.780         46.67	     7.483
  22.800         52.50	     7.937
  22.820         42.50	     7.141
  22.840         49.17	     7.681
  22.860         42.50	     7.141
  22.880         54.17	     8.062
  22.900         48.33	     7.616
  22.920         54.17	     8.062
  22.940         70.83	     9.220
  22.960         43.33	     7.211
  22.980         55.83	     8.185
  23.000         52.50	     7.937
  23.020         45.83	     7.416
  23.040         46.67	     7.483
  23.060         50.00	     7.746
  23.080         55.83	     8.185
  23.100         55.00	     8.124
  23.120         55.83	     8.185
  23.140         64.17	     8.775
  23.160         42.50	     7.141
  23.180         44.17	     7.280
  23.200         51.67	     7.874
  23.220         55.83	     8.185
  23.240         48.33	     7.616
  23.260         44.17	     7.280
  23.280         51.67	     7.874
  23.300         48.33	     7.616
  23.320         42.50	     7.141
  23.340         46.67	     7.483
  23.360         40.00	     6.928
  23.380         47.50	     7.550
  23.400         51.67	     7.874
  23.420         49.17	     7.681
  23.440         51.67	     7.874
  23.460         47.50	     7.550
  23.480         60.00	     8.485
  23.500         55.83	     8.185
  23.520         64.17	     8.775
  23.540         55.00	     8.124
  23.560         74.17	     9.434
  23.580        113.33	    11.662
  23.600         89.17	    10.344
  23.620        103.33	    11.136
  23.640        100.00	    10.954
  23.660         95.00	    10.677
  23.680         85.00	    10.100
  23.700         71.67	     9.274
  23.720         93.33	    10.583
  23.740         53.33	     8.000
  23.760         75.00	     9.487
  23.780         57.50	     8.307
  23.800         50.83	     7.810
  23.820         64.17	     8.775
  23.840         60.00	     8.485
  23.860         59.17	     8.426
  23.880         47.50	     7.550
  23.900         56.67	     8.246
  23.920         60.83	     8.544
  23.940         59.17	     8.426
  23.960         43.33	     7.211
  23.980         57.50	     8.307
  24.000         55.00	     8.124
  24.020         67.50	     9.000
  24.040         57.50	     8.307
  24.060         58.33	     8.367
  24.080         53.33	     8.000
  24.100         59.17	     8.426
  24.120         65.00	     8.832
  24.140         65.83	     8.888
  24.160         65.83	     8.888
  24.180         60.83	     8.544
  24.200         66.67	     8.944
  24.220         76.67	     9.592
  24.240         80.00	     9.798
  24.260         89.17	    10.344
  24.280         87.50	    10.247
  24.300        100.00	    10.954
  24.320        105.00	    11.225
  24.340         93.33	    10.583
  24.360        100.00	    10.954
  24.380         97.50	    10.817
  24.400         92.50	    10.536
  24.420        104.17	    11.180
  24.440        110.00	    11.489
  24.460        125.00	    12.247
  24.480        136.67	    12.806
  24.500        130.83	    12.530
  24.520        171.67	    14.353
  24.540        244.17	    17.117
  24.560        232.50	    16.703
  24.580        364.17	    20.905
  24.600        480.83	    24.021
  24.620        575.00	    26.268
  24.640        635.00	    27.604
  24.660        678.33	    28.531
  24.680        748.33	    29.967
  24.700        746.67	    29.933
  24.720        692.50	    28.827
  24.740        614.17	    27.148
  24.760        499.17	    24.474
  24.780        458.33	    23.452
  24.800        423.33	    22.539
  24.820        343.33	    20.298
  24.840        303.33	    19.079
  24.860        269.17	    17.972
  24.880        262.50	    17.748
  24.900        235.00	    16.793
  24.920        230.00	    16.613
  24.940        240.83	    17.000
  24.960        239.17	    16.941
  24.980        198.33	    15.427
  25.000        209.17	    15.843
  25.020        237.50	    16.882
  25.040        205.83	    15.716
  25.060        262.50	    17.748
  25.080        257.50	    17.578
  25.100        303.33	    19.079
  25.120        373.33	    21.166
  25.140        425.83	    22.605
  25.160        506.67	    24.658
  25.180        554.17	    25.788
  25.200        615.00	    27.166
  25.220        600.83	    26.851
  25.240        511.67	    24.779
  25.260        452.50	    23.302
  25.280        353.33	    20.591
  25.300        304.17	    19.105
  25.320        246.67	    17.205
  25.340        169.17	    14.248
  25.360        170.83	    14.318
  25.380        140.00	    12.961
  25.400        144.17	    13.153
  25.420        140.00	    12.961
  25.440        130.83	    12.530
  25.460        140.00	    12.961
  25.480        135.83	    12.767
  25.500         95.00	    10.677
  25.520        108.33	    11.402
  25.540        107.50	    11.358
  25.560         91.67	    10.488
  25.580        109.17	    11.446
  25.600        100.00	    10.954
  25.620         95.83	    10.724
  25.640        103.33	    11.136
  25.660        102.50	    11.091
  25.680        111.67	    11.576
  25.700         92.50	    10.536
  25.720         85.00	    10.100
  25.740         96.67	    10.770
  25.760        100.83	    11.000
  25.780         82.50	     9.950
  25.800         79.17	     9.747
  25.820         89.17	    10.344
  25.840         76.67	     9.592
  25.860         84.17	    10.050
  25.880         66.67	     8.944
  25.900         56.67	     8.246
  25.920         80.83	     9.849
  25.940         69.17	     9.110
  25.960         76.67	     9.592
  25.980         70.83	     9.220
  26.000         80.00	     9.798
  26.020         73.33	     9.381
  26.040         77.50	     9.644
  26.060         76.67	     9.592
  26.080         82.50	     9.950
  26.100         80.00	     9.798
  26.120         80.00	     9.798
  26.140         92.50	    10.536
  26.160         72.50	     9.327
  26.180         74.17	     9.434
  26.200         86.67	    10.198
  26.220         69.17	     9.110
  26.240         92.50	    10.536
  26.260        116.67	    11.832
  26.280        113.33	    11.662
  26.300        110.83	    11.533
  26.320         98.33	    10.863
  26.340        106.67	    11.314
  26.360        115.00	    11.747
  26.380        128.33	    12.410
  26.400        134.17	    12.689
  26.420        139.17	    12.923
  26.440        152.50	    13.528
  26.460        152.50	    13.528
  26.480        162.50	    13.964
  26.500        168.33	    14.213
  26.520        182.50	    14.799
  26.540        170.00	    14.283
  26.560        188.33	    15.033
  26.580        174.17	    14.457
  26.600        201.67	    15.556
  26.620        195.00	    15.297
  26.640        230.00	    16.613
  26.660        231.67	    16.673
  26.680        301.67	    19.026
  26.700        324.17	    19.723
  26.720        360.83	    20.809
  26.740        328.33	    19.849
  26.760        325.00	    19.748
  26.780        311.67	    19.339
  26.800        313.33	    19.391
  26.820        313.33	    19.391
  26.840        364.17	    20.905
  26.860        415.00	    22.316
  26.880        413.33	    22.271
  26.900        475.00	    23.875
  26.920        524.17	    25.080
  26.940        535.83	    25.357
  26.960        492.50	    24.310
  26.980        451.67	    23.281
  27.000        398.33	    21.863
  27.020        307.50	    19.209
  27.040        260.83	    17.692
  27.060        200.83	    15.524
  27.080        161.67	    13.928
  27.100        125.00	    12.247
  27.120        122.50	    12.124
  27.140        114.17	    11.705
  27.160        102.50	    11.091
  27.180         85.00	    10.100
  27.200         70.00	     9.165
  27.220         75.83	     9.539
  27.240         75.83	     9.539
  27.260         72.50	     9.327
  27.280         85.83	    10.149
  27.300         68.33	     9.055
  27.320         75.83	     9.539
  27.340         59.17	     8.426
  27.360         81.67	     9.899
  27.380         74.17	     9.434
  27.400         81.67	     9.899
  27.420         66.67	     8.944
  27.440         80.00	     9.798
  27.460         70.00	     9.165
  27.480         57.50	     8.307
  27.500         81.67	     9.899
  27.520        101.67	    11.045
  27.540        106.67	    11.314
  27.560         92.50	    10.536
  27.580        103.33	    11.136
  27.600        108.33	    11.402
  27.620         79.17	     9.747
  27.640         87.50	    10.247
  27.660         85.83	    10.149
  27.680         78.33	     9.695
  27.700         74.17	     9.434
  27.720         75.83	     9.539
  27.740         79.17	     9.747
  27.760         99.17	    10.909
  27.780        113.33	    11.662
  27.800        114.17	    11.705
  27.820        133.33	    12.649
  27.840        159.17	    13.820
  27.860        135.83	    12.767
  27.880        167.50	    14.177
  27.900        161.67	    13.928
  27.920        193.33	    15.232
  27.940        193.33	    15.232
  27.960        207.50	    15.780
  27.980        217.50	    16.155
  28.000        202.50	    15.588
  28.020        211.67	    15.937
  28.040        190.83	    15.133
  28.060        175.83	    14.526
  28.080        136.67	    12.806
  28.100        104.17	    11.180
  28.120         85.00	    10.100
  28.140         87.50	    10.247
  28.160         81.67	     9.899
  28.180         73.33	     9.381
  28.200         84.17	    10.050
  28.220         73.33	     9.381
  28.240         80.83	     9.849
  28.260         61.67	     8.602
  28.280         60.00	     8.485
  28.300         65.83	     8.888
  28.320         58.33	     8.367
  28.340         62.50	     8.660
  28.360         58.33	     8.367
  28.380         56.67	     8.246
  28.400         68.33	     9.055
  28.420         65.83	     8.888
  28.440         60.00	     8.485
  28.460         59.17	     8.426
  28.480         56.67	     8.246
  28.500         61.67	     8.602
  28.520         65.83	     8.888
  28.540         65.00	     8.832
  28.560        107.50	    11.358
  28.580         85.00	    10.100
  28.600        110.83	    11.533
  28.620        143.33	    13.115
  28.640        155.00	    13.638
  28.660        173.33	    14.422
  28.680        171.67	    14.353
  28.700        161.67	    13.928
  28.720        150.00	    13.416
  28.740        142.50	    13.077
  28.760        110.00	    11.489
  28.780        107.50	    11.358
  28.800         73.33	     9.381
  28.820         76.67	     9.592
  28.840         83.33	    10.000
  28.860         65.00	     8.832
  28.880         61.67	     8.602
  28.900         55.00	     8.124
  28.920         50.00	     7.746
  28.940         56.67	     8.246
  28.960         43.33	     7.211
  28.980         48.33	     7.616
  29.000         44.17	     7.280
  29.020         41.67	     7.071
  29.040         32.50	     6.245
  29.060         30.83	     6.083
  29.080         38.33	     6.782
  29.100         35.00	     6.481
  29.120         34.17	     6.403
  29.140         45.83	     7.416
  29.160         42.50	     7.141
  29.180         31.67	     6.164
  29.200         36.67	     6.633
  29.220         26.67	     5.657
  29.240         32.50	     6.245
  29.260         28.33	     5.831
  29.280         36.67	     6.633
  29.300         39.17	     6.856
  29.320         32.50	     6.245
  29.340         35.00	     6.481
  29.360         30.00	     6.000
  29.380         38.33	     6.782
  29.400         40.00	     6.928
  29.420         35.00	     6.481
  29.440         38.33	     6.782
  29.460         31.67	     6.164
  29.480         34.17	     6.403
  29.500         35.00	     6.481
  29.520         27.50	     5.745
  29.540         42.50	     7.141
  29.560         32.50	     6.245
  29.580         30.83	     6.083
  29.600         27.50	     5.745
  29.620         42.50	     7.141
  29.640         34.17	     6.403
  29.660         30.00	     6.000
  29.680         30.00	     6.000
  29.700         29.17	     5.916
  29.720         44.17	     7.280
  29.740         49.17	     7.681
  29.760         30.83	     6.083
  29.780         35.00	     6.481
  29.800         40.83	     7.000
  29.820         35.83	     6.557
  29.840         44.17	     7.280
  29.860         54.17	     8.062
  29.880         55.00	     8.124
  29.900         59.17	     8.426
  29.920         60.83	     8.544
  29.940         40.83	     7.000
  29.960         58.33	     8.367
  29.980         54.17	     8.062
  30.000         45.83	     7.416
  30.020         56.67	     8.246
  30.040         44.17	     7.280
  30.060         39.17	     6.856
  30.080         50.83	     7.810
  30.100         41.67	     7.071
  30.120         45.83	     7.416
  30.140         49.17	     7.681
  30.160         38.33	     6.782
  30.180         36.67	     6.633
  30.200         48.33	     7.616
  30.220         35.00	     6.481
  30.240         44.17	     7.280
  30.260         50.83	     7.810
  30.280         51.67	     7.874
  30.300         56.67	     8.246
  30.320         53.33	     8.000
  30.340         35.83	     6.557
  30.360         42.50	     7.141
  30.380         57.50	     8.307
  30.400         45.83	     7.416
  30.420         46.67	     7.483
  30.440         39.17	     6.856
  30.460         45.00	     7.348
  30.480         49.17	     7.681
  30.500         42.50	     7.141
  30.520         59.17	     8.426
  30.540         39.17	     6.856
  30.560         48.33	     7.616
  30.580         51.67	     7.874
  30.600         51.67	     7.874
  30.620         34.17	     6.403
  30.640         35.00	     6.481
  30.660         44.17	     7.280
  30.680         35.83	     6.557
  30.700         36.67	     6.633
  30.720         29.17	     5.916
  30.740         38.33	     6.782
  30.760         38.33	     6.782
  30.780         37.50	     6.708
  30.800         32.50	     6.245
  30.820         34.17	     6.403
  30.840         41.67	     7.071
  30.860         40.83	     7.000
  30.880         59.17	     8.426
  30.900         50.00	     7.746
  30.920         56.67	     8.246
  30.940         45.00	     7.348
  30.960         45.83	     7.416
  30.980         45.00	     7.348
  31.000         42.50	     7.141
  31.020         46.67	     7.483
  31.040         27.50	     5.745
  31.060         36.67	     6.633
  31.080         36.67	     6.633
  31.100         36.67	     6.633
  31.120         50.83	     7.810
  31.140         42.50	     7.141
  31.160         54.17	     8.062
  31.180         47.50	     7.550
  31.200         56.67	     8.246
  31.220         51.67	     7.874
  31.240         52.50	     7.937
  31.260         65.00	     8.832
  31.280         54.17	     8.062
  31.300         55.83	     8.185
  31.320         65.00	     8.832
  31.340         64.17	     8.775
  31.360         64.17	     8.775
  31.380         50.83	     7.810
  31.400         60.00	     8.485
  31.420         55.83	     8.185
  31.440         52.50	     7.937
  31.460         57.50	     8.307
  31.480         68.33	     9.055
  31.500         55.83	     8.185
  31.520         67.50	     9.000
  31.540         66.67	     8.944
  31.560         75.83	     9.539
  31.580         91.67	    10.488
  31.600         97.50	    10.817
  31.620        115.00	    11.747
  31.640        112.50	    11.619
  31.660        109.17	    11.446
  31.680         77.50	     9.644
  31.700         95.83	    10.724
  31.720         83.33	    10.000
  31.740         55.00	     8.124
  31.760         59.17	     8.426
  31.780         63.33	     8.718
  31.800         40.83	     7.000
  31.820         43.33	     7.211
  31.840         40.83	     7.000
  31.860         39.17	     6.856
  31.880         45.00	     7.348
  31.900         43.33	     7.211
  31.920         45.00	     7.348
  31.940         52.50	     7.937
  31.960         42.50	     7.141
  31.980         40.00	     6.928
  32.000         30.00	     6.000
  32.020         45.00	     7.348
  32.040         63.33	     8.718
  32.060         36.67	     6.633
  32.080         53.33	     8.000
  32.100         43.33	     7.211
  32.120         61.67	     8.602
  32.140         52.50	     7.937
  32.160         49.17	     7.681
  32.180         39.17	     6.856
  32.200         44.17	     7.280
  32.220         50.83	     7.810
  32.240         54.17	     8.062
  32.260         71.67	     9.274
  32.280         73.33	     9.381
  32.300         81.67	     9.899
  32.320         80.83	     9.849
  32.340         85.00	    10.100
  32.360         75.00	     9.487
  32.380         59.17	     8.426
  32.400         58.33	     8.367
  32.420         47.50	     7.550
  32.440         39.17	     6.856
  32.460         32.50	     6.245
  32.480         29.17	     5.916
  32.500         39.17	     6.856
  32.520         28.33	     5.831
  32.540         25.83	     5.568
  32.560         26.67	     5.657
  32.580         39.17	     6.856
  32.600         20.00	     4.899
  32.620         34.17	     6.403
  32.640         29.17	     5.916
  32.660         23.33	     5.292
  32.680         35.00	     6.481
  32.700         20.00	     4.899
  32.720         34.17	     6.403
  32.740         30.83	     6.083
  32.760         31.67	     6.164
  32.780         24.17	     5.385
  32.800         40.83	     7.000
  32.820         31.67	     6.164
  32.840         28.33	     5.831
  32.860         30.00	     6.000
  32.880         26.67	     5.657
  32.900         27.50	     5.745
  32.920         29.17	     5.916
  32.940         40.00	     6.928
  32.960         33.33	     6.325
  32.980         33.33	     6.325
  33.000         29.17	     5.916
  33.020         26.67	     5.657
  33.040         26.67	     5.657
  33.060         34.17	     6.403
  33.080         40.00	     6.928
  33.100         45.83	     7.416
  33.120         30.00	     6.000
  33.140         43.33	     7.211
  33.160         30.00	     6.000
  33.180         41.67	     7.071
  33.200         41.67	     7.071
  33.220         25.83	     5.568
  33.240         26.67	     5.657
  33.260         21.67	     5.099
  33.280         28.33	     5.831
  33.300         26.67	     5.657
  33.320         33.33	     6.325
  33.340         26.67	     5.657
  33.360         30.83	     6.083
  33.380         30.83	     6.083
  33.400         26.67	     5.657
  33.420         30.00	     6.000
  33.440         27.50	     5.745
  33.460         28.33	     5.831
  33.480         32.50	     6.245
  33.500         22.50	     5.196
  33.520         31.67	     6.164
  33.540         35.83	     6.557
  33.560         27.50	     5.745
  33.580         30.83	     6.083
  33.600         26.67	     5.657
  33.620         25.00	     5.477
  33.640         25.83	     5.568
  33.660         31.67	     6.164
  33.680         21.67	     5.099
  33.700         32.50	     6.245
  33.720         35.00	     6.481
  33.740         32.50	     6.245
  33.760         41.67	     7.071
  33.780         25.83	     5.568
  33.800         24.17	     5.385
  33.820         22.50	     5.196
  33.840         30.00	     6.000
  33.860         20.83	     5.000
  33.880         30.83	     6.083
  33.900         29.17	     5.916
  33.920         24.17	     5.385
  33.940         16.67	     4.472
  33.960         24.17	     5.385
  33.980         26.67	     5.657
  34.000         31.67	     6.164
  34.020         28.33	     5.831
  34.040         28.33	     5.831
  34.060         32.50	     6.245
  34.080         33.33	     6.325
  34.100         35.83	     6.557
  34.120         40.00	     6.928
  34.140         25.00	     5.477
  34.160         30.00	     6.000
  34.180         25.83	     5.568
  34.200         22.50	     5.196
  34.220         28.33	     5.831
  34.240         36.67	     6.633
  34.260         29.17	     5.916
  34.280         25.00	     5.477
  34.300         45.00	     7.348
  34.320         34.17	     6.403
  34.340         53.33	     8.000
  34.360         59.17	     8.426
  34.380         59.17	     8.426
  34.400         86.67	    10.198
  34.420         65.00	     8.832
  34.440         45.83	     7.416
  34.460         34.17	     6.403
  34.480         47.50	     7.550
  34.500         44.17	     7.280
  34.520         61.67	     8.602
  34.540         33.33	     6.325
  34.560         38.33	     6.782
  34.580         39.17	     6.856
  34.600         32.50	     6.245
  34.620         48.33	     7.616
  34.640         44.17	     7.280
  34.660         38.33	     6.782
  34.680         37.50	     6.708
  34.700         39.17	     6.856
  34.720         32.50	     6.245
  34.740         43.33	     7.211
  34.760         38.33	     6.782
  34.780         52.50	     7.937
  34.800         27.50	     5.745
  34.820         36.67	     6.633
  34.840         27.50	     5.745
  34.860         33.33	     6.325
  34.880         35.83	     6.557
  34.900         24.17	     5.385
  34.920         30.00	     6.000
  34.940         33.33	     6.325
  34.960         39.17	     6.856
  34.980         36.67	     6.633
  35.000         45.00	     7.348
  35.020         50.83	     7.810
  35.040         42.50	     7.141
  35.060         40.00	     6.928
  35.080         43.33	     7.211
  35.100         50.00	     7.746
  35.120         55.00	     8.124
  35.140         48.33	     7.616
  35.160         58.33	     8.367
  35.180         35.83	     6.557
  35.200         35.00	     6.481
  35.220         38.33	     6.782
  35.240         46.67	     7.483
  35.260         50.83	     7.810
  35.280         29.17	     5.916
  35.300         32.50	     6.245
  35.320         31.67	     6.164
  35.340         35.83	     6.557
  35.360         39.17	     6.856
  35.380         47.50	     7.550
  35.400         43.33	     7.211
  35.420         42.50	     7.141
  35.440         34.17	     6.403
  35.460         40.83	     7.000
  35.480         46.67	     7.483
  35.500         40.00	     6.928
  35.520         49.17	     7.681
  35.540         55.83	     8.185
  35.560         56.67	     8.246
  35.580         59.17	     8.426
  35.600         53.33	     8.000
  35.620         49.17	     7.681
  35.640         57.50	     8.307
  35.660         55.00	     8.124
  35.680         57.50	     8.307
  35.700         49.17	     7.681
  35.720         53.33	     8.000
  35.740         47.50	     7.550
  35.760         51.67	     7.874
  35.780         40.00	     6.928
  35.800         51.67	     7.874
  35.820         68.33	     9.055
  35.840         48.33	     7.616
  35.860         43.33	     7.211
  35.880         45.83	     7.416
  35.900         58.33	     8.367
  35.920         49.17	     7.681
  35.940         45.83	     7.416
  35.960         50.00	     7.746
  35.980         51.67	     7.874
  36.000         49.17	     7.681
  36.020         51.67	     7.874
  36.040         47.50	     7.550
  36.060         49.17	     7.681
  36.080         57.50	     8.307
  36.100         63.33	     8.718
  36.120         66.67	     8.944
  36.140         53.33	     8.000
  36.160         69.17	     9.110
  36.180         66.67	     8.944
  36.200         52.50	     7.937
  36.220         55.83	     8.185
  36.240         46.67	     7.483
  36.260         51.67	     7.874
  36.280         58.33	     8.367
  36.300         50.83	     7.810
  36.320         49.17	     7.681
  36.340         40.83	     7.000
  36.360         38.33	     6.782
  36.380         46.67	     7.483
  36.400         46.67	     7.483
  36.420         57.50	     8.307
  36.440         66.67	     8.944
  36.460         77.50	     9.644
  36.480         88.33	    10.296
  36.500        106.67	    11.314
  36.520        151.67	    13.491
  36.540        155.83	    13.675
  36.560        119.17	    11.958
  36.580         95.83	    10.724
  36.600         74.17	     9.434
  36.620         73.33	     9.381
  36.640         58.33	     8.367
  36.660         51.67	     7.874
  36.680         42.50	     7.141
  36.700         57.50	     8.307
  36.720         64.17	     8.775
  36.740         59.17	     8.426
  36.760         63.33	     8.718
  36.780         56.67	     8.246
  36.800         57.50	     8.307
  36.820         60.83	     8.544
  36.840         47.50	     7.550
  36.860         47.50	     7.550
  36.880         55.83	     8.185
  36.900         51.67	     7.874
  36.920         54.17	     8.062
  36.940         40.00	     6.928
  36.960         44.17	     7.280
  36.980         40.00	     6.928
  37.000         53.33	     8.000
  37.020         52.50	     7.937
  37.040         49.17	     7.681
  37.060         48.33	     7.616
  37.080         60.00	     8.485
  37.100         50.83	     7.810
  37.120         34.17	     6.403
  37.140         40.00	     6.928
  37.160         50.83	     7.810
  37.180         68.33	     9.055
  37.200         64.17	     8.775
  37.220         65.00	     8.832
  37.240         56.67	     8.246
  37.260         77.50	     9.644
  37.280         57.50	     8.307
  37.300         60.83	     8.544
  37.320         65.00	     8.832
  37.340         68.33	     9.055
  37.360         61.67	     8.602
  37.380         51.67	     7.874
  37.400         58.33	     8.367
  37.420         44.17	     7.280
  37.440         60.83	     8.544
  37.460         48.33	     7.616
  37.480         66.67	     8.944
  37.500         58.33	     8.367
  37.520         58.33	     8.367
  37.540         56.67	     8.246
  37.560         58.33	     8.367
  37.580         37.50	     6.708
  37.600         50.83	     7.810
  37.620         64.17	     8.775
  37.640         64.17	     8.775
  37.660         64.17	     8.775
  37.680         42.50	     7.141
  37.700         67.50	     9.000
  37.720         71.67	     9.274
  37.740         69.17	     9.110
  37.760         61.67	     8.602
  37.780         65.83	     8.888
  37.800         67.50	     9.000
  37.820         80.00	     9.798
  37.840         67.50	     9.000
  37.860         84.17	    10.050
  37.880         85.00	    10.100
  37.900         77.50	     9.644
  37.920        114.17	    11.705
  37.940        172.50	    14.387
  37.960        184.17	    14.866
  37.980        233.33	    16.733
  38.000        245.00	    17.146
  38.020        290.83	    18.682
  38.040        355.83	    20.664
  38.060        431.67	    22.760
  38.080        539.17	    25.436
  38.100        890.00	    32.680
  38.120       1923.33	    48.042
  38.140       3885.83	    68.286
  38.160       6242.50	    86.551
  38.180       6945.83	    91.296
  38.200       4983.33	    77.330
  38.220       3150.83	    61.490
  38.240       2997.50	    59.975
  38.260       3625.83	    65.962
  38.280       3648.33	    66.166
  38.300       2675.83	    56.666
  38.320       1330.00	    39.950
  38.340        709.17	    29.172
  38.360        410.00	    22.181
  38.380        339.17	    20.174
  38.400        263.33	    17.776
  38.420        200.83	    15.524
  38.440        167.50	    14.177
  38.460        151.67	    13.491
  38.480        127.50	    12.369
  38.500        123.33	    12.166
  38.520        100.83	    11.000
  38.540         95.00	    10.677
  38.560         70.00	     9.165
  38.580         69.17	     9.110
  38.600         63.33	     8.718
  38.620         64.17	     8.775
  38.640         74.17	     9.434
  38.660         61.67	     8.602
  38.680         59.17	     8.426
  38.700         55.00	     8.124
  38.720         45.83	     7.416
  38.740         45.00	     7.348
  38.760         60.00	     8.485
  38.780         52.50	     7.937
  38.800         43.33	     7.211
  38.820         51.67	     7.874
  38.840         57.50	     8.307
  38.860         49.17	     7.681
  38.880         42.50	     7.141
  38.900         52.50	     7.937
  38.920         55.83	     8.185
  38.940         35.83	     6.557
  38.960         50.83	     7.810
  38.980         49.17	     7.681
  39.000         39.17	     6.856
  39.020         46.67	     7.483
  39.040         56.67	     8.246
  39.060         38.33	     6.782
  39.080         40.00	     6.928
  39.100         37.50	     6.708
  39.120         45.83	     7.416
  39.140         40.00	     6.928
  39.160         41.67	     7.071
  39.180         42.50	     7.141
  39.200         42.50	     7.141
  39.220         38.33	     6.782
  39.240         40.83	     7.000
  39.260         33.33	     6.325
  39.280         40.00	     6.928
  39.300         40.83	     7.000
  39.320         41.67	     7.071
  39.340         39.17	     6.856
  39.360         37.50	     6.708
  39.380         40.83	     7.000
  39.400         35.00	     6.481
  39.420         41.67	     7.071
  39.440         38.33	     6.782
  39.460         31.67	     6.164
  39.480         43.33	     7.211
  39.500         35.00	     6.481
  39.520         42.50	     7.141
  39.540         27.50	     5.745
  39.560         48.33	     7.616
  39.580         35.83	     6.557
  39.600         40.83	     7.000
  39.620         46.67	     7.483
  39.640         34.17	     6.403
  39.660         26.67	     5.657
  39.680         43.33	     7.211
  39.700         28.33	     5.831
  39.720         33.33	     6.325
  39.740         36.67	     6.633
  39.760         36.67	     6.633
  39.780         35.00	     6.481
  39.800         37.50	     6.708
  39.820         45.83	     7.416
  39.840         39.17	     6.856
  39.860         48.33	     7.616
  39.880         48.33	     7.616
  39.900         55.00	     8.124
  39.920         45.83	     7.416
  39.940         35.83	     6.557
  39.960         45.83	     7.416
  39.980         30.83	     6.083
  40.000         26.67	     5.657
  40.020         23.33	     5.292
  40.040         35.83	     6.557
  40.060         34.17	     6.403
  40.080         32.50	     6.245
  40.100         37.50	     6.708
  40.120         35.00	     6.481
  40.140         24.17	     5.385
  40.160         32.50	     6.245
  40.180         35.83	     6.557
  40.200         32.50	     6.245
  40.220         26.67	     5.657
  40.240         32.50	     6.245
  40.260         48.33	     7.616
  40.280         25.83	     5.568
  40.300         39.17	     6.856
  40.320         28.33	     5.831
  40.340         40.83	     7.000
  40.360         33.33	     6.325
  40.380         34.17	     6.403
  40.400         35.83	     6.557
  40.420         35.00	     6.481
  40.440         23.33	     5.292
  40.460         36.67	     6.633
  40.480         37.50	     6.708
  40.500         30.00	     6.000
  40.520         30.83	     6.083
  40.540         29.17	     5.916
  40.560         33.33	     6.325
  40.580         35.83	     6.557
  40.600         30.00	     6.000
  40.620         32.50	     6.245
  40.640         33.33	     6.325
  40.660         31.67	     6.164
  40.680         30.00	     6.000
  40.700         39.17	     6.856
  40.720         35.83	     6.557
  40.740         30.00	     6.000
  40.760         25.83	     5.568
  40.780         36.67	     6.633
  40.800         24.17	     5.385
  40.820         27.50	     5.745
  40.840         32.50	     6.245
  40.860         29.17	     5.916
  40.880         25.00	     5.477
  40.900         30.00	     6.000
  40.920         37.50	     6.708
  40.940         23.33	     5.292
  40.960         28.33	     5.831
  40.980         27.50	     5.745
  41.000         38.33	     6.782
  41.020         26.67	     5.657
  41.040         26.67	     5.657
  41.060         35.83	     6.557
  41.080         32.50	     6.245
  41.100         25.83	     5.568
  41.120         25.83	     5.568
  41.140         19.17	     4.796
  41.160         27.50	     5.745
  41.180         29.17	     5.916
  41.200         30.00	     6.000
  41.220         35.00	     6.481
  41.240         35.00	     6.481
  41.260         30.00	     6.000
  41.280         25.00	     5.477
  41.300         30.83	     6.083
  41.320         33.33	     6.325
  41.340         30.00	     6.000
  41.360         29.17	     5.916
  41.380         24.17	     5.385
  41.400         26.67	     5.657
  41.420         33.33	     6.325
  41.440         30.83	     6.083
  41.460         30.00	     6.000
  41.480         32.50	     6.245
  41.500         29.17	     5.916
  41.520         25.83	     5.568
  41.540         25.00	     5.477
  41.560         25.83	     5.568
  41.580         25.83	     5.568
  41.600         22.50	     5.196
  41.620         31.67	     6.164
  41.640         29.17	     5.916
  41.660         35.83	     6.557
  41.680         28.33	     5.831
  41.700         24.17	     5.385
  41.720         36.67	     6.633
  41.740         40.00	     6.928
  41.760         38.33	     6.782
  41.780         30.00	     6.000
  41.800         46.67	     7.483
  41.820         29.17	     5.916
  41.840         42.50	     7.141
  41.860         41.67	     7.071
  41.880         26.67	     5.657
  41.900         32.50	     6.245
  41.920         38.33	     6.782
  41.940         32.50	     6.245
  41.960         22.50	     5.196
  41.980         25.00	     5.477
  42.000         31.67	     6.164
  42.020         40.00	     6.928
  42.040         29.17	     5.916
  42.060         40.00	     6.928
  42.080         32.50	     6.245
  42.100         35.83	     6.557
  42.120         35.83	     6.557
  42.140         29.17	     5.916
  42.160         35.83	     6.557
  42.180         35.00	     6.481
  42.200         40.83	     7.000
  42.220         21.67	     5.099
  42.240         37.50	     6.708
  42.260         31.67	     6.164
  42.280         28.33	     5.831
  42.300         38.33	     6.782
  42.320         38.33	     6.782
  42.340         49.17	     7.681
  42.360         45.83	     7.416
  42.380         49.17	     7.681
  42.400         71.67	     9.274
  42.420         60.00	     8.485
  42.440         66.67	     8.944
  42.460         76.67	     9.592
  42.480         45.83	     7.416
  42.500         57.50	     8.307
  42.520         46.67	     7.483
  42.540         37.50	     6.708
  42.560         39.17	     6.856
  42.580         35.00	     6.481
  42.600         22.50	     5.196
  42.620         41.67	     7.071
  42.640         45.83	     7.416
  42.660         35.00	     6.481
  42.680         29.17	     5.916
  42.700         25.83	     5.568
  42.720         37.50	     6.708
  42.740         34.17	     6.403
  42.760         35.00	     6.481
  42.780         38.33	     6.782
  42.800         22.50	     5.196
  42.820         42.50	     7.141
  42.840         29.17	     5.916
  42.860         30.00	     6.000
  42.880         40.00	     6.928
  42.900         37.50	     6.708
  42.920         34.17	     6.403
  42.940         34.17	     6.403
  42.960         21.67	     5.099
  42.980         25.83	     5.568
  43.000         30.00	     6.000
  43.020         25.83	     5.568
  43.040         35.00	     6.481
  43.060         25.00	     5.477
  43.080         25.00	     5.477
  43.100         30.00	     6.000
  43.120         34.17	     6.403
  43.140         25.83	     5.568
  43.160         21.67	     5.099
  43.180         29.17	     5.916
  43.200         20.83	     5.000
  43.220         19.17	     4.796
  43.240         30.00	     6.000
  43.260         19.17	     4.796
  43.280         27.50	     5.745
  43.300         25.83	     5.568
  43.320         27.50	     5.745
  43.340         23.33	     5.292
  43.360         33.33	     6.325
  43.380         34.17	     6.403
  43.400         24.17	     5.385
  43.420         23.33	     5.292
  43.440         34.17	     6.403
  43.460         25.83	     5.568
  43.480         23.33	     5.292
  43.500         25.83	     5.568
  43.520         23.33	     5.292
  43.540         30.83	     6.083
  43.560         35.83	     6.557
  43.580         39.17	     6.856
  43.600         25.83	     5.568
  43.620         25.00	     5.477
  43.640         32.50	     6.245
  43.660         25.83	     5.568
  43.680         30.00	     6.000
  43.700         30.00	     6.000
  43.720         36.67	     6.633
  43.740         27.50	     5.745
  43.760         34.17	     6.403
  43.780         30.83	     6.083
  43.800         33.33	     6.325
  43.820         33.33	     6.325
  43.840         30.83	     6.083
  43.860         34.17	     6.403
  43.880         33.33	     6.325
  43.900         33.33	     6.325
  43.920         33.33	     6.325
  43.940         35.00	     6.481
  43.960         40.83	     7.000
  43.980         34.17	     6.403
  44.000         45.00	     7.348
  44.020         51.67	     7.874
  44.040         40.83	     7.000
  44.060         56.67	     8.246
  44.080         57.50	     8.307
  44.100         77.50	     9.644
  44.120         88.33	    10.296
  44.140        113.33	    11.662
  44.160        112.50	    11.619
  44.180        142.50	    13.077
  44.200        152.50	    13.528
  44.220        167.50	    14.177
  44.240        232.50	    16.703
  44.260        319.17	    19.570
  44.280        411.67	    22.226
  44.300        639.17	    27.695
  44.320       1314.17	    39.711
  44.340       2385.00	    53.498
  44.360       2967.50	    59.674
  44.380       2574.17	    55.579
  44.400       1531.67	    42.872
  44.420       1029.17	    35.143
  44.440       1160.83	    37.323
  44.460       1504.17	    42.485
  44.480       1645.00	    44.430
  44.500       1281.67	    39.217
  44.520        726.67	    29.530
  44.540        405.00	    22.045
  44.560        256.67	    17.550
  44.580        193.33	    15.232
  44.600        159.17	    13.820
  44.620        116.67	    11.832
  44.640         95.00	    10.677
  44.660        101.67	    11.045
  44.680         82.50	     9.950
  44.700         61.67	     8.602
  44.720         76.67	     9.592
  44.740         61.67	     8.602
  44.760         57.50	     8.307
  44.780         56.67	     8.246
  44.800         46.67	     7.483
  44.820         67.50	     9.000
  44.840         57.50	     8.307
  44.860         44.17	     7.280
  44.880         60.83	     8.544
  44.900         53.33	     8.000
  44.920         46.67	     7.483
  44.940         60.83	     8.544
  44.960         65.00	     8.832
  44.980         48.33	     7.616
  45.000         55.83	     8.185
  45.020         39.17	     6.856
  45.040         34.17	     6.403
  45.060         52.50	     7.937
  45.080         43.33	     7.211
  45.100         40.00	     6.928
  45.120         26.67	     5.657
  45.140         42.50	     7.141
  45.160         37.50	     6.708
  45.180         38.33	     6.782
  45.200         31.67	     6.164
  45.220         41.67	     7.071
  45.240         35.00	     6.481
  45.260         44.17	     7.280
  45.280         33.33	     6.325
  45.300         36.67	     6.633
  45.320         40.00	     6.928
  45.340         48.33	     7.616
  45.360         55.00	     8.124
  45.380         45.83	     7.416
  45.400         52.50	     7.937
  45.420         51.67	     7.874
  45.440         61.67	     8.602
  45.460         69.17	     9.110
  45.480         70.83	     9.220
  45.500         85.00	    10.100
  45.520         84.17	    10.050
  45.540        100.83	    11.000
  45.560         93.33	    10.583
  45.580        120.83	    12.042
  45.600        102.50	    11.091
  45.620        111.67	    11.576
  45.640        122.50	    12.124
  45.660        110.83	    11.533
  45.680        107.50	    11.358
  45.700        110.00	    11.489
  45.720         99.17	    10.909
  45.740         96.67	    10.770
  45.760        100.83	    11.000
  45.780         76.67	     9.592
  45.800         78.33	     9.695
  45.820         55.00	     8.124
  45.840         40.83	     7.000
  45.860         51.67	     7.874
  45.880         35.83	     6.557
  45.900         40.00	     6.928
  45.920         35.00	     6.481
  45.940         33.33	     6.325
  45.960         43.33	     7.211
  45.980         38.33	     6.782
  46.000         25.00	     5.477
  46.020         29.17	     5.916
  46.040         24.17	     5.385
  46.060         33.33	     6.325
  46.080         31.67	     6.164
  46.100         31.67	     6.164
  46.120         30.83	     6.083
  46.140         32.50	     6.245
  46.160         22.50	     5.196
  46.180         22.50	     5.196
  46.200         35.00	     6.481
  46.220         43.33	     7.211
  46.240         39.17	     6.856
  46.260         45.83	     7.416
  46.280         54.17	     8.062
  46.300         49.17	     7.681
  46.320         45.00	     7.348
  46.340         41.67	     7.071
  46.360         40.83	     7.000
  46.380         40.00	     6.928
  46.400         38.33	     6.782
  46.420         50.00	     7.746
  46.440         26.67	     5.657
  46.460         36.67	     6.633
  46.480         35.83	     6.557
  46.500         25.83	     5.568
  46.520         28.33	     5.831
  46.540         25.00	     5.477
  46.560         26.67	     5.657
  46.580         20.00	     4.899
  46.600         27.50	     5.745
  46.620         19.17	     4.796
  46.640         26.67	     5.657
  46.660         25.83	     5.568
  46.680         13.33	     4.000
  46.700         21.67	     5.099
  46.720         25.00	     5.477
  46.740         22.50	     5.196
  46.760         25.00	     5.477
  46.780         20.83	     5.000
  46.800         19.17	     4.796
  46.820         19.17	     4.796
  46.840         20.00	     4.899
  46.860         14.17	     4.123
  46.880         23.33	     5.292
  46.900         23.33	     5.292
  46.920         11.67	     3.742
  46.940         20.00	     4.899
  46.960         14.17	     4.123
  46.980         16.67	     4.472
  47.000         22.50	     5.196
  47.020         18.33	     4.690
  47.040         25.83	     5.568
  47.060         23.33	     5.292
  47.080         24.17	     5.385
  47.100         25.83	     5.568
  47.120         28.33	     5.831
  47.140         28.33	     5.831
  47.160         18.33	     4.690
  47.180         22.50	     5.196
  47.200         25.83	     5.568
  47.220         22.50	     5.196
  47.240         26.67	     5.657
  47.260         16.67	     4.472
  47.280         28.33	     5.831
  47.300         21.67	     5.099
  47.320         25.83	     5.568
  47.340         23.33	     5.292
  47.360         21.67	     5.099
  47.380         21.67	     5.099
  47.400         20.83	     5.000
  47.420         26.67	     5.657
  47.440         19.17	     4.796
  47.460         15.83	     4.359
  47.480         23.33	     5.292
  47.500         15.83	     4.359
  47.520         20.83	     5.000
  47.540         21.67	     5.099
  47.560         17.50	     4.583
  47.580         13.33	     4.000
  47.600         12.50	     3.873
  47.620         21.67	     5.099
  47.640         22.50	     5.196
  47.660         19.17	     4.796
  47.680         15.83	     4.359
  47.700         15.83	     4.359
  47.720         17.50	     4.583
  47.740         20.00	     4.899
  47.760         10.83	     3.606
  47.780         10.00	     3.464
  47.800         22.50	     5.196
  47.820         15.00	     4.243
  47.840         20.00	     4.899
  47.860         23.33	     5.292
  47.880         21.67	     5.099
  47.900         23.33	     5.292
  47.920         21.67	     5.099
  47.940         15.00	     4.243
  47.960         14.17	     4.123
  47.980         24.17	     5.385
  48.000         21.67	     5.099
  48.020         23.33	     5.292
  48.040         30.00	     6.000
  48.060         29.17	     5.916
  48.080         25.00	     5.477
  48.100         14.17	     4.123
  48.120         16.67	     4.472
  48.140         14.17	     4.123
  48.160         25.00	     5.477
  48.180         28.33	     5.831
  48.200         26.67	     5.657
  48.220         24.17	     5.385
  48.240         29.17	     5.916
  48.260         18.33	     4.690
  48.280         24.17	     5.385
  48.300         17.50	     4.583
  48.320         22.50	     5.196
  48.340         27.50	     5.745
  48.360         20.00	     4.899
  48.380         20.00	     4.899
  48.400         25.83	     5.568
  48.420         22.50	     5.196
  48.440         19.17	     4.796
  48.460         17.50	     4.583
  48.480         20.83	     5.000
  48.500         24.17	     5.385
  48.520         21.67	     5.099
  48.540         25.00	     5.477
  48.560         20.83	     5.000
  48.580         17.50	     4.583
  48.600         16.67	     4.472
  48.620         24.17	     5.385
  48.640         21.67	     5.099
  48.660         14.17	     4.123
  48.680         20.83	     5.000
  48.700         22.50	     5.196
  48.720         23.33	     5.292
  48.740         22.50	     5.196
  48.760         21.67	     5.099
  48.780         24.17	     5.385
  48.800         19.17	     4.796
  48.820         23.33	     5.292
  48.840         25.00	     5.477
  48.860         20.00	     4.899
  48.880         16.67	     4.472
  48.900         16.67	     4.472
  48.920         16.67	     4.472
  48.940         27.50	     5.745
  48.960         12.50	     3.873
  48.980         17.50	     4.583
  49.000         14.17	     4.123
  49.020         13.33	     4.000
  49.040         12.50	     3.873
  49.060         13.33	     4.000
  49.080         14.17	     4.123
  49.100         22.50	     5.196
  49.120         16.67	     4.472
  49.140         17.50	     4.583
  49.160         15.83	     4.359
  49.180         15.00	     4.243
  49.200         20.00	     4.899
  49.220         17.50	     4.583
  49.240         21.67	     5.099
  49.260         17.50	     4.583
  49.280         20.83	     5.000
  49.300         17.50	     4.583
  49.320         18.33	     4.690
  49.340         13.33	     4.000
  49.360         15.00	     4.243
  49.380         19.17	     4.796
  49.400         14.17	     4.123
  49.420         18.33	     4.690
  49.440         19.17	     4.796
  49.460         10.00	     3.464
  49.480         11.67	     3.742
  49.500         13.33	     4.000
  49.520         13.33	     4.000
  49.540         14.17	     4.123
  49.560         19.17	     4.796
  49.580         11.67	     3.742
  49.600         22.50	     5.196
  49.620         16.67	     4.472
  49.640         18.33	     4.690
  49.660         14.17	     4.123
  49.680         16.67	     4.472
  49.700         20.00	     4.899
  49.720         17.50	     4.583
  49.740         18.33	     4.690
  49.760         14.17	     4.123
  49.780         22.50	     5.196
  49.800         20.83	     5.000
  49.820         11.67	     3.742
  49.840         25.00	     5.477
  49.860         25.00	     5.477
  49.880         22.50	     5.196
  49.900         15.83	     4.359
  49.920         17.50	     4.583
  49.940         20.83	     5.000
  49.960         23.33	     5.292
  49.980         26.67	     5.657
  50.000         18.33	     4.690
  50.020         22.50	     5.196
  50.040         20.83	     5.000
  50.060         21.67	     5.099
  50.080         17.50	     4.583
  50.100         16.67	     4.472
  50.120         25.00	     5.477
  50.140         21.67	     5.099
  50.160         23.33	     5.292
  50.180         25.83	     5.568
  50.200         35.00	     6.481
  50.220         43.33	     7.211
  50.240         37.50	     6.708
  50.260         28.33	     5.831
  50.280         39.17	     6.856
  50.300         34.17	     6.403
  50.320         42.50	     7.141
  50.340         20.00	     4.899
  50.360         41.67	     7.071
  50.380         31.67	     6.164
  50.400         24.17	     5.385
  50.420         28.33	     5.831
  50.440         22.50	     5.196
  50.460         24.17	     5.385
  50.480         23.33	     5.292
  50.500         24.17	     5.385
  50.520         20.00	     4.899
  50.540         20.00	     4.899
  50.560         17.50	     4.583
  50.580         15.00	     4.243
  50.600         25.83	     5.568
  50.620         26.67	     5.657
  50.640         20.83	     5.000
  50.660         20.00	     4.899
  50.680         27.50	     5.745
  50.700         20.00	     4.899
  50.720         19.17	     4.796
  50.740         15.00	     4.243
  50.760         25.00	     5.477
  50.780         22.50	     5.196
  50.800         21.67	     5.099
  50.820         20.00	     4.899
  50.840         15.00	     4.243
  50.860         19.17	     4.796
  50.880         13.33	     4.000
  50.900         13.33	     4.000
  50.920         15.83	     4.359
  50.940         17.50	     4.583
  50.960         16.67	     4.472
  50.980         18.33	     4.690
  51.000         10.00	     3.464
  51.020         20.83	     5.000
  51.040         16.67	     4.472
  51.060         11.67	     3.742
  51.080         16.67	     4.472
  51.100         15.00	     4.243
  51.120          9.17	     3.317
  51.140         17.50	     4.583
  51.160         17.50	     4.583
  51.180         19.17	     4.796
  51.200         26.67	     5.657
  51.220         20.00	     4.899
  51.240         22.50	     5.196
  51.260         15.83	     4.359
  51.280         26.67	     5.657
  51.300         25.00	     5.477
  51.320         18.33	     4.690
  51.340         18.33	     4.690
  51.360         18.33	     4.690
  51.380         14.17	     4.123
  51.400         15.83	     4.359
  51.420         14.17	     4.123
  51.440         15.00	     4.243
  51.460         15.83	     4.359
  51.480         14.17	     4.123
  51.500         15.00	     4.243
  51.520         10.00	     3.464
  51.540         17.50	     4.583
  51.560         13.33	     4.000
  51.580         16.67	     4.472
  51.600         15.83	     4.359
  51.620         15.83	     4.359
  51.640         14.17	     4.123
  51.660         13.33	     4.000
  51.680         12.50	     3.873
  51.700         11.67	     3.742
  51.720         12.50	     3.873
  51.740         11.67	     3.742
  51.760         10.83	     3.606
  51.780         12.50	     3.873
  51.800         13.33	     4.000
  51.820         12.50	     3.873
  51.840          6.67	     2.828
  51.860         17.50	     4.583
  51.880          5.83	     2.646
  51.900         10.83	     3.606
  51.920          6.67	     2.828
  51.940         10.00	     3.464
  51.960         15.83	     4.359
  51.980         15.83	     4.359
  52.000         12.50	     3.873
  52.020         10.83	     3.606
  52.040         18.33	     4.690
  52.060         12.50	     3.873
  52.080         13.33	     4.000
  52.100         15.00	     4.243
  52.120         10.83	     3.606
  52.140         10.83	     3.606
  52.160         15.83	     4.359
  52.180         15.83	     4.359
  52.200         19.17	     4.796
  52.220         16.67	     4.472
  52.240         18.33	     4.690
  52.260         17.50	     4.583
  52.280         14.17	     4.123
  52.300          8.33	     3.162
  52.320         15.83	     4.359
  52.340         17.50	     4.583
  52.360         21.67	     5.099
  52.380         15.00	     4.243
  52.400         14.17	     4.123
  52.420         15.83	     4.359
  52.440          8.33	     3.162
  52.460          9.17	     3.317
  52.480         12.50	     3.873
  52.500         19.17	     4.796
  52.520         15.83	     4.359
  52.540         13.33	     4.000
  52.560         19.17	     4.796
  52.580         18.33	     4.690
  52.600         20.83	     5.000
  52.620         16.67	     4.472
  52.640         12.50	     3.873
  52.660         12.50	     3.873
  52.680         16.67	     4.472
  52.700         13.33	     4.000
  52.720         17.50	     4.583
  52.740         13.33	     4.000
  52.760         20.00	     4.899
  52.780         10.83	     3.606
  52.800         15.83	     4.359
  52.820         14.17	     4.123
  52.840         17.50	     4.583
  52.860         15.83	     4.359
  52.880         13.33	     4.000
  52.900         12.50	     3.873
  52.920         17.50	     4.583
  52.940         20.83	     5.000
  52.960         15.83	     4.359
  52.980         18.33	     4.690
  53.000         10.83	     3.606
  53.020         12.50	     3.873
  53.040          8.33	     3.162
  53.060         15.00	     4.243
  53.080         15.00	     4.243
  53.100         13.33	     4.000
  53.120         20.00	     4.899
  53.140         18.33	     4.690
  53.160         15.83	     4.359
  53.180         15.00	     4.243
  53.200         17.50	     4.583
  53.220         15.00	     4.243
  53.240         15.83	     4.359
  53.260         20.00	     4.899
  53.280         17.50	     4.583
  53.300          8.33	     3.162
  53.320         17.50	     4.583
  53.340         13.33	     4.000
  53.360         11.67	     3.742
  53.380         12.50	     3.873
  53.400         17.50	     4.583
  53.420         15.00	     4.243
  53.440         19.17	     4.796
  53.460         11.67	     3.742
  53.480         12.50	     3.873
  53.500         16.67	     4.472
  53.520         15.00	     4.243
  53.540         17.50	     4.583
  53.560         14.17	     4.123
  53.580         18.33	     4.690
  53.600         15.00	     4.243
  53.620         11.67	     3.742
  53.640         14.17	     4.123
  53.660         11.67	     3.742
  53.680         12.50	     3.873
  53.700          7.50	     3.000
  53.720         13.33	     4.000
  53.740         15.00	     4.243
  53.760         13.33	     4.000
  53.780         14.17	     4.123
  53.800          9.17	     3.317
  53.820         18.33	     4.690
  53.840         12.50	     3.873
  53.860         17.50	     4.583
  53.880         17.50	     4.583
  53.900         13.33	     4.000
  53.920         15.83	     4.359
  53.940         17.50	     4.583
  53.960         12.50	     3.873
  53.980         11.67	     3.742
  54.000         15.00	     4.243
  54.020         19.17	     4.796
  54.040         13.33	     4.000
  54.060         11.67	     3.742
  54.080         13.33	     4.000
  54.100         12.50	     3.873
  54.120         15.83	     4.359
  54.140         15.00	     4.243
  54.160          9.17	     3.317
  54.180          9.17	     3.317
  54.200         15.83	     4.359
  54.220         11.67	     3.742
  54.240         12.50	     3.873
  54.260         15.83	     4.359
  54.280         11.67	     3.742
  54.300         18.33	     4.690
  54.320         10.83	     3.606
  54.340         16.67	     4.472
  54.360          8.33	     3.162
  54.380         15.83	     4.359
  54.400         15.00	     4.243
  54.420         18.33	     4.690
  54.440         20.00	     4.899
  54.460         20.83	     5.000
  54.480         16.67	     4.472
  54.500         13.33	     4.000
  54.520         13.33	     4.000
  54.540         18.33	     4.690
  54.560         17.50	     4.583
  54.580         18.33	     4.690
  54.600         16.67	     4.472
  54.620         19.17	     4.796
  54.640         16.67	     4.472
  54.660         15.83	     4.359
  54.680         23.33	     5.292
  54.700         12.50	     3.873
  54.720         14.17	     4.123
  54.740         15.83	     4.359
  54.760         10.83	     3.606
  54.780         24.17	     5.385
  54.800         14.17	     4.123
  54.820         18.33	     4.690
  54.840         15.83	     4.359
  54.860         20.00	     4.899
  54.880         18.33	     4.690
  54.900         23.33	     5.292
  54.920         21.67	     5.099
  54.940         20.00	     4.899
  54.960         19.17	     4.796
  54.980         19.17	     4.796
  55.000         11.67	     3.742
  55.020         22.50	     5.196
  55.040         20.83	     5.000
  55.060         26.67	     5.657
  55.080         24.17	     5.385
  55.100         23.33	     5.292
  55.120         16.67	     4.472
  55.140         19.17	     4.796
  55.160         18.33	     4.690
  55.180         18.33	     4.690
  55.200         15.00	     4.243
  55.220         10.83	     3.606
  55.240         16.67	     4.472
  55.260         11.67	     3.742
  55.280         20.83	     5.000
  55.300         22.50	     5.196
  55.320         13.33	     4.000
  55.340         17.50	     4.583
  55.360         14.17	     4.123
  55.380         24.17	     5.385
  55.400         15.83	     4.359
  55.420         14.17	     4.123
  55.440         10.00	     3.464
  55.460         21.67	     5.099
  55.480         16.67	     4.472
  55.500         16.67	     4.472
  55.520         20.00	     4.899
  55.540         12.50	     3.873
  55.560         25.83	     5.568
  55.580         19.17	     4.796
  55.600         19.17	     4.796
  55.620         15.83	     4.359
  55.640         12.50	     3.873
  55.660         16.67	     4.472
  55.680         17.50	     4.583
  55.700         21.67	     5.099
  55.720         16.67	     4.472
  55.740         21.67	     5.099
  55.760         19.17	     4.796
  55.780         17.50	     4.583
  55.800         25.83	     5.568
  55.820         18.33	     4.690
  55.840         21.67	     5.099
  55.860         28.33	     5.831
  55.880         25.00	     5.477
  55.900         17.50	     4.583
  55.920         12.50	     3.873
  55.940         18.33	     4.690
  55.960         15.00	     4.243
  55.980         17.50	     4.583
  56.000         10.00	     3.464
  56.020         27.50	     5.745
  56.040         24.17	     5.385
  56.060         17.50	     4.583
  56.080         20.00	     4.899
  56.100         14.17	     4.123
  56.120         15.00	     4.243
  56.140         20.00	     4.899
  56.160         16.67	     4.472
  56.180         11.67	     3.742
  56.200         12.50	     3.873
  56.220         16.67	     4.472
  56.240         17.50	     4.583
  56.260         10.00	     3.464
  56.280          9.17	     3.317
  56.300         11.67	     3.742
  56.320         10.00	     3.464
  56.340         12.50	     3.873
  56.360         17.50	     4.583
  56.380          8.33	     3.162
  56.400         14.17	     4.123
  56.420         17.50	     4.583
  56.440         14.17	     4.123
  56.460         10.00	     3.464
  56.480         10.83	     3.606
  56.500         10.83	     3.606
  56.520         10.00	     3.464
  56.540         17.50	     4.583
  56.560         15.00	     4.243
  56.580         17.50	     4.583
  56.600         12.50	     3.873
  56.620         16.67	     4.472
  56.640         10.83	     3.606
  56.660         13.33	     4.000
  56.680          9.17	     3.317
  56.700         13.33	     4.000
  56.720          9.17	     3.317
  56.740         15.00	     4.243
  56.760         14.17	     4.123
  56.780         10.83	     3.606
  56.800         15.83	     4.359
  56.820         14.17	     4.123
  56.840         16.67	     4.472
  56.860         12.50	     3.873
  56.880         18.33	     4.690
  56.900         13.33	     4.000
  56.920         21.67	     5.099
  56.940         15.83	     4.359
  56.960         12.50	     3.873
  56.980         15.00	     4.243
  57.000         14.17	     4.123
  57.020         13.33	     4.000
  57.040         10.83	     3.606
  57.060         15.00	     4.243
  57.080         19.17	     4.796
  57.100         13.33	     4.000
  57.120         17.50	     4.583
  57.140          9.17	     3.317
  57.160         13.33	     4.000
  57.180         12.50	     3.873
  57.200         13.33	     4.000
  57.220         10.00	     3.464
  57.240         10.83	     3.606
  57.260         15.00	     4.243
  57.280         12.50	     3.873
  57.300         19.17	     4.796
  57.320         11.67	     3.742
  57.340         18.33	     4.690
  57.360         14.17	     4.123
  57.380         15.00	     4.243
  57.400         13.33	     4.000
  57.420         15.83	     4.359
  57.440         25.00	     5.477
  57.460         14.17	     4.123
  57.480         20.00	     4.899
  57.500         15.00	     4.243
  57.520         20.83	     5.000
  57.540         21.67	     5.099
  57.560         12.50	     3.873
  57.580         22.50	     5.196
  57.600         22.50	     5.196
  57.620         25.83	     5.568
  57.640         38.33	     6.782
  57.660         24.17	     5.385
  57.680         32.50	     6.245
  57.700         22.50	     5.196
  57.720         16.67	     4.472
  57.740         22.50	     5.196
  57.760         17.50	     4.583
  57.780         15.83	     4.359
  57.800         12.50	     3.873
  57.820         19.17	     4.796
  57.840         10.83	     3.606
  57.860         16.67	     4.472
  57.880         17.50	     4.583
  57.900         19.17	     4.796
  57.920         16.67	     4.472
  57.940         16.67	     4.472
  57.960         10.83	     3.606
  57.980         12.50	     3.873
  58.000         19.17	     4.796
  58.020         13.33	     4.000
  58.040         16.67	     4.472
  58.060         11.67	     3.742
  58.080         19.17	     4.796
  58.100         15.00	     4.243
  58.120         15.00	     4.243
  58.140         11.67	     3.742
  58.160         20.00	     4.899
  58.180         16.67	     4.472
  58.200         26.67	     5.657
  58.220         16.67	     4.472
  58.240         15.83	     4.359
  58.260          8.33	     3.162
  58.280          6.67	     2.828
  58.300         12.50	     3.873
  58.320         15.00	     4.243
  58.340         17.50	     4.583
  58.360         17.50	     4.583
  58.380         21.67	     5.099
  58.400         18.33	     4.690
  58.420         16.67	     4.472
  58.440         15.00	     4.243
  58.460         21.67	     5.099
  58.480         10.83	     3.606
  58.500         20.83	     5.000
  58.520         22.50	     5.196
  58.540         17.50	     4.583
  58.560         17.50	     4.583
  58.580         14.17	     4.123
  58.600         15.00	     4.243
  58.620         20.00	     4.899
  58.640         19.17	     4.796
  58.660         21.67	     5.099
  58.680         17.50	     4.583
  58.700         16.67	     4.472
  58.720         15.83	     4.359
  58.740         15.00	     4.243
  58.760         16.67	     4.472
  58.780         16.67	     4.472
  58.800         17.50	     4.583
  58.820         16.67	     4.472
  58.840         20.83	     5.000
  58.860         15.83	     4.359
  58.880         15.00	     4.243
  58.900         11.67	     3.742
  58.920         16.67	     4.472
  58.940         19.17	     4.796
  58.960         19.17	     4.796
  58.980         14.17	     4.123
  59.000         17.50	     4.583
  59.020         12.50	     3.873
  59.040         20.00	     4.899
  59.060         25.83	     5.568
  59.080         15.83	     4.359
  59.100         15.83	     4.359
  59.120         15.00	     4.243
  59.140         15.83	     4.359
  59.160         18.33	     4.690
  59.180         16.67	     4.472
  59.200         15.00	     4.243
  59.220         15.00	     4.243
  59.240         17.50	     4.583
  59.260         18.33	     4.690
  59.280         13.33	     4.000
  59.300         18.33	     4.690
  59.320         15.00	     4.243
  59.340         10.83	     3.606
  59.360         15.00	     4.243
  59.380         15.00	     4.243
  59.400         20.00	     4.899
  59.420         15.00	     4.243
  59.440         20.83	     5.000
  59.460         24.17	     5.385
  59.480         15.00	     4.243
  59.500         21.67	     5.099
  59.520         17.50	     4.583
  59.540         16.67	     4.472
  59.560         14.17	     4.123
  59.580         15.00	     4.243
  59.600         20.00	     4.899
  59.620         20.83	     5.000
  59.640         14.17	     4.123
  59.660         15.00	     4.243
  59.680         14.17	     4.123
  59.700         15.00	     4.243
  59.720         17.50	     4.583
  59.740         14.17	     4.123
  59.760         19.17	     4.796
  59.780         16.67	     4.472
  59.800         15.00	     4.243
  59.820         12.50	     3.873
  59.840         11.67	     3.742
  59.860         12.50	     3.873
  59.880         19.17	     4.796
  59.900         18.33	     4.690
  59.920         16.67	     4.472
  59.940         17.50	     4.583
  59.960         29.17	     5.916
  59.980         27.50	     5.745
  60.000         24.17	     5.385
  60.020         31.67	     6.164
  60.040         27.50	     5.745
  60.060         17.50	     4.583
  60.080          8.33	     3.162
  60.100         16.67	     4.472
  60.120         17.50	     4.583
  60.140         14.17	     4.123
  60.160         18.33	     4.690
  60.180         31.67	     6.164
  60.200         22.50	     5.196
  60.220         20.83	     5.000
  60.240         24.17	     5.385
  60.260         21.67	     5.099
  60.280         25.83	     5.568
  60.300         10.00	     3.464
  60.320         18.33	     4.690
  60.340         19.17	     4.796
  60.360         15.00	     4.243
  60.380         18.33	     4.690
  60.400         23.33	     5.292
  60.420         18.33	     4.690
  60.440         17.50	     4.583
  60.460         19.17	     4.796
  60.480         10.00	     3.464
  60.500         22.50	     5.196
  60.520         20.83	     5.000
  60.540         17.50	     4.583
  60.560         18.33	     4.690
  60.580         11.67	     3.742
  60.600         25.00	     5.477
  60.620         23.33	     5.292
  60.640         15.83	     4.359
  60.660         21.67	     5.099
  60.680         21.67	     5.099
  60.700         23.33	     5.292
  60.720         20.83	     5.000
  60.740         21.67	     5.099
  60.760         16.67	     4.472
  60.780         27.50	     5.745
  60.800         14.17	     4.123
  60.820         21.67	     5.099
  60.840         16.67	     4.472
  60.860         12.50	     3.873
  60.880         17.50	     4.583
  60.900         15.00	     4.243
  60.920         19.17	     4.796
  60.940         20.00	     4.899
  60.960         22.50	     5.196
  60.980         25.83	     5.568
  61.000         20.83	     5.000
  61.020         15.83	     4.359
  61.040         21.67	     5.099
  61.060         20.83	     5.000
  61.080         18.33	     4.690
  61.100         25.00	     5.477
  61.120         22.50	     5.196
  61.140         20.00	     4.899
  61.160         19.17	     4.796
  61.180         19.17	     4.796
  61.200         20.00	     4.899
  61.220         14.17	     4.123
  61.240         13.33	     4.000
  61.260         19.17	     4.796
  61.280         21.67	     5.099
  61.300         19.17	     4.796
  61.320         17.50	     4.583
  61.340         14.17	     4.123
  61.360         21.67	     5.099
  61.380         30.00	     6.000
  61.400         23.33	     5.292
  61.420         32.50	     6.245
  61.440         23.33	     5.292
  61.460         38.33	     6.782
  61.480         40.00	     6.928
  61.500         44.17	     7.280
  61.520         45.00	     7.348
  61.540         51.67	     7.874
  61.560         43.33	     7.211
  61.580         35.00	     6.481
  61.600         28.33	     5.831
  61.620         21.67	     5.099
  61.640         26.67	     5.657
  61.660         20.83	     5.000
  61.680         35.83	     6.557
  61.700         15.83	     4.359
  61.720         20.83	     5.000
  61.740         22.50	     5.196
  61.760         22.50	     5.196
  61.780         21.67	     5.099
  61.800         18.33	     4.690
  61.820         15.83	     4.359
  61.840         15.00	     4.243
  61.860         26.67	     5.657
  61.880         24.17	     5.385
  61.900         18.33	     4.690
  61.920         18.33	     4.690
  61.940         16.67	     4.472
  61.960         24.17	     5.385
  61.980         25.00	     5.477
  62.000         27.50	     5.745
  62.020         28.33	     5.831
  62.040         31.67	     6.164
  62.060         24.17	     5.385
  62.080         19.17	     4.796
  62.100         14.17	     4.123
  62.120         15.00	     4.243
  62.140         15.00	     4.243
  62.160         15.83	     4.359
  62.180         29.17	     5.916
  62.200         22.50	     5.196
  62.220         19.17	     4.796
  62.240         21.67	     5.099
  62.260         15.83	     4.359
  62.280         17.50	     4.583
  62.300         12.50	     3.873
  62.320         11.67	     3.742
  62.340         21.67	     5.099
  62.360         22.50	     5.196
  62.380         22.50	     5.196
  62.400         26.67	     5.657
  62.420         14.17	     4.123
  62.440         21.67	     5.099
  62.460         15.83	     4.359
  62.480         19.17	     4.796
  62.500         12.50	     3.873
  62.520         18.33	     4.690
  62.540         10.83	     3.606
  62.560         17.50	     4.583
  62.580         20.00	     4.899
  62.600         16.67	     4.472
  62.620         25.83	     5.568
  62.640         25.83	     5.568
  62.660         13.33	     4.000
  62.680         17.50	     4.583
  62.700         19.17	     4.796
  62.720         14.17	     4.123
  62.740         21.67	     5.099
  62.760         20.83	     5.000
  62.780         15.83	     4.359
  62.800         19.17	     4.796
  62.820         16.67	     4.472
  62.840         15.83	     4.359
  62.860         19.17	     4.796
  62.880         21.67	     5.099
  62.900         25.00	     5.477
  62.920         17.50	     4.583
  62.940         19.17	     4.796
  62.960         22.50	     5.196
  62.980         15.83	     4.359
  63.000         28.33	     5.831
  63.020         15.83	     4.359
  63.040         19.17	     4.796
  63.060         17.50	     4.583
  63.080         20.00	     4.899
  63.100         15.83	     4.359
  63.120         12.50	     3.873
  63.140         20.83	     5.000
  63.160         23.33	     5.292
  63.180         13.33	     4.000
  63.200         18.33	     4.690
  63.220         20.83	     5.000
  63.240         14.17	     4.123
  63.260         14.17	     4.123
  63.280         14.17	     4.123
  63.300         19.17	     4.796
  63.320         25.00	     5.477
  63.340         20.83	     5.000
  63.360         15.83	     4.359
  63.380         18.33	     4.690
  63.400         17.50	     4.583
  63.420         20.00	     4.899
  63.440         24.17	     5.385
  63.460         25.83	     5.568
  63.480         20.83	     5.000
  63.500         15.83	     4.359
  63.520         22.50	     5.196
  63.540         26.67	     5.657
  63.560         20.00	     4.899
  63.580         24.17	     5.385
  63.600         16.67	     4.472
  63.620         27.50	     5.745
  63.640         18.33	     4.690
  63.660         15.83	     4.359
  63.680         23.33	     5.292
  63.700         20.00	     4.899
  63.720         25.83	     5.568
  63.740         21.67	     5.099
  63.760         20.83	     5.000
  63.780         20.83	     5.000
  63.800         22.50	     5.196
  63.820         27.50	     5.745
  63.840         32.50	     6.245
  63.860         38.33	     6.782
  63.880         25.00	     5.477
  63.900         28.33	     5.831
  63.920         28.33	     5.831
  63.940         32.50	     6.245
  63.960         25.00	     5.477
  63.980         25.83	     5.568
  64.000         25.83	     5.568
  64.020         32.50	     6.245
  64.040         40.00	     6.928
  64.060         27.50	     5.745
  64.080         35.00	     6.481
  64.100         45.00	     7.348
  64.120         41.67	     7.071
  64.140         58.33	     8.367
  64.160         60.83	     8.544
  64.180         70.00	     9.165
  64.200         68.33	     9.055
  64.220         74.17	     9.434
  64.240         70.83	     9.220
  64.260         73.33	     9.381
  64.280         85.83	    10.149
  64.300         88.33	    10.296
  64.320        118.33	    11.916
  64.340        111.67	    11.576
  64.360        137.50	    12.845
  64.380        190.83	    15.133
  64.400        257.50	    17.578
  64.420        474.17	    23.854
  64.440        881.67	    32.527
  64.460       1650.83	    44.508
  64.480       2205.00	    51.439
  64.500       2012.50	    49.143
  64.520       1195.83	    37.881
  64.540        656.67	    28.071
  64.560        398.33	    21.863
  64.580        335.00	    20.050
  64.600        389.17	    21.610
  64.620        587.50	    26.552
  64.640        955.83	    33.867
  64.660       1168.33	    37.443
  64.680       1061.67	    35.693
  64.700        652.50	    27.982
  64.720        300.00	    18.974
  64.740        175.00	    14.491
  64.760        140.00	    12.961
  64.780         94.17	    10.630
  64.800         85.00	    10.100
  64.820         85.00	    10.100
  64.840         71.67	     9.274
  64.860         76.67	     9.592
  64.880         62.50	     8.660
  64.900         49.17	     7.681
  64.920         39.17	     6.856
  64.940         45.83	     7.416
  64.960         42.50	     7.141
  64.980         40.00	     6.928
  65.000         24.17	     5.385
