
Filename:
	C:\Program Files\Thermo Electron\WinXRD\Datafiles\F_HERMAN\GEO\GG_11A_SFT.raw

File Created:
	October 12, 2020 - 09:36 PM

Specimen Id:
	GG_11A_SFT

Specimen Name:
	

Specimen Description:
	

Comment:
Scan Type: 2Theta Scan
Start Angle: 3 deg.
Stop Angle: 65 deg.
Num Points: 3101
Step Size: 0.02 deg.
Scan Rate: 1.000000
Scan Mode: Continuous
Wavelength: 1.540562
\Kalpha1: 1.540562	\Kalpha2: 1.544390	\Kbeta: 1.392218

Optics:
		Detector:
			 Type: Fixed Slits
		Tube: 
			 Type: Fixed Slits


Datas:
 Pos [deg]       Rate [CPS]      ESD [-]

Range 1 ---> Iteration 1
   3.000        398.33	    21.863
   3.020        371.67	    21.119
   3.040        376.67	    21.260
   3.060        362.50	    20.857
   3.080        380.83	    21.378
   3.100        380.00	    21.354
   3.120        401.67	    21.954
   3.140        395.00	    21.772
   3.160        390.00	    21.633
   3.180        350.00	    20.494
   3.200        356.67	    20.688
   3.220        366.67	    20.976
   3.240        352.50	    20.567
   3.260        357.50	    20.712
   3.280        362.50	    20.857
   3.300        363.33	    20.881
   3.320        357.50	    20.712
   3.340        335.83	    20.075
   3.360        360.00	    20.785
   3.380        347.50	    20.421
   3.400        320.00	    19.596
   3.420        318.33	    19.545
   3.440        350.00	    20.494
   3.460        356.67	    20.688
   3.480        345.83	    20.372
   3.500        302.50	    19.053
   3.520        315.83	    19.468
   3.540        331.67	    19.950
   3.560        328.33	    19.849
   3.580        328.33	    19.849
   3.600        323.33	    19.698
   3.620        302.50	    19.053
   3.640        339.17	    20.174
   3.660        337.50	    20.125
   3.680        286.67	    18.547
   3.700        313.33	    19.391
   3.720        298.33	    18.921
   3.740        303.33	    19.079
   3.760        293.33	    18.762
   3.780        299.17	    18.947
   3.800        283.33	    18.439
   3.820        281.67	    18.385
   3.840        333.33	    20.000
   3.860        315.83	    19.468
   3.880        295.00	    18.815
   3.900        301.67	    19.026
   3.920        311.67	    19.339
   3.940        277.50	    18.248
   3.960        313.33	    19.391
   3.980        289.17	    18.628
   4.000        313.33	    19.391
   4.020        298.33	    18.921
   4.040        272.50	    18.083
   4.060        290.00	    18.655
   4.080        271.67	    18.055
   4.100        256.67	    17.550
   4.120        274.17	    18.138
   4.140        260.00	    17.664
   4.160        292.50	    18.735
   4.180        266.67	    17.889
   4.200        254.17	    17.464
   4.220        274.17	    18.138
   4.240        255.83	    17.521
   4.260        263.33	    17.776
   4.280        252.50	    17.407
   4.300        255.00	    17.493
   4.320        239.17	    16.941
   4.340        245.00	    17.146
   4.360        265.00	    17.833
   4.380        259.17	    17.635
   4.400        238.33	    16.912
   4.420        224.17	    16.401
   4.440        224.17	    16.401
   4.460        221.67	    16.310
   4.480        247.50	    17.234
   4.500        245.00	    17.146
   4.520        254.17	    17.464
   4.540        269.17	    17.972
   4.560        252.50	    17.407
   4.580        245.83	    17.176
   4.600        242.50	    17.059
   4.620        243.33	    17.088
   4.640        250.00	    17.321
   4.660        250.00	    17.321
   4.680        245.00	    17.146
   4.700        250.83	    17.349
   4.720        218.33	    16.186
   4.740        258.33	    17.607
   4.760        220.83	    16.279
   4.780        222.50	    16.340
   4.800        230.00	    16.613
   4.820        252.50	    17.407
   4.840        215.83	    16.093
   4.860        235.00	    16.793
   4.880        235.00	    16.793
   4.900        206.67	    15.748
   4.920        231.67	    16.673
   4.940        208.33	    15.811
   4.960        230.00	    16.613
   4.980        199.17	    15.460
   5.000        240.83	    17.000
   5.020        248.33	    17.263
   5.040        224.17	    16.401
   5.060        221.67	    16.310
   5.080        213.33	    16.000
   5.100        212.50	    15.969
   5.120        205.83	    15.716
   5.140        201.67	    15.556
   5.160        228.33	    16.553
   5.180        212.50	    15.969
   5.200        244.17	    17.117
   5.220        208.33	    15.811
   5.240        203.33	    15.620
   5.260        238.33	    16.912
   5.280        225.00	    16.432
   5.300        221.67	    16.310
   5.320        198.33	    15.427
   5.340        224.17	    16.401
   5.360        215.00	    16.062
   5.380        199.17	    15.460
   5.400        202.50	    15.588
   5.420        210.83	    15.906
   5.440        210.00	    15.875
   5.460        222.50	    16.340
   5.480        196.67	    15.362
   5.500        219.17	    16.217
   5.520        211.67	    15.937
   5.540        222.50	    16.340
   5.560        193.33	    15.232
   5.580        211.67	    15.937
   5.600        208.33	    15.811
   5.620        248.33	    17.263
   5.640        226.67	    16.492
   5.660        200.00	    15.492
   5.680        210.83	    15.906
   5.700        210.00	    15.875
   5.720        204.17	    15.652
   5.740        206.67	    15.748
   5.760        190.00	    15.100
   5.780        243.33	    17.088
   5.800        242.50	    17.059
   5.820        236.67	    16.852
   5.840        235.00	    16.793
   5.860        248.33	    17.263
   5.880        240.83	    17.000
   5.900        255.83	    17.521
   5.920        253.33	    17.436
   5.940        233.33	    16.733
   5.960        260.00	    17.664
   5.980        277.50	    18.248
   6.000        272.50	    18.083
   6.020        278.33	    18.276
   6.040        260.83	    17.692
   6.060        290.83	    18.682
   6.080        335.83	    20.075
   6.100        322.50	    19.672
   6.120        372.50	    21.142
   6.140        426.67	    22.627
   6.160        422.50	    22.517
   6.180        487.50	    24.187
   6.200        537.50	    25.397
   6.220        569.17	    26.134
   6.240        672.50	    28.408
   6.260        661.67	    28.178
   6.280        808.33	    31.145
   6.300        786.67	    30.725
   6.320        745.00	    29.900
   6.340        730.83	    29.614
   6.360        747.50	    29.950
   6.380        675.00	    28.460
   6.400        665.83	    28.267
   6.420        592.50	    26.665
   6.440        515.83	    24.880
   6.460        430.00	    22.716
   6.480        420.83	    22.472
   6.500        356.67	    20.688
   6.520        344.17	    20.322
   6.540        355.00	    20.640
   6.560        338.33	    20.149
   6.580        320.83	    19.621
   6.600        323.33	    19.698
   6.620        314.17	    19.416
   6.640        319.17	    19.570
   6.660        285.83	    18.520
   6.680        313.33	    19.391
   6.700        293.33	    18.762
   6.720        254.17	    17.464
   6.740        307.50	    19.209
   6.760        261.67	    17.720
   6.780        257.50	    17.578
   6.800        290.00	    18.655
   6.820        281.67	    18.385
   6.840        252.50	    17.407
   6.860        262.50	    17.748
   6.880        250.83	    17.349
   6.900        229.17	    16.583
   6.920        250.83	    17.349
   6.940        232.50	    16.703
   6.960        262.50	    17.748
   6.980        240.00	    16.971
   7.000        220.83	    16.279
   7.020        266.67	    17.889
   7.040        237.50	    16.882
   7.060        233.33	    16.733
   7.080        223.33	    16.371
   7.100        255.83	    17.521
   7.120        250.00	    17.321
   7.140        212.50	    15.969
   7.160        216.67	    16.125
   7.180        238.33	    16.912
   7.200        231.67	    16.673
   7.220        223.33	    16.371
   7.240        206.67	    15.748
   7.260        207.50	    15.780
   7.280        217.50	    16.155
   7.300        221.67	    16.310
   7.320        226.67	    16.492
   7.340        198.33	    15.427
   7.360        208.33	    15.811
   7.380        225.00	    16.432
   7.400        190.00	    15.100
   7.420        230.83	    16.643
   7.440        201.67	    15.556
   7.460        205.00	    15.684
   7.480        175.00	    14.491
   7.500        187.50	    15.000
   7.520        207.50	    15.780
   7.540        170.83	    14.318
   7.560        199.17	    15.460
   7.580        195.83	    15.330
   7.600        187.50	    15.000
   7.620        196.67	    15.362
   7.640        204.17	    15.652
   7.660        178.33	    14.629
   7.680        197.50	    15.395
   7.700        196.67	    15.362
   7.720        164.17	    14.036
   7.740        154.17	    13.601
   7.760        185.00	    14.900
   7.780        165.83	    14.107
   7.800        172.50	    14.387
   7.820        184.17	    14.866
   7.840        179.17	    14.663
   7.860        196.67	    15.362
   7.880        201.67	    15.556
   7.900        193.33	    15.232
   7.920        167.50	    14.177
   7.940        162.50	    13.964
   7.960        192.50	    15.199
   7.980        175.00	    14.491
   8.000        184.17	    14.866
   8.020        163.33	    14.000
   8.040        182.50	    14.799
   8.060        213.33	    16.000
   8.080        174.17	    14.457
   8.100        186.67	    14.967
   8.120        160.00	    13.856
   8.140        197.50	    15.395
   8.160        212.50	    15.969
   8.180        180.00	    14.697
   8.200        200.83	    15.524
   8.220        203.33	    15.620
   8.240        217.50	    16.155
   8.260        192.50	    15.199
   8.280        193.33	    15.232
   8.300        213.33	    16.000
   8.320        210.00	    15.875
   8.340        218.33	    16.186
   8.360        200.83	    15.524
   8.380        209.17	    15.843
   8.400        229.17	    16.583
   8.420        235.00	    16.793
   8.440        257.50	    17.578
   8.460        262.50	    17.748
   8.480        245.00	    17.146
   8.500        273.33	    18.111
   8.520        256.67	    17.550
   8.540        269.17	    17.972
   8.560        260.83	    17.692
   8.580        280.83	    18.358
   8.600        320.00	    19.596
   8.620        293.33	    18.762
   8.640        323.33	    19.698
   8.660        336.67	    20.100
   8.680        330.00	    19.900
   8.700        361.67	    20.833
   8.720        367.50	    21.000
   8.740        397.50	    21.840
   8.760        425.00	    22.583
   8.780        474.17	    23.854
   8.800        517.50	    24.920
   8.820        502.50	    24.556
   8.840        581.67	    26.420
   8.860        673.33	    28.425
   8.880        717.50	    29.343
   8.900        860.00	    32.125
   8.920        957.50	    33.897
   8.940       1060.00	    35.665
   8.960       1045.83	    35.426
   8.980        979.17	    34.278
   9.000        967.50	    34.073
   9.020        909.17	    33.030
   9.040        957.50	    33.897
   9.060        766.67	    30.332
   9.080        544.17	    25.554
   9.100        443.33	    23.065
   9.120        360.83	    20.809
   9.140        313.33	    19.391
   9.160        290.00	    18.655
   9.180        255.00	    17.493
   9.200        244.17	    17.117
   9.220        251.67	    17.378
   9.240        246.67	    17.205
   9.260        247.50	    17.234
   9.280        234.17	    16.763
   9.300        209.17	    15.843
   9.320        205.83	    15.716
   9.340        213.33	    16.000
   9.360        208.33	    15.811
   9.380        201.67	    15.556
   9.400        193.33	    15.232
   9.420        204.17	    15.652
   9.440        201.67	    15.556
   9.460        219.17	    16.217
   9.480        244.17	    17.117
   9.500        272.50	    18.083
   9.520        257.50	    17.578
   9.540        282.50	    18.412
   9.560        275.00	    18.166
   9.580        266.67	    17.889
   9.600        302.50	    19.053
   9.620        244.17	    17.117
   9.640        227.50	    16.523
   9.660        200.83	    15.524
   9.680        155.83	    13.675
   9.700        155.83	    13.675
   9.720        129.17	    12.450
   9.740        156.67	    13.711
   9.760        127.50	    12.369
   9.780        129.17	    12.450
   9.800        107.50	    11.358
   9.820        130.00	    12.490
   9.840        130.00	    12.490
   9.860        114.17	    11.705
   9.880        134.17	    12.689
   9.900        137.50	    12.845
   9.920        118.33	    11.916
   9.940        125.00	    12.247
   9.960        125.00	    12.247
   9.980        123.33	    12.166
  10.000        116.67	    11.832
  10.020        128.33	    12.410
  10.040         91.67	    10.488
  10.060        113.33	    11.662
  10.080         96.67	    10.770
  10.100        106.67	    11.314
  10.120        105.00	    11.225
  10.140        119.17	    11.958
  10.160        101.67	    11.045
  10.180        120.00	    12.000
  10.200        120.83	    12.042
  10.220        103.33	    11.136
  10.240        107.50	    11.358
  10.260        120.83	    12.042
  10.280        104.17	    11.180
  10.300        110.83	    11.533
  10.320        113.33	    11.662
  10.340        113.33	    11.662
  10.360        110.00	    11.489
  10.380        105.83	    11.269
  10.400        107.50	    11.358
  10.420         94.17	    10.630
  10.440        124.17	    12.207
  10.460        128.33	    12.410
  10.480        146.67	    13.266
  10.500        168.33	    14.213
  10.520        194.17	    15.264
  10.540        232.50	    16.703
  10.560        226.67	    16.492
  10.580        287.50	    18.574
  10.600        302.50	    19.053
  10.620        305.83	    19.157
  10.640        295.83	    18.841
  10.660        262.50	    17.748
  10.680        272.50	    18.083
  10.700        259.17	    17.635
  10.720        226.67	    16.492
  10.740        185.00	    14.900
  10.760        142.50	    13.077
  10.780        126.67	    12.329
  10.800        120.00	    12.000
  10.820        114.17	    11.705
  10.840        119.17	    11.958
  10.860        105.83	    11.269
  10.880         92.50	    10.536
  10.900         90.00	    10.392
  10.920        103.33	    11.136
  10.940         91.67	    10.488
  10.960        111.67	    11.576
  10.980        100.00	    10.954
  11.000         88.33	    10.296
  11.020        125.00	    12.247
  11.040         95.00	    10.677
  11.060        109.17	    11.446
  11.080        118.33	    11.916
  11.100        109.17	    11.446
  11.120        125.00	    12.247
  11.140         98.33	    10.863
  11.160         99.17	    10.909
  11.180        118.33	    11.916
  11.200         93.33	    10.583
  11.220        121.67	    12.083
  11.240        105.00	    11.225
  11.260        110.83	    11.533
  11.280        111.67	    11.576
  11.300        110.83	    11.533
  11.320        115.83	    11.790
  11.340        103.33	    11.136
  11.360         97.50	    10.817
  11.380        114.17	    11.705
  11.400        100.83	    11.000
  11.420        116.67	    11.832
  11.440        120.00	    12.000
  11.460        114.17	    11.705
  11.480        122.50	    12.124
  11.500        105.83	    11.269
  11.520        105.00	    11.225
  11.540         98.33	    10.863
  11.560         92.50	    10.536
  11.580        114.17	    11.705
  11.600        106.67	    11.314
  11.620        105.83	    11.269
  11.640        114.17	    11.705
  11.660        126.67	    12.329
  11.680        140.00	    12.961
  11.700        140.83	    13.000
  11.720        125.83	    12.288
  11.740        129.17	    12.450
  11.760        140.83	    13.000
  11.780        135.00	    12.728
  11.800        121.67	    12.083
  11.820        151.67	    13.491
  11.840        144.17	    13.153
  11.860        143.33	    13.115
  11.880        150.83	    13.454
  11.900        157.50	    13.748
  11.920        162.50	    13.964
  11.940        145.83	    13.229
  11.960        148.33	    13.342
  11.980        162.50	    13.964
  12.000        160.00	    13.856
  12.020        171.67	    14.353
  12.040        228.33	    16.553
  12.060        214.17	    16.031
  12.080        231.67	    16.673
  12.100        306.67	    19.183
  12.120        348.33	    20.445
  12.140        425.00	    22.583
  12.160        563.33	    26.000
  12.180        709.17	    29.172
  12.200        951.67	    33.793
  12.220       1270.00	    39.038
  12.240       1504.17	    42.485
  12.260       1725.83	    45.508
  12.280       1848.33	    47.096
  12.300       1895.83	    47.697
  12.320       1896.67	    47.707
  12.340       2029.17	    49.346
  12.360       1961.67	    48.518
  12.380       1615.00	    44.023
  12.400       1244.17	    38.639
  12.420       1000.00	    34.641
  12.440        903.33	    32.924
  12.460        915.83	    33.151
  12.480       1011.67	    34.843
  12.500       1200.83	    37.961
  12.520       1203.33	    38.000
  12.540       1347.50	    40.212
  12.560       1398.33	    40.963
  12.580       1336.67	    40.050
  12.600       1342.50	    40.137
  12.620       1262.50	    38.923
  12.640       1303.33	    39.547
  12.660       1137.50	    36.946
  12.680        867.50	    32.265
  12.700        675.83	    28.478
  12.720        431.67	    22.760
  12.740        317.50	    19.519
  12.760        252.50	    17.407
  12.780        252.50	    17.407
  12.800        235.83	    16.823
  12.820        210.00	    15.875
  12.840        188.33	    15.033
  12.860        163.33	    14.000
  12.880        152.50	    13.528
  12.900        137.50	    12.845
  12.920        131.67	    12.570
  12.940        135.83	    12.767
  12.960        135.00	    12.728
  12.980        124.17	    12.207
  13.000        124.17	    12.207
  13.020        119.17	    11.958
  13.040        103.33	    11.136
  13.060        105.00	    11.225
  13.080        103.33	    11.136
  13.100        108.33	    11.402
  13.120         95.83	    10.724
  13.140        100.00	    10.954
  13.160        113.33	    11.662
  13.180         96.67	    10.770
  13.200         90.83	    10.440
  13.220        101.67	    11.045
  13.240         81.67	     9.899
  13.260        107.50	    11.358
  13.280         94.17	    10.630
  13.300         85.83	    10.149
  13.320        111.67	    11.576
  13.340         85.00	    10.100
  13.360         90.83	    10.440
  13.380         99.17	    10.909
  13.400        106.67	    11.314
  13.420         95.83	    10.724
  13.440         78.33	     9.695
  13.460         79.17	     9.747
  13.480        124.17	    12.207
  13.500        109.17	    11.446
  13.520         90.83	    10.440
  13.540         93.33	    10.583
  13.560         91.67	    10.488
  13.580        105.00	    11.225
  13.600         95.83	    10.724
  13.620         85.83	    10.149
  13.640         85.83	    10.149
  13.660        104.17	    11.180
  13.680         88.33	    10.296
  13.700         95.00	    10.677
  13.720        106.67	    11.314
  13.740         96.67	    10.770
  13.760         87.50	    10.247
  13.780         93.33	    10.583
  13.800         89.17	    10.344
  13.820         87.50	    10.247
  13.840         92.50	    10.536
  13.860        108.33	    11.402
  13.880        112.50	    11.619
  13.900        102.50	    11.091
  13.920        108.33	    11.402
  13.940        119.17	    11.958
  13.960        111.67	    11.576
  13.980        127.50	    12.369
  14.000        111.67	    11.576
  14.020        102.50	    11.091
  14.040         80.83	     9.849
  14.060         95.83	    10.724
  14.080         86.67	    10.198
  14.100         84.17	    10.050
  14.120         80.83	     9.849
  14.140         81.67	     9.899
  14.160         64.17	     8.775
  14.180         66.67	     8.944
  14.200         85.83	    10.149
  14.220         59.17	     8.426
  14.240         63.33	     8.718
  14.260         72.50	     9.327
  14.280         64.17	     8.775
  14.300         70.00	     9.165
  14.320         63.33	     8.718
  14.340         70.00	     9.165
  14.360         65.83	     8.888
  14.380         70.00	     9.165
  14.400         64.17	     8.775
  14.420         60.00	     8.485
  14.440         63.33	     8.718
  14.460         73.33	     9.381
  14.480         66.67	     8.944
  14.500         67.50	     9.000
  14.520         72.50	     9.327
  14.540         70.00	     9.165
  14.560         74.17	     9.434
  14.580         65.83	     8.888
  14.600         63.33	     8.718
  14.620         75.83	     9.539
  14.640         61.67	     8.602
  14.660         56.67	     8.246
  14.680         58.33	     8.367
  14.700         65.00	     8.832
  14.720         43.33	     7.211
  14.740         55.00	     8.124
  14.760         65.83	     8.888
  14.780         61.67	     8.602
  14.800         67.50	     9.000
  14.820         64.17	     8.775
  14.840         61.67	     8.602
  14.860         63.33	     8.718
  14.880         60.83	     8.544
  14.900         55.00	     8.124
  14.920         65.00	     8.832
  14.940         64.17	     8.775
  14.960         53.33	     8.000
  14.980         64.17	     8.775
  15.000         70.00	     9.165
  15.020         60.00	     8.485
  15.040         74.17	     9.434
  15.060         77.50	     9.644
  15.080         71.67	     9.274
  15.100         63.33	     8.718
  15.120         65.00	     8.832
  15.140         55.83	     8.185
  15.160         68.33	     9.055
  15.180         61.67	     8.602
  15.200         80.00	     9.798
  15.220         62.50	     8.660
  15.240         69.17	     9.110
  15.260         69.17	     9.110
  15.280         55.00	     8.124
  15.300         67.50	     9.000
  15.320         65.83	     8.888
  15.340         58.33	     8.367
  15.360         55.83	     8.185
  15.380         57.50	     8.307
  15.400         63.33	     8.718
  15.420         65.00	     8.832
  15.440         59.17	     8.426
  15.460         50.00	     7.746
  15.480         54.17	     8.062
  15.500         63.33	     8.718
  15.520         70.83	     9.220
  15.540         55.83	     8.185
  15.560         55.83	     8.185
  15.580         50.83	     7.810
  15.600         54.17	     8.062
  15.620         51.67	     7.874
  15.640         61.67	     8.602
  15.660         54.17	     8.062
  15.680         71.67	     9.274
  15.700         60.83	     8.544
  15.720         65.00	     8.832
  15.740         55.00	     8.124
  15.760         50.00	     7.746
  15.780         49.17	     7.681
  15.800         60.83	     8.544
  15.820         65.00	     8.832
  15.840         68.33	     9.055
  15.860         74.17	     9.434
  15.880         60.00	     8.485
  15.900         60.00	     8.485
  15.920         65.83	     8.888
  15.940         70.83	     9.220
  15.960         61.67	     8.602
  15.980         59.17	     8.426
  16.000         53.33	     8.000
  16.020         61.67	     8.602
  16.040         63.33	     8.718
  16.060         66.67	     8.944
  16.080         70.00	     9.165
  16.100         52.50	     7.937
  16.120         52.50	     7.937
  16.140         64.17	     8.775
  16.160         65.00	     8.832
  16.180         73.33	     9.381
  16.200         55.00	     8.124
  16.220         57.50	     8.307
  16.240         58.33	     8.367
  16.260         67.50	     9.000
  16.280         54.17	     8.062
  16.300         62.50	     8.660
  16.320         53.33	     8.000
  16.340         62.50	     8.660
  16.360         56.67	     8.246
  16.380         52.50	     7.937
  16.400         50.00	     7.746
  16.420         47.50	     7.550
  16.440         50.83	     7.810
  16.460         53.33	     8.000
  16.480         59.17	     8.426
  16.500         63.33	     8.718
  16.520         60.00	     8.485
  16.540         57.50	     8.307
  16.560         45.00	     7.348
  16.580         55.83	     8.185
  16.600         48.33	     7.616
  16.620         50.00	     7.746
  16.640         43.33	     7.211
  16.660         63.33	     8.718
  16.680         55.83	     8.185
  16.700         59.17	     8.426
  16.720         67.50	     9.000
  16.740         62.50	     8.660
  16.760         82.50	     9.950
  16.780         60.00	     8.485
  16.800         60.00	     8.485
  16.820         48.33	     7.616
  16.840         59.17	     8.426
  16.860         55.00	     8.124
  16.880         56.67	     8.246
  16.900         60.83	     8.544
  16.920         59.17	     8.426
  16.940         58.33	     8.367
  16.960         56.67	     8.246
  16.980         65.00	     8.832
  17.000         60.83	     8.544
  17.020         68.33	     9.055
  17.040         58.33	     8.367
  17.060         69.17	     9.110
  17.080         69.17	     9.110
  17.100         67.50	     9.000
  17.120         64.17	     8.775
  17.140         56.67	     8.246
  17.160         73.33	     9.381
  17.180         79.17	     9.747
  17.200         48.33	     7.616
  17.220         69.17	     9.110
  17.240         64.17	     8.775
  17.260         63.33	     8.718
  17.280         63.33	     8.718
  17.300         75.83	     9.539
  17.320         68.33	     9.055
  17.340         64.17	     8.775
  17.360         71.67	     9.274
  17.380         64.17	     8.775
  17.400         55.00	     8.124
  17.420         63.33	     8.718
  17.440         61.67	     8.602
  17.460         70.00	     9.165
  17.480         84.17	    10.050
  17.500         69.17	     9.110
  17.520         84.17	    10.050
  17.540         75.83	     9.539
  17.560         80.83	     9.849
  17.580         80.00	     9.798
  17.600         85.83	    10.149
  17.620         82.50	     9.950
  17.640         89.17	    10.344
  17.660         91.67	    10.488
  17.680         89.17	    10.344
  17.700         84.17	    10.050
  17.720         91.67	    10.488
  17.740        108.33	    11.402
  17.760        131.67	    12.570
  17.780        163.33	    14.000
  17.800        197.50	    15.395
  17.820        252.50	    17.407
  17.840        287.50	    18.574
  17.860        336.67	    20.100
  17.880        345.00	    20.347
  17.900        365.00	    20.928
  17.920        401.67	    21.954
  17.940        414.17	    22.293
  17.960        379.17	    21.331
  17.980        333.33	    20.000
  18.000        293.33	    18.762
  18.020        237.50	    16.882
  18.040        214.17	    16.031
  18.060        148.33	    13.342
  18.080        121.67	    12.083
  18.100        108.33	    11.402
  18.120        100.83	    11.000
  18.140         99.17	    10.909
  18.160         90.83	    10.440
  18.180         89.17	    10.344
  18.200         93.33	    10.583
  18.220         87.50	    10.247
  18.240         92.50	    10.536
  18.260         98.33	    10.863
  18.280         81.67	     9.899
  18.300         76.67	     9.592
  18.320         88.33	    10.296
  18.340         83.33	    10.000
  18.360         92.50	    10.536
  18.380         80.00	     9.798
  18.400         95.00	    10.677
  18.420         96.67	    10.770
  18.440        110.00	    11.489
  18.460         91.67	    10.488
  18.480        111.67	    11.576
  18.500        120.00	    12.000
  18.520        122.50	    12.124
  18.540        140.83	    13.000
  18.560        143.33	    13.115
  18.580        183.33	    14.832
  18.600        182.50	    14.799
  18.620        188.33	    15.033
  18.640        218.33	    16.186
  18.660        210.83	    15.906
  18.680        222.50	    16.340
  18.700        210.00	    15.875
  18.720        237.50	    16.882
  18.740        276.67	    18.221
  18.760        305.83	    19.157
  18.780        334.17	    20.025
  18.800        403.33	    22.000
  18.820        462.50	    23.558
  18.840        500.00	    24.495
  18.860        495.00	    24.372
  18.880        516.67	    24.900
  18.900        471.67	    23.791
  18.920        520.83	    25.000
  18.940        473.33	    23.833
  18.960        380.83	    21.378
  18.980        330.83	    19.925
  19.000        241.67	    17.029
  19.020        198.33	    15.427
  19.040        163.33	    14.000
  19.060        151.67	    13.491
  19.080        123.33	    12.166
  19.100        120.00	    12.000
  19.120        115.83	    11.790
  19.140        106.67	    11.314
  19.160        100.83	    11.000
  19.180         77.50	     9.644
  19.200         90.83	    10.440
  19.220         82.50	     9.950
  19.240         71.67	     9.274
  19.260         77.50	     9.644
  19.280         90.00	    10.392
  19.300         64.17	     8.775
  19.320         69.17	     9.110
  19.340         77.50	     9.644
  19.360         83.33	    10.000
  19.380         61.67	     8.602
  19.400         76.67	     9.592
  19.420         71.67	     9.274
  19.440         62.50	     8.660
  19.460         76.67	     9.592
  19.480         74.17	     9.434
  19.500         62.50	     8.660
  19.520         65.83	     8.888
  19.540         71.67	     9.274
  19.560         65.83	     8.888
  19.580         72.50	     9.327
  19.600         70.83	     9.220
  19.620         67.50	     9.000
  19.640         68.33	     9.055
  19.660         65.83	     8.888
  19.680         69.17	     9.110
  19.700         66.67	     8.944
  19.720         86.67	    10.198
  19.740         85.00	    10.100
  19.760         99.17	    10.909
  19.780         87.50	    10.247
  19.800         80.83	     9.849
  19.820         74.17	     9.434
  19.840         90.00	    10.392
  19.860         81.67	     9.899
  19.880         74.17	     9.434
  19.900         78.33	     9.695
  19.920         83.33	    10.000
  19.940         85.00	    10.100
  19.960         72.50	     9.327
  19.980         75.00	     9.487
  20.000         68.33	     9.055
  20.020         67.50	     9.000
  20.040         79.17	     9.747
  20.060         67.50	     9.000
  20.080         81.67	     9.899
  20.100         68.33	     9.055
  20.120         70.83	     9.220
  20.140         89.17	    10.344
  20.160         65.83	     8.888
  20.180         79.17	     9.747
  20.200         70.00	     9.165
  20.220         65.83	     8.888
  20.240         62.50	     8.660
  20.260         55.83	     8.185
  20.280         54.17	     8.062
  20.300         58.33	     8.367
  20.320         60.00	     8.485
  20.340         65.83	     8.888
  20.360         65.00	     8.832
  20.380         77.50	     9.644
  20.400         52.50	     7.937
  20.420         70.00	     9.165
  20.440         57.50	     8.307
  20.460         62.50	     8.660
  20.480         65.83	     8.888
  20.500         55.83	     8.185
  20.520         58.33	     8.367
  20.540         50.83	     7.810
  20.560         65.00	     8.832
  20.580         58.33	     8.367
  20.600         69.17	     9.110
  20.620         55.83	     8.185
  20.640         49.17	     7.681
  20.660         75.00	     9.487
  20.680         52.50	     7.937
  20.700         59.17	     8.426
  20.720         70.00	     9.165
  20.740         64.17	     8.775
  20.760         59.17	     8.426
  20.780         56.67	     8.246
  20.800         64.17	     8.775
  20.820         72.50	     9.327
  20.840         96.67	    10.770
  20.860         91.67	    10.488
  20.880        105.83	    11.269
  20.900        105.83	    11.269
  20.920        139.17	    12.923
  20.940        158.33	    13.784
  20.960        145.00	    13.191
  20.980        158.33	    13.784
  21.000        171.67	    14.353
  21.020        156.67	    13.711
  21.040        136.67	    12.806
  21.060        128.33	    12.410
  21.080        100.83	    11.000
  21.100        101.67	    11.045
  21.120         88.33	    10.296
  21.140        108.33	    11.402
  21.160        110.00	    11.489
  21.180         89.17	    10.344
  21.200         75.83	     9.539
  21.220         85.83	    10.149
  21.240         85.83	    10.149
  21.260         53.33	     8.000
  21.280         80.83	     9.849
  21.300         79.17	     9.747
  21.320         75.00	     9.487
  21.340         56.67	     8.246
  21.360         58.33	     8.367
  21.380         59.17	     8.426
  21.400         65.00	     8.832
  21.420         59.17	     8.426
  21.440         55.00	     8.124
  21.460         59.17	     8.426
  21.480         48.33	     7.616
  21.500         54.17	     8.062
  21.520         73.33	     9.381
  21.540         60.00	     8.485
  21.560         56.67	     8.246
  21.580         55.00	     8.124
  21.600         65.00	     8.832
  21.620         44.17	     7.280
  21.640         58.33	     8.367
  21.660         65.83	     8.888
  21.680         58.33	     8.367
  21.700         51.67	     7.874
  21.720         73.33	     9.381
  21.740         60.00	     8.485
  21.760         52.50	     7.937
  21.780         45.00	     7.348
  21.800         51.67	     7.874
  21.820         69.17	     9.110
  21.840         66.67	     8.944
  21.860         75.83	     9.539
  21.880         57.50	     8.307
  21.900         57.50	     8.307
  21.920         51.67	     7.874
  21.940         63.33	     8.718
  21.960         52.50	     7.937
  21.980         68.33	     9.055
  22.000         78.33	     9.695
  22.020         81.67	     9.899
  22.040         98.33	    10.863
  22.060        116.67	    11.832
  22.080        145.00	    13.191
  22.100        150.83	    13.454
  22.120        149.17	    13.379
  22.140        158.33	    13.784
  22.160        174.17	    14.457
  22.180        171.67	    14.353
  22.200        143.33	    13.115
  22.220        148.33	    13.342
  22.240        140.83	    13.000
  22.260        110.00	    11.489
  22.280         95.83	    10.724
  22.300         98.33	    10.863
  22.320         80.00	     9.798
  22.340         72.50	     9.327
  22.360         91.67	    10.488
  22.380         62.50	     8.660
  22.400         65.00	     8.832
  22.420         70.83	     9.220
  22.440         75.83	     9.539
  22.460         73.33	     9.381
  22.480         60.00	     8.485
  22.500         77.50	     9.644
  22.520         59.17	     8.426
  22.540         72.50	     9.327
  22.560         84.17	    10.050
  22.580         75.83	     9.539
  22.600         71.67	     9.274
  22.620         62.50	     8.660
  22.640         80.83	     9.849
  22.660         75.00	     9.487
  22.680         70.00	     9.165
  22.700         71.67	     9.274
  22.720         65.83	     8.888
  22.740         73.33	     9.381
  22.760         76.67	     9.592
  22.780         61.67	     8.602
  22.800         60.83	     8.544
  22.820         59.17	     8.426
  22.840         57.50	     8.307
  22.860         65.83	     8.888
  22.880         74.17	     9.434
  22.900         69.17	     9.110
  22.920         70.83	     9.220
  22.940         68.33	     9.055
  22.960         92.50	    10.536
  22.980         95.00	    10.677
  23.000         81.67	     9.899
  23.020         83.33	    10.000
  23.040         83.33	    10.000
  23.060         81.67	     9.899
  23.080         79.17	     9.747
  23.100         85.00	    10.100
  23.120         98.33	    10.863
  23.140         96.67	    10.770
  23.160         90.00	    10.392
  23.180         95.00	    10.677
  23.200         75.83	     9.539
  23.220         93.33	    10.583
  23.240         78.33	     9.695
  23.260         73.33	     9.381
  23.280         75.00	     9.487
  23.300         70.00	     9.165
  23.320         79.17	     9.747
  23.340         70.00	     9.165
  23.360         72.50	     9.327
  23.380         70.83	     9.220
  23.400         61.67	     8.602
  23.420         75.83	     9.539
  23.440         75.83	     9.539
  23.460         84.17	    10.050
  23.480         74.17	     9.434
  23.500         69.17	     9.110
  23.520         90.00	    10.392
  23.540        113.33	    11.662
  23.560        125.00	    12.247
  23.580        153.33	    13.565
  23.600        160.83	    13.892
  23.620        163.33	    14.000
  23.640        172.50	    14.387
  23.660        168.33	    14.213
  23.680        181.67	    14.765
  23.700        176.67	    14.560
  23.720        145.83	    13.229
  23.740        154.17	    13.601
  23.760        140.00	    12.961
  23.780        132.50	    12.610
  23.800         99.17	    10.909
  23.820         88.33	    10.296
  23.840        105.83	    11.269
  23.860         96.67	    10.770
  23.880        105.00	    11.225
  23.900         88.33	    10.296
  23.920         91.67	    10.488
  23.940         95.83	    10.724
  23.960         77.50	     9.644
  23.980         96.67	    10.770
  24.000        103.33	    11.136
  24.020         75.83	     9.539
  24.040         89.17	    10.344
  24.060         95.00	    10.677
  24.080        102.50	    11.091
  24.100        105.83	    11.269
  24.120         90.83	    10.440
  24.140        109.17	    11.446
  24.160        102.50	    11.091
  24.180        104.17	    11.180
  24.200        111.67	    11.576
  24.220        106.67	    11.314
  24.240        114.17	    11.705
  24.260        110.83	    11.533
  24.280        153.33	    13.565
  24.300        144.17	    13.153
  24.320        142.50	    13.077
  24.340        161.67	    13.928
  24.360        145.00	    13.191
  24.380        172.50	    14.387
  24.400        168.33	    14.213
  24.420        175.83	    14.526
  24.440        178.33	    14.629
  24.460        155.83	    13.675
  24.480        186.67	    14.967
  24.500        184.17	    14.866
  24.520        214.17	    16.031
  24.540        260.00	    17.664
  24.560        319.17	    19.570
  24.580        415.00	    22.316
  24.600        519.17	    24.960
  24.620        630.83	    27.514
  24.640        773.33	    30.463
  24.660        915.83	    33.151
  24.680       1111.67	    36.524
  24.700       1164.17	    37.376
  24.720       1210.00	    38.105
  24.740       1145.00	    37.068
  24.760       1115.00	    36.579
  24.780       1110.83	    36.510
  24.800        968.33	    34.088
  24.820        830.00	    31.559
  24.840        722.50	    29.445
  24.860        617.50	    27.221
  24.880        542.50	    25.515
  24.900        510.00	    24.739
  24.920        450.00	    23.238
  24.940        425.00	    22.583
  24.960        409.17	    22.159
  24.980        354.17	    20.616
  25.000        406.67	    22.091
  25.020        385.83	    21.517
  25.040        392.50	    21.703
  25.060        377.50	    21.284
  25.080        414.17	    22.293
  25.100        423.33	    22.539
  25.120        482.50	    24.062
  25.140        533.33	    25.298
  25.160        682.50	    28.618
  25.180        727.50	    29.547
  25.200        750.83	    30.017
  25.220        885.00	    32.588
  25.240        948.33	    33.734
  25.260        908.33	    33.015
  25.280        896.67	    32.802
  25.300        853.33	    32.000
  25.320        681.67	    28.601
  25.340        545.83	    25.593
  25.360        446.67	    23.152
  25.380        366.67	    20.976
  25.400        310.83	    19.313
  25.420        257.50	    17.578
  25.440        235.00	    16.793
  25.460        223.33	    16.371
  25.480        231.67	    16.673
  25.500        231.67	    16.673
  25.520        205.83	    15.716
  25.540        220.00	    16.248
  25.560        200.83	    15.524
  25.580        211.67	    15.937
  25.600        185.00	    14.900
  25.620        180.83	    14.731
  25.640        196.67	    15.362
  25.660        179.17	    14.663
  25.680        175.00	    14.491
  25.700        192.50	    15.199
  25.720        158.33	    13.784
  25.740        180.83	    14.731
  25.760        155.00	    13.638
  25.780        182.50	    14.799
  25.800        162.50	    13.964
  25.820        149.17	    13.379
  25.840        163.33	    14.000
  25.860        140.83	    13.000
  25.880        121.67	    12.083
  25.900        132.50	    12.610
  25.920        120.83	    12.042
  25.940        105.83	    11.269
  25.960         99.17	    10.909
  25.980        108.33	    11.402
  26.000        119.17	    11.958
  26.020        125.83	    12.288
  26.040        124.17	    12.207
  26.060        120.00	    12.000
  26.080        115.00	    11.747
  26.100        118.33	    11.916
  26.120        121.67	    12.083
  26.140        114.17	    11.705
  26.160        129.17	    12.450
  26.180        110.00	    11.489
  26.200        112.50	    11.619
  26.220        129.17	    12.450
  26.240        136.67	    12.806
  26.260        120.83	    12.042
  26.280        135.00	    12.728
  26.300        160.83	    13.892
  26.320        179.17	    14.663
  26.340        170.00	    14.283
  26.360        172.50	    14.387
  26.380        181.67	    14.765
  26.400        209.17	    15.843
  26.420        206.67	    15.748
  26.440        215.83	    16.093
  26.460        254.17	    17.464
  26.480        231.67	    16.673
  26.500        261.67	    17.720
  26.520        268.33	    17.944
  26.540        305.83	    19.157
  26.560        295.00	    18.815
  26.580        277.50	    18.248
  26.600        320.00	    19.596
  26.620        331.67	    19.950
  26.640        422.50	    22.517
  26.660        500.83	    24.515
  26.680        570.83	    26.173
  26.700        626.67	    27.423
  26.720        652.50	    27.982
  26.740        753.33	    30.067
  26.760        790.83	    30.806
  26.780        785.83	    30.708
  26.800        695.83	    28.896
  26.820        714.17	    29.275
  26.840        635.00	    27.604
  26.860        692.50	    28.827
  26.880        727.50	    29.547
  26.900        718.33	    29.360
  26.920        776.67	    30.529
  26.940        837.50	    31.702
  26.960        859.17	    32.109
  26.980        894.17	    32.757
  27.000        818.33	    31.337
  27.020        759.17	    30.183
  27.040        735.00	    29.698
  27.060        604.17	    26.926
  27.080        470.83	    23.770
  27.100        369.17	    21.048
  27.120        302.50	    19.053
  27.140        242.50	    17.059
  27.160        219.17	    16.217
  27.180        181.67	    14.765
  27.200        168.33	    14.213
  27.220        166.67	    14.142
  27.240        158.33	    13.784
  27.260        150.00	    13.416
  27.280        126.67	    12.329
  27.300        156.67	    13.711
  27.320        140.00	    12.961
  27.340        148.33	    13.342
  27.360        171.67	    14.353
  27.380        180.00	    14.697
  27.400        162.50	    13.964
  27.420        185.00	    14.900
  27.440        186.67	    14.967
  27.460        200.00	    15.492
  27.480        193.33	    15.232
  27.500        219.17	    16.217
  27.520        258.33	    17.607
  27.540        383.33	    21.448
  27.560        706.67	    29.120
  27.580       1300.00	    39.497
  27.600       1499.17	    42.415
  27.620       1057.50	    35.623
  27.640        805.00	    31.081
  27.660        946.67	    33.705
  27.680        778.33	    30.561
  27.700        353.33	    20.591
  27.720        202.50	    15.588
  27.740        195.83	    15.330
  27.760        181.67	    14.765
  27.780        193.33	    15.232
  27.800        228.33	    16.553
  27.820        229.17	    16.583
  27.840        216.67	    16.125
  27.860        289.17	    18.628
  27.880        320.00	    19.596
  27.900        306.67	    19.183
  27.920        333.33	    20.000
  27.940        381.67	    21.401
  27.960        385.83	    21.517
  27.980        410.83	    22.204
  28.000        450.83	    23.259
  28.020        478.33	    23.958
  28.040        449.17	    23.216
  28.060        427.50	    22.650
  28.080        367.50	    21.000
  28.100        343.33	    20.298
  28.120        277.50	    18.248
  28.140        283.33	    18.439
  28.160        217.50	    16.155
  28.180        215.83	    16.093
  28.200        183.33	    14.832
  28.220        149.17	    13.379
  28.240        165.83	    14.107
  28.260        165.83	    14.107
  28.280        151.67	    13.491
  28.300        128.33	    12.410
  28.320        145.00	    13.191
  28.340        126.67	    12.329
  28.360        119.17	    11.958
  28.380        110.83	    11.533
  28.400        116.67	    11.832
  28.420        109.17	    11.446
  28.440        115.00	    11.747
  28.460        121.67	    12.083
  28.480        143.33	    13.115
  28.500        118.33	    11.916
  28.520        113.33	    11.662
  28.540        128.33	    12.410
  28.560        139.17	    12.923
  28.580        167.50	    14.177
  28.600        147.50	    13.304
  28.620        188.33	    15.033
  28.640        203.33	    15.620
  28.660        231.67	    16.673
  28.680        283.33	    18.439
  28.700        280.83	    18.358
  28.720        304.17	    19.105
  28.740        302.50	    19.053
  28.760        285.83	    18.520
  28.780        254.17	    17.464
  28.800        266.67	    17.889
  28.820        222.50	    16.340
  28.840        223.33	    16.371
  28.860        185.00	    14.900
  28.880        160.00	    13.856
  28.900        124.17	    12.207
  28.920        102.50	    11.091
  28.940         96.67	    10.770
  28.960         90.83	    10.440
  28.980         86.67	    10.198
  29.000         89.17	    10.344
  29.020         70.00	     9.165
  29.040         73.33	     9.381
  29.060         73.33	     9.381
  29.080         59.17	     8.426
  29.100         62.50	     8.660
  29.120         61.67	     8.602
  29.140         61.67	     8.602
  29.160         54.17	     8.062
  29.180         55.83	     8.185
  29.200         60.83	     8.544
  29.220         67.50	     9.000
  29.240         58.33	     8.367
  29.260         70.00	     9.165
  29.280         50.00	     7.746
  29.300         55.83	     8.185
  29.320         58.33	     8.367
  29.340         64.17	     8.775
  29.360         55.83	     8.185
  29.380         57.50	     8.307
  29.400         49.17	     7.681
  29.420         55.83	     8.185
  29.440         64.17	     8.775
  29.460         52.50	     7.937
  29.480         59.17	     8.426
  29.500         56.67	     8.246
  29.520         61.67	     8.602
  29.540         63.33	     8.718
  29.560         56.67	     8.246
  29.580         55.00	     8.124
  29.600         64.17	     8.775
  29.620         55.83	     8.185
  29.640         51.67	     7.874
  29.660         59.17	     8.426
  29.680         60.83	     8.544
  29.700         55.00	     8.124
  29.720         52.50	     7.937
  29.740         65.83	     8.888
  29.760         59.17	     8.426
  29.780         57.50	     8.307
  29.800         64.17	     8.775
  29.820         74.17	     9.434
  29.840         83.33	    10.000
  29.860         67.50	     9.000
  29.880        102.50	    11.091
  29.900         94.17	    10.630
  29.920        115.00	    11.747
  29.940        105.00	    11.225
  29.960         94.17	    10.630
  29.980        121.67	    12.083
  30.000        109.17	    11.446
  30.020        100.83	    11.000
  30.040        100.83	    11.000
  30.060         91.67	    10.488
  30.080         91.67	    10.488
  30.100         98.33	    10.863
  30.120         95.00	    10.677
  30.140         90.00	    10.392
  30.160         93.33	    10.583
  30.180         82.50	     9.950
  30.200         95.83	    10.724
  30.220         99.17	    10.909
  30.240         86.67	    10.198
  30.260         87.50	    10.247
  30.280         75.83	     9.539
  30.300        101.67	    11.045
  30.320         95.83	    10.724
  30.340         83.33	    10.000
  30.360         81.67	     9.899
  30.380         95.00	    10.677
  30.400         75.83	     9.539
  30.420         88.33	    10.296
  30.440         91.67	    10.488
  30.460        100.83	    11.000
  30.480         88.33	    10.296
  30.500        100.83	    11.000
  30.520         98.33	    10.863
  30.540         94.17	    10.630
  30.560        109.17	    11.446
  30.580        117.50	    11.874
  30.600         97.50	    10.817
  30.620         85.83	    10.149
  30.640         80.00	     9.798
  30.660         86.67	    10.198
  30.680         69.17	     9.110
  30.700         52.50	     7.937
  30.720         70.83	     9.220
  30.740         67.50	     9.000
  30.760         62.50	     8.660
  30.780         62.50	     8.660
  30.800         58.33	     8.367
  30.820         57.50	     8.307
  30.840         68.33	     9.055
  30.860         71.67	     9.274
  30.880         80.00	     9.798
  30.900         84.17	    10.050
  30.920         75.00	     9.487
  30.940         90.83	    10.440
  30.960         72.50	     9.327
  30.980         85.00	    10.100
  31.000         81.67	     9.899
  31.020         78.33	     9.695
  31.040         78.33	     9.695
  31.060         77.50	     9.644
  31.080         85.83	    10.149
  31.100         90.00	    10.392
  31.120         77.50	     9.644
  31.140         90.83	    10.440
  31.160         90.00	    10.392
  31.180         76.67	     9.592
  31.200         93.33	    10.583
  31.220        103.33	    11.136
  31.240        103.33	    11.136
  31.260        118.33	    11.916
  31.280         94.17	    10.630
  31.300        126.67	    12.329
  31.320        126.67	    12.329
  31.340        154.17	    13.601
  31.360        135.83	    12.767
  31.380        130.83	    12.530
  31.400        132.50	    12.610
  31.420        117.50	    11.874
  31.440        133.33	    12.649
  31.460        113.33	    11.662
  31.480        116.67	    11.832
  31.500        125.83	    12.288
  31.520        116.67	    11.832
  31.540        115.00	    11.747
  31.560        132.50	    12.610
  31.580        137.50	    12.845
  31.600        152.50	    13.528
  31.620        175.00	    14.491
  31.640        170.83	    14.318
  31.660        176.67	    14.560
  31.680        195.00	    15.297
  31.700        170.83	    14.318
  31.720        167.50	    14.177
  31.740        144.17	    13.153
  31.760        135.00	    12.728
  31.780        128.33	    12.410
  31.800        112.50	    11.619
  31.820        101.67	    11.045
  31.840         82.50	     9.950
  31.860         75.83	     9.539
  31.880         63.33	     8.718
  31.900         70.83	     9.220
  31.920         63.33	     8.718
  31.940         68.33	     9.055
  31.960         63.33	     8.718
  31.980         75.00	     9.487
  32.000         66.67	     8.944
  32.020         80.83	     9.849
  32.040         84.17	    10.050
  32.060         82.50	     9.950
  32.080         74.17	     9.434
  32.100         80.00	     9.798
  32.120         73.33	     9.381
  32.140         83.33	    10.000
  32.160         88.33	    10.296
  32.180         76.67	     9.592
  32.200         75.83	     9.539
  32.220         75.00	     9.487
  32.240         99.17	    10.909
  32.260         75.83	     9.539
  32.280         78.33	     9.695
  32.300         81.67	     9.899
  32.320         80.00	     9.798
  32.340         85.00	    10.100
  32.360         77.50	     9.644
  32.380         63.33	     8.718
  32.400         59.17	     8.426
  32.420         67.50	     9.000
  32.440         60.00	     8.485
  32.460         68.33	     9.055
  32.480         42.50	     7.141
  32.500         42.50	     7.141
  32.520         36.67	     6.633
  32.540         56.67	     8.246
  32.560         45.00	     7.348
  32.580         45.00	     7.348
  32.600         42.50	     7.141
  32.620         38.33	     6.782
  32.640         31.67	     6.164
  32.660         47.50	     7.550
  32.680         30.83	     6.083
  32.700         43.33	     7.211
  32.720         45.83	     7.416
  32.740         35.00	     6.481
  32.760         45.00	     7.348
  32.780         33.33	     6.325
  32.800         46.67	     7.483
  32.820         45.00	     7.348
  32.840         50.00	     7.746
  32.860         49.17	     7.681
  32.880         56.67	     8.246
  32.900         50.83	     7.810
  32.920         40.83	     7.000
  32.940         40.00	     6.928
  32.960         49.17	     7.681
  32.980         43.33	     7.211
  33.000         45.83	     7.416
  33.020         57.50	     8.307
  33.040         50.00	     7.746
  33.060         53.33	     8.000
  33.080         60.00	     8.485
  33.100         63.33	     8.718
  33.120         50.83	     7.810
  33.140         59.17	     8.426
  33.160         69.17	     9.110
  33.180         63.33	     8.718
  33.200         68.33	     9.055
  33.220         57.50	     8.307
  33.240         66.67	     8.944
  33.260         70.83	     9.220
  33.280         63.33	     8.718
  33.300         64.17	     8.775
  33.320         48.33	     7.616
  33.340         67.50	     9.000
  33.360         45.83	     7.416
  33.380         34.17	     6.403
  33.400         39.17	     6.856
  33.420         45.83	     7.416
  33.440         34.17	     6.403
  33.460         43.33	     7.211
  33.480         44.17	     7.280
  33.500         55.83	     8.185
  33.520         58.33	     8.367
  33.540         61.67	     8.602
  33.560         65.00	     8.832
  33.580         57.50	     8.307
  33.600         53.33	     8.000
  33.620         55.00	     8.124
  33.640         43.33	     7.211
  33.660         40.83	     7.000
  33.680         54.17	     8.062
  33.700         48.33	     7.616
  33.720         39.17	     6.856
  33.740         28.33	     5.831
  33.760         47.50	     7.550
  33.780         42.50	     7.141
  33.800         36.67	     6.633
  33.820         57.50	     8.307
  33.840         42.50	     7.141
  33.860         44.17	     7.280
  33.880         40.83	     7.000
  33.900         45.00	     7.348
  33.920         60.83	     8.544
  33.940         45.00	     7.348
  33.960         46.67	     7.483
  33.980         45.83	     7.416
  34.000         42.50	     7.141
  34.020         47.50	     7.550
  34.040         50.83	     7.810
  34.060         50.00	     7.746
  34.080         66.67	     8.944
  34.100         52.50	     7.937
  34.120         52.50	     7.937
  34.140         40.83	     7.000
  34.160         48.33	     7.616
  34.180         49.17	     7.681
  34.200         44.17	     7.280
  34.220         46.67	     7.483
  34.240         40.83	     7.000
  34.260         66.67	     8.944
  34.280         52.50	     7.937
  34.300         47.50	     7.550
  34.320         48.33	     7.616
  34.340         46.67	     7.483
  34.360         60.00	     8.485
  34.380         60.00	     8.485
  34.400         72.50	     9.327
  34.420         68.33	     9.055
  34.440         76.67	     9.592
  34.460         76.67	     9.592
  34.480         71.67	     9.274
  34.500         50.83	     7.810
  34.520         75.00	     9.487
  34.540         60.83	     8.544
  34.560         56.67	     8.246
  34.580         66.67	     8.944
  34.600         70.00	     9.165
  34.620         82.50	     9.950
  34.640         92.50	    10.536
  34.660         75.83	     9.539
  34.680         92.50	    10.536
  34.700         69.17	     9.110
  34.720         80.00	     9.798
  34.740         80.00	     9.798
  34.760         75.83	     9.539
  34.780         72.50	     9.327
  34.800         74.17	     9.434
  34.820         55.00	     8.124
  34.840         64.17	     8.775
  34.860         56.67	     8.246
  34.880         63.33	     8.718
  34.900         53.33	     8.000
  34.920         70.00	     9.165
  34.940         54.17	     8.062
  34.960         80.83	     9.849
  34.980         66.67	     8.944
  35.000         86.67	    10.198
  35.020         81.67	     9.899
  35.040         73.33	     9.381
  35.060         72.50	     9.327
  35.080         76.67	     9.592
  35.100         99.17	    10.909
  35.120         91.67	    10.488
  35.140         80.83	     9.849
  35.160         83.33	    10.000
  35.180         85.00	    10.100
  35.200         93.33	    10.583
  35.220         90.83	    10.440
  35.240         80.00	     9.798
  35.260         73.33	     9.381
  35.280         75.83	     9.539
  35.300         71.67	     9.274
  35.320         44.17	     7.280
  35.340         58.33	     8.367
  35.360         71.67	     9.274
  35.380         72.50	     9.327
  35.400         94.17	    10.630
  35.420         81.67	     9.899
  35.440         86.67	    10.198
  35.460         72.50	     9.327
  35.480         70.00	     9.165
  35.500         87.50	    10.247
  35.520         90.83	    10.440
  35.540         95.83	    10.724
  35.560         79.17	     9.747
  35.580         86.67	    10.198
  35.600        104.17	    11.180
  35.620        108.33	    11.402
  35.640         96.67	    10.770
  35.660        100.00	    10.954
  35.680         99.17	    10.909
  35.700        105.83	    11.269
  35.720        103.33	    11.136
  35.740        110.83	    11.533
  35.760        100.83	    11.000
  35.780         96.67	    10.770
  35.800         84.17	    10.050
  35.820         79.17	     9.747
  35.840         72.50	     9.327
  35.860         78.33	     9.695
  35.880         58.33	     8.367
  35.900         63.33	     8.718
  35.920         66.67	     8.944
  35.940         80.83	     9.849
  35.960         77.50	     9.644
  35.980         70.00	     9.165
  36.000         73.33	     9.381
  36.020         73.33	     9.381
  36.040         79.17	     9.747
  36.060         75.00	     9.487
  36.080        105.00	    11.225
  36.100         90.83	    10.440
  36.120         78.33	     9.695
  36.140         85.00	    10.100
  36.160        116.67	    11.832
  36.180         92.50	    10.536
  36.200        100.83	    11.000
  36.220         93.33	    10.583
  36.240        102.50	    11.091
  36.260         99.17	    10.909
  36.280         71.67	     9.274
  36.300         87.50	    10.247
  36.320         70.00	     9.165
  36.340         77.50	     9.644
  36.360         70.00	     9.165
  36.380         65.00	     8.832
  36.400         59.17	     8.426
  36.420         65.83	     8.888
  36.440         72.50	     9.327
  36.460         59.17	     8.426
  36.480         73.33	     9.381
  36.500         85.00	    10.100
  36.520         80.83	     9.849
  36.540         93.33	    10.583
  36.560         93.33	    10.583
  36.580        110.83	    11.533
  36.600        110.83	    11.533
  36.620        102.50	    11.091
  36.640         98.33	    10.863
  36.660         95.00	    10.677
  36.680        107.50	    11.358
  36.700        109.17	    11.446
  36.720         79.17	     9.747
  36.740         80.83	     9.849
  36.760         92.50	    10.536
  36.780         81.67	     9.899
  36.800         76.67	     9.592
  36.820         68.33	     9.055
  36.840         68.33	     9.055
  36.860         52.50	     7.937
  36.880         67.50	     9.000
  36.900         85.83	    10.149
  36.920         55.00	     8.124
  36.940         64.17	     8.775
  36.960         53.33	     8.000
  36.980         43.33	     7.211
  37.000         58.33	     8.367
  37.020         58.33	     8.367
  37.040         55.83	     8.185
  37.060         52.50	     7.937
  37.080         59.17	     8.426
  37.100         65.00	     8.832
  37.120         59.17	     8.426
  37.140         57.50	     8.307
  37.160         60.00	     8.485
  37.180         75.83	     9.539
  37.200         80.83	     9.849
  37.220         89.17	    10.344
  37.240         92.50	    10.536
  37.260        105.00	    11.225
  37.280         96.67	    10.770
  37.300         95.00	    10.677
  37.320        108.33	    11.402
  37.340         98.33	    10.863
  37.360         87.50	    10.247
  37.380         79.17	     9.747
  37.400         98.33	    10.863
  37.420         83.33	    10.000
  37.440         83.33	    10.000
  37.460         84.17	    10.050
  37.480         84.17	    10.050
  37.500         86.67	    10.198
  37.520         78.33	     9.695
  37.540         76.67	     9.592
  37.560         60.83	     8.544
  37.580         76.67	     9.592
  37.600         80.83	     9.849
  37.620         63.33	     8.718
  37.640         55.00	     8.124
  37.660         65.83	     8.888
  37.680         76.67	     9.592
  37.700         79.17	     9.747
  37.720         87.50	    10.247
  37.740         80.83	     9.849
  37.760         75.83	     9.539
  37.780         67.50	     9.000
  37.800         80.83	     9.849
  37.820         76.67	     9.592
  37.840         80.83	     9.849
  37.860         70.83	     9.220
  37.880         91.67	    10.488
  37.900         76.67	     9.592
  37.920         92.50	    10.536
  37.940        127.50	    12.369
  37.960        114.17	    11.705
  37.980        162.50	    13.964
  38.000        165.83	    14.107
  38.020        195.83	    15.330
  38.040        196.67	    15.362
  38.060        212.50	    15.969
  38.080        285.83	    18.520
  38.100        382.50	    21.424
  38.120        618.33	    27.240
  38.140       1127.50	    36.783
  38.160       1753.33	    45.869
  38.180       2231.67	    51.749
  38.200       2658.33	    56.480
  38.220       2745.83	    57.402
  38.240       2759.17	    57.541
  38.260       2463.33	    54.369
  38.280       2060.83	    49.729
  38.300       1670.83	    44.777
  38.320       1432.50	    41.461
  38.340       1270.83	    39.051
  38.360        914.17	    33.121
  38.380        576.67	    26.306
  38.400        345.00	    20.347
  38.420        233.33	    16.733
  38.440        177.50	    14.595
  38.460        146.67	    13.266
  38.480        112.50	    11.619
  38.500        130.00	    12.490
  38.520        101.67	    11.045
  38.540         79.17	     9.747
  38.560         81.67	     9.899
  38.580         81.67	     9.899
  38.600         75.83	     9.539
  38.620         71.67	     9.274
  38.640         86.67	    10.198
  38.660         59.17	     8.426
  38.680         69.17	     9.110
  38.700         63.33	     8.718
  38.720         64.17	     8.775
  38.740         70.83	     9.220
  38.760         53.33	     8.000
  38.780         73.33	     9.381
  38.800         61.67	     8.602
  38.820         55.00	     8.124
  38.840         44.17	     7.280
  38.860         60.83	     8.544
  38.880         58.33	     8.367
  38.900         78.33	     9.695
  38.920         70.83	     9.220
  38.940         61.67	     8.602
  38.960         55.83	     8.185
  38.980         60.83	     8.544
  39.000         45.83	     7.416
  39.020         47.50	     7.550
  39.040         55.83	     8.185
  39.060         54.17	     8.062
  39.080         51.67	     7.874
  39.100         57.50	     8.307
  39.120         43.33	     7.211
  39.140         55.00	     8.124
  39.160         42.50	     7.141
  39.180         55.83	     8.185
  39.200         52.50	     7.937
  39.220         51.67	     7.874
  39.240         42.50	     7.141
  39.260         44.17	     7.280
  39.280         48.33	     7.616
  39.300         44.17	     7.280
  39.320         37.50	     6.708
  39.340         37.50	     6.708
  39.360         50.00	     7.746
  39.380         45.83	     7.416
  39.400         39.17	     6.856
  39.420         52.50	     7.937
  39.440         53.33	     8.000
  39.460         41.67	     7.071
  39.480         55.00	     8.124
  39.500         42.50	     7.141
  39.520         50.83	     7.810
  39.540         55.00	     8.124
  39.560         55.83	     8.185
  39.580         62.50	     8.660
  39.600         45.83	     7.416
  39.620         54.17	     8.062
  39.640         59.17	     8.426
  39.660         55.83	     8.185
  39.680         60.83	     8.544
  39.700         61.67	     8.602
  39.720         55.83	     8.185
  39.740         42.50	     7.141
  39.760         49.17	     7.681
  39.780         43.33	     7.211
  39.800         48.33	     7.616
  39.820         61.67	     8.602
  39.840         55.00	     8.124
  39.860         55.00	     8.124
  39.880         62.50	     8.660
  39.900         41.67	     7.071
  39.920         60.00	     8.485
  39.940         64.17	     8.775
  39.960         48.33	     7.616
  39.980         60.83	     8.544
  40.000         41.67	     7.071
  40.020         34.17	     6.403
  40.040         40.00	     6.928
  40.060         49.17	     7.681
  40.080         38.33	     6.782
  40.100         38.33	     6.782
  40.120         39.17	     6.856
  40.140         42.50	     7.141
  40.160         43.33	     7.211
  40.180         50.00	     7.746
  40.200         37.50	     6.708
  40.220         45.83	     7.416
  40.240         42.50	     7.141
  40.260         30.83	     6.083
  40.280         40.83	     7.000
  40.300         40.83	     7.000
  40.320         26.67	     5.657
  40.340         40.83	     7.000
  40.360         55.00	     8.124
  40.380         57.50	     8.307
  40.400         51.67	     7.874
  40.420         51.67	     7.874
  40.440         50.00	     7.746
  40.460         50.00	     7.746
  40.480         46.67	     7.483
  40.500         36.67	     6.633
  40.520         54.17	     8.062
  40.540         44.17	     7.280
  40.560         42.50	     7.141
  40.580         43.33	     7.211
  40.600         35.00	     6.481
  40.620         39.17	     6.856
  40.640         32.50	     6.245
  40.660         35.83	     6.557
  40.680         44.17	     7.280
  40.700         48.33	     7.616
  40.720         40.00	     6.928
  40.740         37.50	     6.708
  40.760         39.17	     6.856
  40.780         29.17	     5.916
  40.800         35.83	     6.557
  40.820         38.33	     6.782
  40.840         26.67	     5.657
  40.860         44.17	     7.280
  40.880         40.00	     6.928
  40.900         37.50	     6.708
  40.920         37.50	     6.708
  40.940         37.50	     6.708
  40.960         35.83	     6.557
  40.980         35.00	     6.481
  41.000         40.00	     6.928
  41.020         50.83	     7.810
  41.040         37.50	     6.708
  41.060         39.17	     6.856
  41.080         34.17	     6.403
  41.100         36.67	     6.633
  41.120         39.17	     6.856
  41.140         38.33	     6.782
  41.160         44.17	     7.280
  41.180         42.50	     7.141
  41.200         42.50	     7.141
  41.220         36.67	     6.633
  41.240         28.33	     5.831
  41.260         37.50	     6.708
  41.280         37.50	     6.708
  41.300         45.00	     7.348
  41.320         45.83	     7.416
  41.340         36.67	     6.633
  41.360         35.00	     6.481
  41.380         47.50	     7.550
  41.400         38.33	     6.782
  41.420         45.83	     7.416
  41.440         45.00	     7.348
  41.460         30.83	     6.083
  41.480         35.83	     6.557
  41.500         38.33	     6.782
  41.520         46.67	     7.483
  41.540         35.83	     6.557
  41.560         36.67	     6.633
  41.580         35.83	     6.557
  41.600         31.67	     6.164
  41.620         50.83	     7.810
  41.640         49.17	     7.681
  41.660         49.17	     7.681
  41.680         39.17	     6.856
  41.700         44.17	     7.280
  41.720         49.17	     7.681
  41.740         68.33	     9.055
  41.760         67.50	     9.000
  41.780         62.50	     8.660
  41.800         69.17	     9.110
  41.820         55.83	     8.185
  41.840         75.00	     9.487
  41.860         90.83	    10.440
  41.880         85.00	    10.100
  41.900         83.33	    10.000
  41.920         65.00	     8.832
  41.940         71.67	     9.274
  41.960         70.83	     9.220
  41.980         69.17	     9.110
  42.000         68.33	     9.055
  42.020         70.00	     9.165
  42.040         61.67	     8.602
  42.060         59.17	     8.426
  42.080         55.83	     8.185
  42.100         52.50	     7.937
  42.120         55.00	     8.124
  42.140         60.83	     8.544
  42.160         63.33	     8.718
  42.180         46.67	     7.483
  42.200         50.00	     7.746
  42.220         48.33	     7.616
  42.240         36.67	     6.633
  42.260         47.50	     7.550
  42.280         54.17	     8.062
  42.300         39.17	     6.856
  42.320         39.17	     6.856
  42.340         43.33	     7.211
  42.360         66.67	     8.944
  42.380         61.67	     8.602
  42.400         53.33	     8.000
  42.420         78.33	     9.695
  42.440         68.33	     9.055
  42.460         86.67	    10.198
  42.480         95.00	    10.677
  42.500         70.83	     9.220
  42.520         65.00	     8.832
  42.540         72.50	     9.327
  42.560         74.17	     9.434
  42.580         67.50	     9.000
  42.600         73.33	     9.381
  42.620         70.83	     9.220
  42.640         50.83	     7.810
  42.660         72.50	     9.327
  42.680         53.33	     8.000
  42.700         48.33	     7.616
  42.720         60.83	     8.544
  42.740         45.83	     7.416
  42.760         38.33	     6.782
  42.780         37.50	     6.708
  42.800         54.17	     8.062
  42.820         64.17	     8.775
  42.840         50.00	     7.746
  42.860         38.33	     6.782
  42.880         39.17	     6.856
  42.900         41.67	     7.071
  42.920         45.83	     7.416
  42.940         64.17	     8.775
  42.960         45.83	     7.416
  42.980         49.17	     7.681
  43.000         35.83	     6.557
  43.020         39.17	     6.856
  43.040         37.50	     6.708
  43.060         43.33	     7.211
  43.080         53.33	     8.000
  43.100         29.17	     5.916
  43.120         37.50	     6.708
  43.140         35.83	     6.557
  43.160         34.17	     6.403
  43.180         37.50	     6.708
  43.200         43.33	     7.211
  43.220         29.17	     5.916
  43.240         41.67	     7.071
  43.260         32.50	     6.245
  43.280         25.00	     5.477
  43.300         40.00	     6.928
  43.320         25.83	     5.568
  43.340         37.50	     6.708
  43.360         30.83	     6.083
  43.380         30.00	     6.000
  43.400         33.33	     6.325
  43.420         30.00	     6.000
  43.440         40.00	     6.928
  43.460         36.67	     6.633
  43.480         40.83	     7.000
  43.500         50.83	     7.810
  43.520         28.33	     5.831
  43.540         39.17	     6.856
  43.560         43.33	     7.211
  43.580         40.83	     7.000
  43.600         37.50	     6.708
  43.620         40.83	     7.000
  43.640         54.17	     8.062
  43.660         48.33	     7.616
  43.680         49.17	     7.681
  43.700         42.50	     7.141
  43.720         45.00	     7.348
  43.740         46.67	     7.483
  43.760         36.67	     6.633
  43.780         40.83	     7.000
  43.800         44.17	     7.280
  43.820         45.83	     7.416
  43.840         35.83	     6.557
  43.860         43.33	     7.211
  43.880         35.83	     6.557
  43.900         46.67	     7.483
  43.920         43.33	     7.211
  43.940         38.33	     6.782
  43.960         45.83	     7.416
  43.980         35.00	     6.481
  44.000         38.33	     6.782
  44.020         50.00	     7.746
  44.040         57.50	     8.307
  44.060         51.67	     7.874
  44.080         53.33	     8.000
  44.100         60.00	     8.485
  44.120         70.00	     9.165
  44.140         89.17	    10.344
  44.160        100.83	    11.000
  44.180        100.83	    11.000
  44.200        122.50	    12.124
  44.220        111.67	    11.576
  44.240        146.67	    13.266
  44.260        184.17	    14.866
  44.280        223.33	    16.371
  44.300        357.50	    20.712
  44.320        535.83	    25.357
  44.340        975.83	    34.220
  44.360       1301.67	    39.522
  44.380       1651.67	    44.520
  44.400       1727.50	    45.530
  44.420       1686.67	    44.989
  44.440       1340.83	    40.112
  44.460       1085.00	    36.083
  44.480       1011.67	    34.843
  44.500        974.17	    34.191
  44.520        892.50	    32.726
  44.540        803.33	    31.048
  44.560        614.17	    27.148
  44.580        340.83	    20.224
  44.600        235.00	    16.793
  44.620        177.50	    14.595
  44.640        140.00	    12.961
  44.660        113.33	    11.662
  44.680         97.50	    10.817
  44.700         99.17	    10.909
  44.720         79.17	     9.747
  44.740         74.17	     9.434
  44.760         75.00	     9.487
  44.780         79.17	     9.747
  44.800         62.50	     8.660
  44.820         60.00	     8.485
  44.840         92.50	    10.536
  44.860         78.33	     9.695
  44.880         75.00	     9.487
  44.900         82.50	     9.950
  44.920         72.50	     9.327
  44.940         82.50	     9.950
  44.960         72.50	     9.327
  44.980         83.33	    10.000
  45.000         72.50	     9.327
  45.020         79.17	     9.747
  45.040         73.33	     9.381
  45.060         92.50	    10.536
  45.080         80.00	     9.798
  45.100         77.50	     9.644
  45.120         61.67	     8.602
  45.140         52.50	     7.937
  45.160         68.33	     9.055
  45.180         75.00	     9.487
  45.200         67.50	     9.000
  45.220         74.17	     9.434
  45.240         60.00	     8.485
  45.260         71.67	     9.274
  45.280         55.83	     8.185
  45.300         62.50	     8.660
  45.320         60.00	     8.485
  45.340         81.67	     9.899
  45.360         66.67	     8.944
  45.380         82.50	     9.950
  45.400         77.50	     9.644
  45.420         96.67	    10.770
  45.440         93.33	    10.583
  45.460        109.17	    11.446
  45.480        133.33	    12.649
  45.500        129.17	    12.450
  45.520        154.17	    13.601
  45.540        185.83	    14.933
  45.560        191.67	    15.166
  45.580        197.50	    15.395
  45.600        202.50	    15.588
  45.620        217.50	    16.155
  45.640        205.00	    15.684
  45.660        240.00	    16.971
  45.680        215.83	    16.093
  45.700        237.50	    16.882
  45.720        226.67	    16.492
  45.740        225.00	    16.432
  45.760        215.83	    16.093
  45.780        176.67	    14.560
  45.800        152.50	    13.528
  45.820        140.00	    12.961
  45.840        125.00	    12.247
  45.860        115.83	    11.790
  45.880         91.67	    10.488
  45.900         87.50	    10.247
  45.920         73.33	     9.381
  45.940         70.83	     9.220
  45.960         67.50	     9.000
  45.980         53.33	     8.000
  46.000         45.83	     7.416
  46.020         49.17	     7.681
  46.040         50.00	     7.746
  46.060         53.33	     8.000
  46.080         42.50	     7.141
  46.100         43.33	     7.211
  46.120         47.50	     7.550
  46.140         37.50	     6.708
  46.160         45.00	     7.348
  46.180         45.00	     7.348
  46.200         50.83	     7.810
  46.220         38.33	     6.782
  46.240         39.17	     6.856
  46.260         37.50	     6.708
  46.280         55.00	     8.124
  46.300         50.83	     7.810
  46.320         43.33	     7.211
  46.340         38.33	     6.782
  46.360         40.00	     6.928
  46.380         40.00	     6.928
  46.400         52.50	     7.937
  46.420         38.33	     6.782
  46.440         38.33	     6.782
  46.460         45.00	     7.348
  46.480         37.50	     6.708
  46.500         30.83	     6.083
  46.520         45.83	     7.416
  46.540         38.33	     6.782
  46.560         30.83	     6.083
  46.580         32.50	     6.245
  46.600         31.67	     6.164
  46.620         34.17	     6.403
  46.640         30.83	     6.083
  46.660         30.83	     6.083
  46.680         33.33	     6.325
  46.700         38.33	     6.782
  46.720         31.67	     6.164
  46.740         24.17	     5.385
  46.760         26.67	     5.657
  46.780         29.17	     5.916
  46.800         31.67	     6.164
  46.820         30.00	     6.000
  46.840         31.67	     6.164
  46.860         25.00	     5.477
  46.880         30.00	     6.000
  46.900         33.33	     6.325
  46.920         30.00	     6.000
  46.940         26.67	     5.657
  46.960         30.83	     6.083
  46.980         36.67	     6.633
  47.000         37.50	     6.708
  47.020         34.17	     6.403
  47.040         28.33	     5.831
  47.060         31.67	     6.164
  47.080         30.83	     6.083
  47.100         29.17	     5.916
  47.120         34.17	     6.403
  47.140         36.67	     6.633
  47.160         27.50	     5.745
  47.180         44.17	     7.280
  47.200         40.83	     7.000
  47.220         46.67	     7.483
  47.240         35.00	     6.481
  47.260         45.83	     7.416
  47.280         46.67	     7.483
  47.300         26.67	     5.657
  47.320         39.17	     6.856
  47.340         30.83	     6.083
  47.360         45.83	     7.416
  47.380         35.83	     6.557
  47.400         35.00	     6.481
  47.420         37.50	     6.708
  47.440         35.00	     6.481
  47.460         42.50	     7.141
  47.480         26.67	     5.657
  47.500         22.50	     5.196
  47.520         26.67	     5.657
  47.540         22.50	     5.196
  47.560         18.33	     4.690
  47.580         32.50	     6.245
  47.600         28.33	     5.831
  47.620         24.17	     5.385
  47.640         32.50	     6.245
  47.660         43.33	     7.211
  47.680         31.67	     6.164
  47.700         28.33	     5.831
  47.720         21.67	     5.099
  47.740         20.83	     5.000
  47.760         26.67	     5.657
  47.780         22.50	     5.196
  47.800         28.33	     5.831
  47.820         28.33	     5.831
  47.840         18.33	     4.690
  47.860         21.67	     5.099
  47.880         25.83	     5.568
  47.900         26.67	     5.657
  47.920         25.83	     5.568
  47.940         40.00	     6.928
  47.960         32.50	     6.245
  47.980         30.00	     6.000
  48.000         31.67	     6.164
  48.020         24.17	     5.385
  48.040         34.17	     6.403
  48.060         39.17	     6.856
  48.080         33.33	     6.325
  48.100         41.67	     7.071
  48.120         43.33	     7.211
  48.140         38.33	     6.782
  48.160         28.33	     5.831
  48.180         25.00	     5.477
  48.200         35.00	     6.481
  48.220         36.67	     6.633
  48.240         39.17	     6.856
  48.260         40.83	     7.000
  48.280         40.83	     7.000
  48.300         35.83	     6.557
  48.320         44.17	     7.280
  48.340         46.67	     7.483
  48.360         55.83	     8.185
  48.380         45.00	     7.348
  48.400         42.50	     7.141
  48.420         47.50	     7.550
  48.440         45.83	     7.416
  48.460         44.17	     7.280
  48.480         31.67	     6.164
  48.500         40.83	     7.000
  48.520         36.67	     6.633
  48.540         26.67	     5.657
  48.560         40.00	     6.928
  48.580         26.67	     5.657
  48.600         46.67	     7.483
  48.620         28.33	     5.831
  48.640         26.67	     5.657
  48.660         26.67	     5.657
  48.680         36.67	     6.633
  48.700         30.83	     6.083
  48.720         34.17	     6.403
  48.740         30.83	     6.083
  48.760         30.83	     6.083
  48.780         43.33	     7.211
  48.800         32.50	     6.245
  48.820         26.67	     5.657
  48.840         39.17	     6.856
  48.860         30.00	     6.000
  48.880         35.83	     6.557
  48.900         40.00	     6.928
  48.920         32.50	     6.245
  48.940         25.00	     5.477
  48.960         26.67	     5.657
  48.980         36.67	     6.633
  49.000         26.67	     5.657
  49.020         25.00	     5.477
  49.040         29.17	     5.916
  49.060         34.17	     6.403
  49.080         25.83	     5.568
  49.100         39.17	     6.856
  49.120         36.67	     6.633
  49.140         38.33	     6.782
  49.160         25.83	     5.568
  49.180         33.33	     6.325
  49.200         23.33	     5.292
  49.220         34.17	     6.403
  49.240         30.00	     6.000
  49.260         30.00	     6.000
  49.280         30.83	     6.083
  49.300         35.83	     6.557
  49.320         33.33	     6.325
  49.340         45.83	     7.416
  49.360         20.00	     4.899
  49.380         30.83	     6.083
  49.400         30.00	     6.000
  49.420         32.50	     6.245
  49.440         43.33	     7.211
  49.460         29.17	     5.916
  49.480         35.83	     6.557
  49.500         23.33	     5.292
  49.520         25.00	     5.477
  49.540         26.67	     5.657
  49.560         30.83	     6.083
  49.580         34.17	     6.403
  49.600         25.83	     5.568
  49.620         22.50	     5.196
  49.640         30.00	     6.000
  49.660         33.33	     6.325
  49.680         26.67	     5.657
  49.700         27.50	     5.745
  49.720         31.67	     6.164
  49.740         35.83	     6.557
  49.760         35.00	     6.481
  49.780         25.00	     5.477
  49.800         34.17	     6.403
  49.820         36.67	     6.633
  49.840         32.50	     6.245
  49.860         35.00	     6.481
  49.880         37.50	     6.708
  49.900         40.83	     7.000
  49.920         29.17	     5.916
  49.940         29.17	     5.916
  49.960         35.00	     6.481
  49.980         43.33	     7.211
  50.000         35.83	     6.557
  50.020         37.50	     6.708
  50.040         35.83	     6.557
  50.060         49.17	     7.681
  50.080         39.17	     6.856
  50.100         45.83	     7.416
  50.120         45.00	     7.348
  50.140         52.50	     7.937
  50.160         60.00	     8.485
  50.180         66.67	     8.944
  50.200         65.83	     8.888
  50.220         84.17	    10.050
  50.240         81.67	     9.899
  50.260         92.50	    10.536
  50.280         60.00	     8.485
  50.300         73.33	     9.381
  50.320         70.83	     9.220
  50.340         75.83	     9.539
  50.360         80.83	     9.849
  50.380         86.67	    10.198
  50.400         82.50	     9.950
  50.420         56.67	     8.246
  50.440         64.17	     8.775
  50.460         35.83	     6.557
  50.480         46.67	     7.483
  50.500         45.83	     7.416
  50.520         44.17	     7.280
  50.540         42.50	     7.141
  50.560         49.17	     7.681
  50.580         41.67	     7.071
  50.600         39.17	     6.856
  50.620         40.00	     6.928
  50.640         43.33	     7.211
  50.660         39.17	     6.856
  50.680         59.17	     8.426
  50.700         57.50	     8.307
  50.720         55.00	     8.124
  50.740         43.33	     7.211
  50.760         44.17	     7.280
  50.780         54.17	     8.062
  50.800         44.17	     7.280
  50.820         33.33	     6.325
  50.840         52.50	     7.937
  50.860         38.33	     6.782
  50.880         44.17	     7.280
  50.900         41.67	     7.071
  50.920         30.83	     6.083
  50.940         35.83	     6.557
  50.960         24.17	     5.385
  50.980         36.67	     6.633
  51.000         25.00	     5.477
  51.020         30.00	     6.000
  51.040         26.67	     5.657
  51.060         30.00	     6.000
  51.080         20.00	     4.899
  51.100         19.17	     4.796
  51.120         24.17	     5.385
  51.140         25.83	     5.568
  51.160         29.17	     5.916
  51.180         35.83	     6.557
  51.200         30.00	     6.000
  51.220         30.00	     6.000
  51.240         32.50	     6.245
  51.260         35.83	     6.557
  51.280         41.67	     7.071
  51.300         36.67	     6.633
  51.320         26.67	     5.657
  51.340         35.83	     6.557
  51.360         31.67	     6.164
  51.380         30.00	     6.000
  51.400         24.17	     5.385
  51.420         44.17	     7.280
  51.440         28.33	     5.831
  51.460         25.00	     5.477
  51.480         44.17	     7.280
  51.500         18.33	     4.690
  51.520         29.17	     5.916
  51.540         32.50	     6.245
  51.560         22.50	     5.196
  51.580         30.00	     6.000
  51.600         31.67	     6.164
  51.620         19.17	     4.796
  51.640         17.50	     4.583
  51.660         27.50	     5.745
  51.680         25.00	     5.477
  51.700         31.67	     6.164
  51.720         29.17	     5.916
  51.740         18.33	     4.690
  51.760         25.00	     5.477
  51.780         21.67	     5.099
  51.800         24.17	     5.385
  51.820         29.17	     5.916
  51.840         15.83	     4.359
  51.860         20.83	     5.000
  51.880         30.83	     6.083
  51.900         19.17	     4.796
  51.920         19.17	     4.796
  51.940         18.33	     4.690
  51.960         24.17	     5.385
  51.980         19.17	     4.796
  52.000         25.00	     5.477
  52.020         17.50	     4.583
  52.040         18.33	     4.690
  52.060         17.50	     4.583
  52.080         21.67	     5.099
  52.100         21.67	     5.099
  52.120         29.17	     5.916
  52.140         28.33	     5.831
  52.160         26.67	     5.657
  52.180         23.33	     5.292
  52.200         20.00	     4.899
  52.220         23.33	     5.292
  52.240         28.33	     5.831
  52.260         22.50	     5.196
  52.280         29.17	     5.916
  52.300         31.67	     6.164
  52.320         28.33	     5.831
  52.340         20.00	     4.899
  52.360         27.50	     5.745
  52.380         20.00	     4.899
  52.400         33.33	     6.325
  52.420         30.00	     6.000
  52.440         28.33	     5.831
  52.460         30.83	     6.083
  52.480         40.83	     7.000
  52.500         36.67	     6.633
  52.520         25.83	     5.568
  52.540         31.67	     6.164
  52.560         34.17	     6.403
  52.580         38.33	     6.782
  52.600         35.00	     6.481
  52.620         44.17	     7.280
  52.640         30.83	     6.083
  52.660         33.33	     6.325
  52.680         25.00	     5.477
  52.700         43.33	     7.211
  52.720         38.33	     6.782
  52.740         31.67	     6.164
  52.760         36.67	     6.633
  52.780         27.50	     5.745
  52.800         26.67	     5.657
  52.820         35.00	     6.481
  52.840         34.17	     6.403
  52.860         25.83	     5.568
  52.880         37.50	     6.708
  52.900         30.00	     6.000
  52.920         26.67	     5.657
  52.940         31.67	     6.164
  52.960         26.67	     5.657
  52.980         38.33	     6.782
  53.000         32.50	     6.245
  53.020         17.50	     4.583
  53.040         17.50	     4.583
  53.060         20.00	     4.899
  53.080         32.50	     6.245
  53.100         30.83	     6.083
  53.120         20.83	     5.000
  53.140         25.00	     5.477
  53.160         31.67	     6.164
  53.180         20.00	     4.899
  53.200         40.00	     6.928
  53.220         29.17	     5.916
  53.240         30.83	     6.083
  53.260         25.00	     5.477
  53.280         24.17	     5.385
  53.300         25.83	     5.568
  53.320         35.00	     6.481
  53.340         37.50	     6.708
  53.360         32.50	     6.245
  53.380         29.17	     5.916
  53.400         32.50	     6.245
  53.420         24.17	     5.385
  53.440         40.83	     7.000
  53.460         34.17	     6.403
  53.480         20.83	     5.000
  53.500         30.83	     6.083
  53.520         27.50	     5.745
  53.540         24.17	     5.385
  53.560         20.83	     5.000
  53.580         28.33	     5.831
  53.600         25.00	     5.477
  53.620         26.67	     5.657
  53.640         31.67	     6.164
  53.660         18.33	     4.690
  53.680         27.50	     5.745
  53.700         18.33	     4.690
  53.720         21.67	     5.099
  53.740         30.83	     6.083
  53.760         15.83	     4.359
  53.780         26.67	     5.657
  53.800         25.83	     5.568
  53.820         22.50	     5.196
  53.840         30.83	     6.083
  53.860         19.17	     4.796
  53.880         24.17	     5.385
  53.900         25.83	     5.568
  53.920         21.67	     5.099
  53.940         29.17	     5.916
  53.960         25.83	     5.568
  53.980         25.83	     5.568
  54.000         24.17	     5.385
  54.020         28.33	     5.831
  54.040         27.50	     5.745
  54.060         21.67	     5.099
  54.080         22.50	     5.196
  54.100         26.67	     5.657
  54.120         23.33	     5.292
  54.140         20.00	     4.899
  54.160         30.83	     6.083
  54.180         30.83	     6.083
  54.200         30.00	     6.000
  54.220         30.00	     6.000
  54.240         18.33	     4.690
  54.260         35.83	     6.557
  54.280         24.17	     5.385
  54.300         25.83	     5.568
  54.320         28.33	     5.831
  54.340         32.50	     6.245
  54.360         24.17	     5.385
  54.380         22.50	     5.196
  54.400         22.50	     5.196
  54.420         20.00	     4.899
  54.440         28.33	     5.831
  54.460         34.17	     6.403
  54.480         27.50	     5.745
  54.500         25.00	     5.477
  54.520         26.67	     5.657
  54.540         35.83	     6.557
  54.560         20.00	     4.899
  54.580         35.83	     6.557
  54.600         26.67	     5.657
  54.620         22.50	     5.196
  54.640         34.17	     6.403
  54.660         28.33	     5.831
  54.680         28.33	     5.831
  54.700         25.83	     5.568
  54.720         30.83	     6.083
  54.740         31.67	     6.164
  54.760         25.00	     5.477
  54.780         29.17	     5.916
  54.800         36.67	     6.633
  54.820         32.50	     6.245
  54.840         23.33	     5.292
  54.860         37.50	     6.708
  54.880         31.67	     6.164
  54.900         29.17	     5.916
  54.920         36.67	     6.633
  54.940         44.17	     7.280
  54.960         50.83	     7.810
  54.980         46.67	     7.483
  55.000         40.83	     7.000
  55.020         43.33	     7.211
  55.040         35.83	     6.557
  55.060         32.50	     6.245
  55.080         29.17	     5.916
  55.100         36.67	     6.633
  55.120         22.50	     5.196
  55.140         35.83	     6.557
  55.160         25.83	     5.568
  55.180         31.67	     6.164
  55.200         37.50	     6.708
  55.220         23.33	     5.292
  55.240         36.67	     6.633
  55.260         40.83	     7.000
  55.280         42.50	     7.141
  55.300         26.67	     5.657
  55.320         25.83	     5.568
  55.340         42.50	     7.141
  55.360         33.33	     6.325
  55.380         27.50	     5.745
  55.400         43.33	     7.211
  55.420         29.17	     5.916
  55.440         30.00	     6.000
  55.460         28.33	     5.831
  55.480         34.17	     6.403
  55.500         35.00	     6.481
  55.520         31.67	     6.164
  55.540         29.17	     5.916
  55.560         22.50	     5.196
  55.580         34.17	     6.403
  55.600         24.17	     5.385
  55.620         25.83	     5.568
  55.640         30.00	     6.000
  55.660         32.50	     6.245
  55.680         32.50	     6.245
  55.700         31.67	     6.164
  55.720         33.33	     6.325
  55.740         36.67	     6.633
  55.760         45.00	     7.348
  55.780         35.83	     6.557
  55.800         35.83	     6.557
  55.820         40.83	     7.000
  55.840         41.67	     7.071
  55.860         43.33	     7.211
  55.880         41.67	     7.071
  55.900         36.67	     6.633
  55.920         44.17	     7.280
  55.940         35.83	     6.557
  55.960         45.83	     7.416
  55.980         45.83	     7.416
  56.000         24.17	     5.385
  56.020         40.00	     6.928
  56.040         35.00	     6.481
  56.060         42.50	     7.141
  56.080         35.83	     6.557
  56.100         41.67	     7.071
  56.120         38.33	     6.782
  56.140         31.67	     6.164
  56.160         37.50	     6.708
  56.180         25.83	     5.568
  56.200         32.50	     6.245
  56.220         31.67	     6.164
  56.240         35.83	     6.557
  56.260         33.33	     6.325
  56.280         21.67	     5.099
  56.300         28.33	     5.831
  56.320         29.17	     5.916
  56.340         35.00	     6.481
  56.360         18.33	     4.690
  56.380         26.67	     5.657
  56.400         24.17	     5.385
  56.420         26.67	     5.657
  56.440         30.83	     6.083
  56.460         31.67	     6.164
  56.480         29.17	     5.916
  56.500         27.50	     5.745
  56.520         26.67	     5.657
  56.540         28.33	     5.831
  56.560         38.33	     6.782
  56.580         23.33	     5.292
  56.600         33.33	     6.325
  56.620         23.33	     5.292
  56.640         20.83	     5.000
  56.660         29.17	     5.916
  56.680         25.83	     5.568
  56.700         26.67	     5.657
  56.720         25.83	     5.568
  56.740         16.67	     4.472
  56.760         25.00	     5.477
  56.780         29.17	     5.916
  56.800         22.50	     5.196
  56.820         32.50	     6.245
  56.840         21.67	     5.099
  56.860         23.33	     5.292
  56.880         23.33	     5.292
  56.900         30.83	     6.083
  56.920         16.67	     4.472
  56.940         26.67	     5.657
  56.960         19.17	     4.796
  56.980         24.17	     5.385
  57.000         30.83	     6.083
  57.020         35.00	     6.481
  57.040         21.67	     5.099
  57.060         22.50	     5.196
  57.080         25.83	     5.568
  57.100         26.67	     5.657
  57.120         29.17	     5.916
  57.140         17.50	     4.583
  57.160         22.50	     5.196
  57.180         27.50	     5.745
  57.200         30.00	     6.000
  57.220         21.67	     5.099
  57.240         22.50	     5.196
  57.260         25.83	     5.568
  57.280         29.17	     5.916
  57.300         19.17	     4.796
  57.320         28.33	     5.831
  57.340         28.33	     5.831
  57.360         20.00	     4.899
  57.380         35.00	     6.481
  57.400         23.33	     5.292
  57.420         21.67	     5.099
  57.440         21.67	     5.099
  57.460         24.17	     5.385
  57.480         32.50	     6.245
  57.500         21.67	     5.099
  57.520         31.67	     6.164
  57.540         18.33	     4.690
  57.560         29.17	     5.916
  57.580         18.33	     4.690
  57.600         25.83	     5.568
  57.620         26.67	     5.657
  57.640         25.83	     5.568
  57.660         29.17	     5.916
  57.680         36.67	     6.633
  57.700         35.00	     6.481
  57.720         28.33	     5.831
  57.740         42.50	     7.141
  57.760         32.50	     6.245
  57.780         25.83	     5.568
  57.800         31.67	     6.164
  57.820         32.50	     6.245
  57.840         27.50	     5.745
  57.860         25.83	     5.568
  57.880         27.50	     5.745
  57.900         30.00	     6.000
  57.920         28.33	     5.831
  57.940         22.50	     5.196
  57.960         25.83	     5.568
  57.980         24.17	     5.385
  58.000         21.67	     5.099
  58.020         26.67	     5.657
  58.040         24.17	     5.385
  58.060         35.83	     6.557
  58.080         32.50	     6.245
  58.100         22.50	     5.196
  58.120         24.17	     5.385
  58.140         19.17	     4.796
  58.160         29.17	     5.916
  58.180         19.17	     4.796
  58.200         29.17	     5.916
  58.220         33.33	     6.325
  58.240         32.50	     6.245
  58.260         22.50	     5.196
  58.280         30.00	     6.000
  58.300         20.00	     4.899
  58.320         24.17	     5.385
  58.340         21.67	     5.099
  58.360         28.33	     5.831
  58.380         24.17	     5.385
  58.400         35.00	     6.481
  58.420         25.83	     5.568
  58.440         21.67	     5.099
  58.460         40.83	     7.000
  58.480         29.17	     5.916
  58.500         31.67	     6.164
  58.520         26.67	     5.657
  58.540         22.50	     5.196
  58.560         30.83	     6.083
  58.580         30.83	     6.083
  58.600         31.67	     6.164
  58.620         27.50	     5.745
  58.640         34.17	     6.403
  58.660         34.17	     6.403
  58.680         29.17	     5.916
  58.700         35.00	     6.481
  58.720         31.67	     6.164
  58.740         40.83	     7.000
  58.760         30.83	     6.083
  58.780         39.17	     6.856
  58.800         47.50	     7.550
  58.820         37.50	     6.708
  58.840         37.50	     6.708
  58.860         34.17	     6.403
  58.880         40.83	     7.000
  58.900         27.50	     5.745
  58.920         25.83	     5.568
  58.940         37.50	     6.708
  58.960         42.50	     7.141
  58.980         30.83	     6.083
  59.000         34.17	     6.403
  59.020         36.67	     6.633
  59.040         29.17	     5.916
  59.060         33.33	     6.325
  59.080         32.50	     6.245
  59.100         30.00	     6.000
  59.120         25.83	     5.568
  59.140         30.83	     6.083
  59.160         27.50	     5.745
  59.180         42.50	     7.141
  59.200         26.67	     5.657
  59.220         35.83	     6.557
  59.240         25.00	     5.477
  59.260         32.50	     6.245
  59.280         29.17	     5.916
  59.300         36.67	     6.633
  59.320         37.50	     6.708
  59.340         39.17	     6.856
  59.360         32.50	     6.245
  59.380         29.17	     5.916
  59.400         26.67	     5.657
  59.420         30.83	     6.083
  59.440         37.50	     6.708
  59.460         35.83	     6.557
  59.480         29.17	     5.916
  59.500         30.83	     6.083
  59.520         31.67	     6.164
  59.540         25.00	     5.477
  59.560         20.83	     5.000
  59.580         27.50	     5.745
  59.600         34.17	     6.403
  59.620         30.83	     6.083
  59.640         27.50	     5.745
  59.660         25.00	     5.477
  59.680         23.33	     5.292
  59.700         25.83	     5.568
  59.720         22.50	     5.196
  59.740         33.33	     6.325
  59.760         34.17	     6.403
  59.780         23.33	     5.292
  59.800         23.33	     5.292
  59.820         32.50	     6.245
  59.840         28.33	     5.831
  59.860         30.00	     6.000
  59.880         26.67	     5.657
  59.900         37.50	     6.708
  59.920         29.17	     5.916
  59.940         29.17	     5.916
  59.960         37.50	     6.708
  59.980         32.50	     6.245
  60.000         49.17	     7.681
  60.020         50.83	     7.810
  60.040         58.33	     8.367
  60.060         75.00	     9.487
  60.080         58.33	     8.367
  60.100         52.50	     7.937
  60.120         41.67	     7.071
  60.140         30.83	     6.083
  60.160         33.33	     6.325
  60.180         44.17	     7.280
  60.200         40.83	     7.000
  60.220         50.83	     7.810
  60.240         37.50	     6.708
  60.260         47.50	     7.550
  60.280         35.83	     6.557
  60.300         20.83	     5.000
  60.320         26.67	     5.657
  60.340         37.50	     6.708
  60.360         25.00	     5.477
  60.380         20.83	     5.000
  60.400         30.83	     6.083
  60.420         37.50	     6.708
  60.440         37.50	     6.708
  60.460         25.00	     5.477
  60.480         30.00	     6.000
  60.500         26.67	     5.657
  60.520         25.83	     5.568
  60.540         35.00	     6.481
  60.560         33.33	     6.325
  60.580         30.00	     6.000
  60.600         25.00	     5.477
  60.620         40.00	     6.928
  60.640         31.67	     6.164
  60.660         39.17	     6.856
  60.680         25.83	     5.568
  60.700         35.83	     6.557
  60.720         27.50	     5.745
  60.740         38.33	     6.782
  60.760         36.67	     6.633
  60.780         34.17	     6.403
  60.800         28.33	     5.831
  60.820         40.83	     7.000
  60.840         35.83	     6.557
  60.860         45.83	     7.416
  60.880         37.50	     6.708
  60.900         30.00	     6.000
  60.920         35.00	     6.481
  60.940         43.33	     7.211
  60.960         35.83	     6.557
  60.980         45.83	     7.416
  61.000         37.50	     6.708
  61.020         44.17	     7.280
  61.040         29.17	     5.916
  61.060         32.50	     6.245
  61.080         37.50	     6.708
  61.100         35.00	     6.481
  61.120         35.83	     6.557
  61.140         36.67	     6.633
  61.160         32.50	     6.245
  61.180         35.00	     6.481
  61.200         32.50	     6.245
  61.220         34.17	     6.403
  61.240         34.17	     6.403
  61.260         32.50	     6.245
  61.280         19.17	     4.796
  61.300         29.17	     5.916
  61.320         31.67	     6.164
  61.340         32.50	     6.245
  61.360         38.33	     6.782
  61.380         32.50	     6.245
  61.400         40.00	     6.928
  61.420         30.83	     6.083
  61.440         27.50	     5.745
  61.460         35.83	     6.557
  61.480         41.67	     7.071
  61.500         50.00	     7.746
  61.520         55.83	     8.185
  61.540         55.83	     8.185
  61.560         53.33	     8.000
  61.580         55.00	     8.124
  61.600         60.00	     8.485
  61.620         48.33	     7.616
  61.640         28.33	     5.831
  61.660         34.17	     6.403
  61.680         37.50	     6.708
  61.700         38.33	     6.782
  61.720         40.00	     6.928
  61.740         36.67	     6.633
  61.760         29.17	     5.916
  61.780         43.33	     7.211
  61.800         43.33	     7.211
  61.820         44.17	     7.280
  61.840         40.00	     6.928
  61.860         40.83	     7.000
  61.880         33.33	     6.325
  61.900         39.17	     6.856
  61.920         36.67	     6.633
  61.940         35.83	     6.557
  61.960         38.33	     6.782
  61.980         35.83	     6.557
  62.000         25.83	     5.568
  62.020         34.17	     6.403
  62.040         39.17	     6.856
  62.060         40.00	     6.928
  62.080         41.67	     7.071
  62.100         37.50	     6.708
  62.120         39.17	     6.856
  62.140         31.67	     6.164
  62.160         34.17	     6.403
  62.180         35.83	     6.557
  62.200         25.00	     5.477
  62.220         33.33	     6.325
  62.240         39.17	     6.856
  62.260         34.17	     6.403
  62.280         28.33	     5.831
  62.300         30.00	     6.000
  62.320         30.83	     6.083
  62.340         23.33	     5.292
  62.360         29.17	     5.916
  62.380         27.50	     5.745
  62.400         25.00	     5.477
  62.420         30.00	     6.000
  62.440         28.33	     5.831
  62.460         30.83	     6.083
  62.480         35.83	     6.557
  62.500         28.33	     5.831
  62.520         37.50	     6.708
  62.540         20.00	     4.899
  62.560         30.00	     6.000
  62.580         23.33	     5.292
  62.600         20.00	     4.899
  62.620         24.17	     5.385
  62.640         19.17	     4.796
  62.660         23.33	     5.292
  62.680         24.17	     5.385
  62.700         29.17	     5.916
  62.720         26.67	     5.657
  62.740         20.00	     4.899
  62.760         30.83	     6.083
  62.780         35.83	     6.557
  62.800         26.67	     5.657
  62.820         30.83	     6.083
  62.840         22.50	     5.196
  62.860         22.50	     5.196
  62.880         24.17	     5.385
  62.900         25.83	     5.568
  62.920         30.83	     6.083
  62.940         29.17	     5.916
  62.960         36.67	     6.633
  62.980         31.67	     6.164
  63.000         25.83	     5.568
  63.020         33.33	     6.325
  63.040         30.83	     6.083
  63.060         24.17	     5.385
  63.080         19.17	     4.796
  63.100         35.00	     6.481
  63.120         26.67	     5.657
  63.140         25.83	     5.568
  63.160         26.67	     5.657
  63.180         26.67	     5.657
  63.200         35.00	     6.481
  63.220         22.50	     5.196
  63.240         34.17	     6.403
  63.260         30.83	     6.083
  63.280         28.33	     5.831
  63.300         30.83	     6.083
  63.320         35.00	     6.481
  63.340         25.00	     5.477
  63.360         37.50	     6.708
  63.380         17.50	     4.583
  63.400         35.83	     6.557
  63.420         35.83	     6.557
  63.440         37.50	     6.708
  63.460         35.00	     6.481
  63.480         33.33	     6.325
  63.500         30.00	     6.000
  63.520         24.17	     5.385
  63.540         39.17	     6.856
  63.560         22.50	     5.196
  63.580         26.67	     5.657
  63.600         25.83	     5.568
  63.620         32.50	     6.245
  63.640         30.83	     6.083
  63.660         25.00	     5.477
  63.680         22.50	     5.196
  63.700         35.83	     6.557
  63.720         38.33	     6.782
  63.740         31.67	     6.164
  63.760         29.17	     5.916
  63.780         35.83	     6.557
  63.800         35.83	     6.557
  63.820         30.00	     6.000
  63.840         32.50	     6.245
  63.860         40.00	     6.928
  63.880         30.83	     6.083
  63.900         35.00	     6.481
  63.920         34.17	     6.403
  63.940         35.00	     6.481
  63.960         37.50	     6.708
  63.980         32.50	     6.245
  64.000         38.33	     6.782
  64.020         37.50	     6.708
  64.040         40.00	     6.928
  64.060         48.33	     7.616
  64.080         45.83	     7.416
  64.100         53.33	     8.000
  64.120         53.33	     8.000
  64.140         45.00	     7.348
  64.160         65.00	     8.832
  64.180         60.00	     8.485
  64.200         59.17	     8.426
  64.220         64.17	     8.775
  64.240         70.00	     9.165
  64.260         83.33	    10.000
  64.280         75.83	     9.539
  64.300         80.83	     9.849
  64.320         88.33	    10.296
  64.340         90.00	    10.392
  64.360        109.17	    11.446
  64.380        112.50	    11.619
  64.400        168.33	    14.213
  64.420        248.33	    17.263
  64.440        332.50	    19.975
  64.460        586.67	    26.533
  64.480       1000.83	    34.655
  64.500       1395.00	    40.915
  64.520       1405.00	    41.061
  64.540       1200.83	    37.961
  64.560        855.00	    32.031
  64.580        485.83	    24.145
  64.600        382.50	    21.424
  64.620        327.50	    19.824
  64.640        401.67	    21.954
  64.660        595.00	    26.721
  64.680        703.33	    29.052
  64.700        736.67	    29.732
  64.720        599.17	    26.814
  64.740        419.17	    22.428
  64.760        285.83	    18.520
  64.780        165.00	    14.071
  64.800        130.83	    12.530
  64.820        115.00	    11.747
  64.840         90.00	    10.392
  64.860         71.67	     9.274
  64.880         57.50	     8.307
  64.900         80.83	     9.849
  64.920         57.50	     8.307
  64.940         58.33	     8.367
  64.960         58.33	     8.367
  64.980         48.33	     7.616
  65.000         51.67	     7.874
