
Filename:
	C:\Program Files\Thermo Electron\WinXRD\Datafiles\F_HERMAN\GEO\GG_15_SFT.raw

File Created:
	October 13, 2020 - 03:27 PM

Specimen Id:
	GG15 SFT

Specimen Name:
	

Specimen Description:
	

Comment:
Scan Type: 2Theta Scan
Start Angle: 3 deg.
Stop Angle: 65 deg.
Num Points: 3101
Step Size: 0.02 deg.
Scan Rate: 1.000000
Scan Mode: Continuous
Wavelength: 1.540562
\Kalpha1: 1.540562	\Kalpha2: 1.544390	\Kbeta: 1.392218

Optics:
		Detector:
			 Type: Fixed Slits
		Tube: 
			 Type: Fixed Slits


Datas:
 Pos [deg]       Rate [CPS]      ESD [-]

Range 1 ---> Iteration 1
   3.000        279.17	    18.303
   3.020        291.67	    18.708
   3.040        306.67	    19.183
   3.060        294.17	    18.788
   3.080        271.67	    18.055
   3.100        268.33	    17.944
   3.120        290.00	    18.655
   3.140        277.50	    18.248
   3.160        290.00	    18.655
   3.180        268.33	    17.944
   3.200        254.17	    17.464
   3.220        268.33	    17.944
   3.240        252.50	    17.407
   3.260        247.50	    17.234
   3.280        256.67	    17.550
   3.300        269.17	    17.972
   3.320        268.33	    17.944
   3.340        258.33	    17.607
   3.360        251.67	    17.378
   3.380        275.00	    18.166
   3.400        258.33	    17.607
   3.420        234.17	    16.763
   3.440        244.17	    17.117
   3.460        239.17	    16.941
   3.480        230.00	    16.613
   3.500        230.83	    16.643
   3.520        245.83	    17.176
   3.540        237.50	    16.882
   3.560        216.67	    16.125
   3.580        229.17	    16.583
   3.600        250.00	    17.321
   3.620        262.50	    17.748
   3.640        235.00	    16.793
   3.660        236.67	    16.852
   3.680        215.83	    16.093
   3.700        214.17	    16.031
   3.720        228.33	    16.553
   3.740        235.00	    16.793
   3.760        221.67	    16.310
   3.780        218.33	    16.186
   3.800        226.67	    16.492
   3.820        209.17	    15.843
   3.840        233.33	    16.733
   3.860        207.50	    15.780
   3.880        213.33	    16.000
   3.900        190.83	    15.133
   3.920        225.00	    16.432
   3.940        240.83	    17.000
   3.960        210.83	    15.906
   3.980        197.50	    15.395
   4.000        215.83	    16.093
   4.020        203.33	    15.620
   4.040        182.50	    14.799
   4.060        197.50	    15.395
   4.080        198.33	    15.427
   4.100        205.00	    15.684
   4.120        190.83	    15.133
   4.140        192.50	    15.199
   4.160        205.00	    15.684
   4.180        191.67	    15.166
   4.200        200.83	    15.524
   4.220        200.83	    15.524
   4.240        193.33	    15.232
   4.260        218.33	    16.186
   4.280        184.17	    14.866
   4.300        205.83	    15.716
   4.320        195.83	    15.330
   4.340        184.17	    14.866
   4.360        184.17	    14.866
   4.380        194.17	    15.264
   4.400        180.83	    14.731
   4.420        168.33	    14.213
   4.440        184.17	    14.866
   4.460        180.83	    14.731
   4.480        178.33	    14.629
   4.500        184.17	    14.866
   4.520        161.67	    13.928
   4.540        187.50	    15.000
   4.560        171.67	    14.353
   4.580        182.50	    14.799
   4.600        151.67	    13.491
   4.620        190.83	    15.133
   4.640        175.83	    14.526
   4.660        169.17	    14.248
   4.680        178.33	    14.629
   4.700        163.33	    14.000
   4.720        170.00	    14.283
   4.740        176.67	    14.560
   4.760        163.33	    14.000
   4.780        181.67	    14.765
   4.800        165.00	    14.071
   4.820        175.83	    14.526
   4.840        172.50	    14.387
   4.860        154.17	    13.601
   4.880        150.00	    13.416
   4.900        163.33	    14.000
   4.920        147.50	    13.304
   4.940        160.83	    13.892
   4.960        160.00	    13.856
   4.980        153.33	    13.565
   5.000        175.00	    14.491
   5.020        159.17	    13.820
   5.040        153.33	    13.565
   5.060        160.00	    13.856
   5.080        148.33	    13.342
   5.100        147.50	    13.304
   5.120        165.83	    14.107
   5.140        150.83	    13.454
   5.160        143.33	    13.115
   5.180        127.50	    12.369
   5.200        164.17	    14.036
   5.220        149.17	    13.379
   5.240        147.50	    13.304
   5.260        146.67	    13.266
   5.280        150.83	    13.454
   5.300        126.67	    12.329
   5.320        145.83	    13.229
   5.340        162.50	    13.964
   5.360        158.33	    13.784
   5.380        159.17	    13.820
   5.400        156.67	    13.711
   5.420        167.50	    14.177
   5.440        140.00	    12.961
   5.460        141.67	    13.038
   5.480        142.50	    13.077
   5.500        135.83	    12.767
   5.520        155.00	    13.638
   5.540        157.50	    13.748
   5.560        136.67	    12.806
   5.580        141.67	    13.038
   5.600        131.67	    12.570
   5.620        116.67	    11.832
   5.640        132.50	    12.610
   5.660        150.00	    13.416
   5.680        136.67	    12.806
   5.700        140.00	    12.961
   5.720        128.33	    12.410
   5.740        143.33	    13.115
   5.760        129.17	    12.450
   5.780        140.83	    13.000
   5.800        138.33	    12.884
   5.820        133.33	    12.649
   5.840        115.83	    11.790
   5.860        142.50	    13.077
   5.880        127.50	    12.369
   5.900        127.50	    12.369
   5.920        128.33	    12.410
   5.940        140.83	    13.000
   5.960        135.83	    12.767
   5.980        134.17	    12.689
   6.000        115.00	    11.747
   6.020        115.00	    11.747
   6.040        124.17	    12.207
   6.060        142.50	    13.077
   6.080        120.83	    12.042
   6.100        135.83	    12.767
   6.120        125.83	    12.288
   6.140        140.83	    13.000
   6.160        142.50	    13.077
   6.180        110.83	    11.533
   6.200        136.67	    12.806
   6.220        145.83	    13.229
   6.240        147.50	    13.304
   6.260        161.67	    13.928
   6.280        176.67	    14.560
   6.300        171.67	    14.353
   6.320        167.50	    14.177
   6.340        135.83	    12.767
   6.360        148.33	    13.342
   6.380        148.33	    13.342
   6.400        146.67	    13.266
   6.420        150.00	    13.416
   6.440        144.17	    13.153
   6.460        151.67	    13.491
   6.480        155.83	    13.675
   6.500        146.67	    13.266
   6.520        130.00	    12.490
   6.540        134.17	    12.689
   6.560        127.50	    12.369
   6.580        126.67	    12.329
   6.600        136.67	    12.806
   6.620        126.67	    12.329
   6.640        115.83	    11.790
   6.660        125.83	    12.288
   6.680        106.67	    11.314
   6.700        117.50	    11.874
   6.720        115.83	    11.790
   6.740        108.33	    11.402
   6.760        111.67	    11.576
   6.780        120.83	    12.042
   6.800        117.50	    11.874
   6.820        120.00	    12.000
   6.840        111.67	    11.576
   6.860        102.50	    11.091
   6.880         98.33	    10.863
   6.900        116.67	    11.832
   6.920         95.00	    10.677
   6.940         92.50	    10.536
   6.960        111.67	    11.576
   6.980         92.50	    10.536
   7.000        101.67	    11.045
   7.020        106.67	    11.314
   7.040        104.17	    11.180
   7.060         98.33	    10.863
   7.080         86.67	    10.198
   7.100        112.50	    11.619
   7.120        110.83	    11.533
   7.140        100.83	    11.000
   7.160        120.00	    12.000
   7.180        100.00	    10.954
   7.200        110.83	    11.533
   7.220        102.50	    11.091
   7.240         93.33	    10.583
   7.260         99.17	    10.909
   7.280         95.00	    10.677
   7.300         94.17	    10.630
   7.320         90.83	    10.440
   7.340        101.67	    11.045
   7.360         90.00	    10.392
   7.380        103.33	    11.136
   7.400        112.50	    11.619
   7.420         89.17	    10.344
   7.440         94.17	    10.630
   7.460         99.17	    10.909
   7.480         85.83	    10.149
   7.500        103.33	    11.136
   7.520         88.33	    10.296
   7.540        107.50	    11.358
   7.560         81.67	     9.899
   7.580         85.00	    10.100
   7.600         86.67	    10.198
   7.620         90.00	    10.392
   7.640         85.00	    10.100
   7.660         89.17	    10.344
   7.680         78.33	     9.695
   7.700         82.50	     9.950
   7.720         76.67	     9.592
   7.740        100.00	    10.954
   7.760         84.17	    10.050
   7.780        101.67	    11.045
   7.800         84.17	    10.050
   7.820         96.67	    10.770
   7.840        102.50	    11.091
   7.860         86.67	    10.198
   7.880         97.50	    10.817
   7.900         73.33	     9.381
   7.920         90.83	    10.440
   7.940         87.50	    10.247
   7.960         68.33	     9.055
   7.980         82.50	     9.950
   8.000         85.00	    10.100
   8.020         90.83	    10.440
   8.040         76.67	     9.592
   8.060         74.17	     9.434
   8.080         83.33	    10.000
   8.100         81.67	     9.899
   8.120         94.17	    10.630
   8.140         77.50	     9.644
   8.160         83.33	    10.000
   8.180         94.17	    10.630
   8.200         86.67	    10.198
   8.220         90.00	    10.392
   8.240         94.17	    10.630
   8.260         92.50	    10.536
   8.280         87.50	    10.247
   8.300         76.67	     9.592
   8.320         73.33	     9.381
   8.340         73.33	     9.381
   8.360         64.17	     8.775
   8.380         80.83	     9.849
   8.400         89.17	    10.344
   8.420         80.83	     9.849
   8.440         78.33	     9.695
   8.460         88.33	    10.296
   8.480         72.50	     9.327
   8.500         75.00	     9.487
   8.520         76.67	     9.592
   8.540         77.50	     9.644
   8.560         68.33	     9.055
   8.580         81.67	     9.899
   8.600         78.33	     9.695
   8.620         72.50	     9.327
   8.640         84.17	    10.050
   8.660         66.67	     8.944
   8.680         60.83	     8.544
   8.700         90.00	    10.392
   8.720         75.00	     9.487
   8.740         77.50	     9.644
   8.760         73.33	     9.381
   8.780         76.67	     9.592
   8.800         88.33	    10.296
   8.820         89.17	    10.344
   8.840         80.00	     9.798
   8.860         70.00	     9.165
   8.880         79.17	     9.747
   8.900         85.00	    10.100
   8.920         84.17	    10.050
   8.940         83.33	    10.000
   8.960         80.83	     9.849
   8.980         90.83	    10.440
   9.000         98.33	    10.863
   9.020         98.33	    10.863
   9.040        100.83	    11.000
   9.060        117.50	    11.874
   9.080        125.83	    12.288
   9.100        143.33	    13.115
   9.120        169.17	    14.248
   9.140        170.00	    14.283
   9.160        155.00	    13.638
   9.180        180.00	    14.697
   9.200        155.00	    13.638
   9.220        131.67	    12.570
   9.240         97.50	    10.817
   9.260         85.83	    10.149
   9.280         80.00	     9.798
   9.300         86.67	    10.198
   9.320         87.50	    10.247
   9.340         75.00	     9.487
   9.360         65.83	     8.888
   9.380         76.67	     9.592
   9.400         80.00	     9.798
   9.420         69.17	     9.110
   9.440         75.83	     9.539
   9.460         71.67	     9.274
   9.480         80.00	     9.798
   9.500         72.50	     9.327
   9.520         72.50	     9.327
   9.540         70.83	     9.220
   9.560         73.33	     9.381
   9.580         64.17	     8.775
   9.600         60.00	     8.485
   9.620         77.50	     9.644
   9.640         64.17	     8.775
   9.660         79.17	     9.747
   9.680         74.17	     9.434
   9.700         68.33	     9.055
   9.720         74.17	     9.434
   9.740         74.17	     9.434
   9.760         80.83	     9.849
   9.780         73.33	     9.381
   9.800         53.33	     8.000
   9.820         68.33	     9.055
   9.840         62.50	     8.660
   9.860         60.00	     8.485
   9.880         73.33	     9.381
   9.900         69.17	     9.110
   9.920         67.50	     9.000
   9.940         66.67	     8.944
   9.960         64.17	     8.775
   9.980         65.83	     8.888
  10.000         47.50	     7.550
  10.020         63.33	     8.718
  10.040         71.67	     9.274
  10.060         68.33	     9.055
  10.080         59.17	     8.426
  10.100         71.67	     9.274
  10.120         55.83	     8.185
  10.140         68.33	     9.055
  10.160         67.50	     9.000
  10.180         65.00	     8.832
  10.200         75.00	     9.487
  10.220         74.17	     9.434
  10.240         68.33	     9.055
  10.260         70.83	     9.220
  10.280         52.50	     7.937
  10.300         70.00	     9.165
  10.320         66.67	     8.944
  10.340         48.33	     7.616
  10.360         53.33	     8.000
  10.380         64.17	     8.775
  10.400         45.83	     7.416
  10.420         68.33	     9.055
  10.440         44.17	     7.280
  10.460         52.50	     7.937
  10.480         55.00	     8.124
  10.500         63.33	     8.718
  10.520         48.33	     7.616
  10.540         57.50	     8.307
  10.560         60.83	     8.544
  10.580         66.67	     8.944
  10.600         52.50	     7.937
  10.620         69.17	     9.110
  10.640         53.33	     8.000
  10.660         64.17	     8.775
  10.680         62.50	     8.660
  10.700         63.33	     8.718
  10.720         70.00	     9.165
  10.740         81.67	     9.899
  10.760         65.83	     8.888
  10.780         65.00	     8.832
  10.800         69.17	     9.110
  10.820         78.33	     9.695
  10.840         69.17	     9.110
  10.860         64.17	     8.775
  10.880         67.50	     9.000
  10.900         54.17	     8.062
  10.920         64.17	     8.775
  10.940         50.00	     7.746
  10.960         55.83	     8.185
  10.980         62.50	     8.660
  11.000         64.17	     8.775
  11.020         63.33	     8.718
  11.040         64.17	     8.775
  11.060         74.17	     9.434
  11.080         49.17	     7.681
  11.100         54.17	     8.062
  11.120         44.17	     7.280
  11.140         54.17	     8.062
  11.160         45.00	     7.348
  11.180         50.00	     7.746
  11.200         55.83	     8.185
  11.220         60.00	     8.485
  11.240         66.67	     8.944
  11.260         38.33	     6.782
  11.280         56.67	     8.246
  11.300         60.00	     8.485
  11.320         53.33	     8.000
  11.340         44.17	     7.280
  11.360         48.33	     7.616
  11.380         67.50	     9.000
  11.400         54.17	     8.062
  11.420         62.50	     8.660
  11.440         55.83	     8.185
  11.460         43.33	     7.211
  11.480         51.67	     7.874
  11.500         47.50	     7.550
  11.520         54.17	     8.062
  11.540         53.33	     8.000
  11.560         56.67	     8.246
  11.580         47.50	     7.550
  11.600         47.50	     7.550
  11.620         46.67	     7.483
  11.640         57.50	     8.307
  11.660         43.33	     7.211
  11.680         55.83	     8.185
  11.700         48.33	     7.616
  11.720         40.83	     7.000
  11.740         56.67	     8.246
  11.760         49.17	     7.681
  11.780         40.00	     6.928
  11.800         55.83	     8.185
  11.820         50.00	     7.746
  11.840         45.00	     7.348
  11.860         56.67	     8.246
  11.880         42.50	     7.141
  11.900         55.83	     8.185
  11.920         51.67	     7.874
  11.940         55.83	     8.185
  11.960         44.17	     7.280
  11.980         55.00	     8.124
  12.000         53.33	     8.000
  12.020         45.00	     7.348
  12.040         54.17	     8.062
  12.060         63.33	     8.718
  12.080         50.83	     7.810
  12.100         63.33	     8.718
  12.120         55.83	     8.185
  12.140         45.83	     7.416
  12.160         57.50	     8.307
  12.180         63.33	     8.718
  12.200         60.00	     8.485
  12.220         50.00	     7.746
  12.240         52.50	     7.937
  12.260         47.50	     7.550
  12.280         69.17	     9.110
  12.300         64.17	     8.775
  12.320         66.67	     8.944
  12.340         71.67	     9.274
  12.360         91.67	    10.488
  12.380         78.33	     9.695
  12.400        141.67	    13.038
  12.420        142.50	    13.077
  12.440        172.50	    14.387
  12.460        230.00	    16.613
  12.480        230.83	    16.643
  12.500        200.00	    15.492
  12.520        144.17	    13.153
  12.540        120.00	    12.000
  12.560        105.00	    11.225
  12.580         91.67	    10.488
  12.600        102.50	    11.091
  12.620        123.33	    12.166
  12.640        117.50	    11.874
  12.660         97.50	    10.817
  12.680        100.00	    10.954
  12.700        115.00	    11.747
  12.720        137.50	    12.845
  12.740        130.00	    12.490
  12.760        161.67	    13.928
  12.780        148.33	    13.342
  12.800        135.83	    12.767
  12.820        120.83	    12.042
  12.840        103.33	    11.136
  12.860         88.33	    10.296
  12.880         71.67	     9.274
  12.900         72.50	     9.327
  12.920         50.00	     7.746
  12.940         60.83	     8.544
  12.960         45.00	     7.348
  12.980         59.17	     8.426
  13.000         49.17	     7.681
  13.020         54.17	     8.062
  13.040         43.33	     7.211
  13.060         45.83	     7.416
  13.080         45.83	     7.416
  13.100         52.50	     7.937
  13.120         45.00	     7.348
  13.140         43.33	     7.211
  13.160         48.33	     7.616
  13.180         50.83	     7.810
  13.200         47.50	     7.550
  13.220         50.83	     7.810
  13.240         37.50	     6.708
  13.260         44.17	     7.280
  13.280         45.00	     7.348
  13.300         39.17	     6.856
  13.320         44.17	     7.280
  13.340         45.83	     7.416
  13.360         50.00	     7.746
  13.380         43.33	     7.211
  13.400         47.50	     7.550
  13.420         39.17	     6.856
  13.440         59.17	     8.426
  13.460         55.83	     8.185
  13.480         47.50	     7.550
  13.500         45.83	     7.416
  13.520         36.67	     6.633
  13.540         47.50	     7.550
  13.560         39.17	     6.856
  13.580         51.67	     7.874
  13.600         50.83	     7.810
  13.620         31.67	     6.164
  13.640         42.50	     7.141
  13.660         44.17	     7.280
  13.680         40.83	     7.000
  13.700         45.83	     7.416
  13.720         34.17	     6.403
  13.740         41.67	     7.071
  13.760         40.00	     6.928
  13.780         50.00	     7.746
  13.800         40.83	     7.000
  13.820         38.33	     6.782
  13.840         42.50	     7.141
  13.860         57.50	     8.307
  13.880         38.33	     6.782
  13.900         45.83	     7.416
  13.920         39.17	     6.856
  13.940         38.33	     6.782
  13.960         51.67	     7.874
  13.980         36.67	     6.633
  14.000         44.17	     7.280
  14.020         47.50	     7.550
  14.040         64.17	     8.775
  14.060         55.00	     8.124
  14.080         76.67	     9.592
  14.100         90.00	    10.392
  14.120         90.00	    10.392
  14.140         85.00	    10.100
  14.160         78.33	     9.695
  14.180         55.83	     8.185
  14.200         48.33	     7.616
  14.220         59.17	     8.426
  14.240         48.33	     7.616
  14.260         46.67	     7.483
  14.280         52.50	     7.937
  14.300         45.83	     7.416
  14.320         43.33	     7.211
  14.340         45.83	     7.416
  14.360         37.50	     6.708
  14.380         34.17	     6.403
  14.400         38.33	     6.782
  14.420         44.17	     7.280
  14.440         36.67	     6.633
  14.460         28.33	     5.831
  14.480         38.33	     6.782
  14.500         38.33	     6.782
  14.520         31.67	     6.164
  14.540         37.50	     6.708
  14.560         54.17	     8.062
  14.580         31.67	     6.164
  14.600         42.50	     7.141
  14.620         36.67	     6.633
  14.640         36.67	     6.633
  14.660         28.33	     5.831
  14.680         45.00	     7.348
  14.700         39.17	     6.856
  14.720         34.17	     6.403
  14.740         34.17	     6.403
  14.760         29.17	     5.916
  14.780         31.67	     6.164
  14.800         27.50	     5.745
  14.820         30.83	     6.083
  14.840         28.33	     5.831
  14.860         26.67	     5.657
  14.880         35.83	     6.557
  14.900         34.17	     6.403
  14.920         43.33	     7.211
  14.940         30.83	     6.083
  14.960         38.33	     6.782
  14.980         36.67	     6.633
  15.000         35.00	     6.481
  15.020         33.33	     6.325
  15.040         28.33	     5.831
  15.060         36.67	     6.633
  15.080         32.50	     6.245
  15.100         39.17	     6.856
  15.120         35.00	     6.481
  15.140         26.67	     5.657
  15.160         49.17	     7.681
  15.180         34.17	     6.403
  15.200         37.50	     6.708
  15.220         37.50	     6.708
  15.240         40.00	     6.928
  15.260         33.33	     6.325
  15.280         37.50	     6.708
  15.300         42.50	     7.141
  15.320         43.33	     7.211
  15.340         50.00	     7.746
  15.360         36.67	     6.633
  15.380         35.00	     6.481
  15.400         41.67	     7.071
  15.420         40.00	     6.928
  15.440         25.83	     5.568
  15.460         40.83	     7.000
  15.480         40.00	     6.928
  15.500         32.50	     6.245
  15.520         37.50	     6.708
  15.540         35.83	     6.557
  15.560         34.17	     6.403
  15.580         35.83	     6.557
  15.600         25.00	     5.477
  15.620         29.17	     5.916
  15.640         30.83	     6.083
  15.660         26.67	     5.657
  15.680         35.00	     6.481
  15.700         33.33	     6.325
  15.720         35.00	     6.481
  15.740         35.00	     6.481
  15.760         38.33	     6.782
  15.780         36.67	     6.633
  15.800         31.67	     6.164
  15.820         31.67	     6.164
  15.840         23.33	     5.292
  15.860         30.83	     6.083
  15.880         40.00	     6.928
  15.900         28.33	     5.831
  15.920         39.17	     6.856
  15.940         33.33	     6.325
  15.960         28.33	     5.831
  15.980         36.67	     6.633
  16.000         40.00	     6.928
  16.020         50.00	     7.746
  16.040         26.67	     5.657
  16.060         50.00	     7.746
  16.080         30.83	     6.083
  16.100         32.50	     6.245
  16.120         32.50	     6.245
  16.140         29.17	     5.916
  16.160         35.00	     6.481
  16.180         35.00	     6.481
  16.200         33.33	     6.325
  16.220         40.00	     6.928
  16.240         28.33	     5.831
  16.260         25.00	     5.477
  16.280         26.67	     5.657
  16.300         35.83	     6.557
  16.320         30.00	     6.000
  16.340         38.33	     6.782
  16.360         35.83	     6.557
  16.380         35.00	     6.481
  16.400         37.50	     6.708
  16.420         37.50	     6.708
  16.440         29.17	     5.916
  16.460         25.83	     5.568
  16.480         23.33	     5.292
  16.500         26.67	     5.657
  16.520         40.83	     7.000
  16.540         30.00	     6.000
  16.560         30.00	     6.000
  16.580         18.33	     4.690
  16.600         25.83	     5.568
  16.620         31.67	     6.164
  16.640         32.50	     6.245
  16.660         33.33	     6.325
  16.680         28.33	     5.831
  16.700         37.50	     6.708
  16.720         34.17	     6.403
  16.740         32.50	     6.245
  16.760         40.00	     6.928
  16.780         36.67	     6.633
  16.800         29.17	     5.916
  16.820         31.67	     6.164
  16.840         35.00	     6.481
  16.860         21.67	     5.099
  16.880         29.17	     5.916
  16.900         33.33	     6.325
  16.920         28.33	     5.831
  16.940         25.00	     5.477
  16.960         39.17	     6.856
  16.980         25.83	     5.568
  17.000         23.33	     5.292
  17.020         35.83	     6.557
  17.040         30.00	     6.000
  17.060         24.17	     5.385
  17.080         44.17	     7.280
  17.100         30.00	     6.000
  17.120         32.50	     6.245
  17.140         37.50	     6.708
  17.160         21.67	     5.099
  17.180         32.50	     6.245
  17.200         29.17	     5.916
  17.220         25.00	     5.477
  17.240         34.17	     6.403
  17.260         32.50	     6.245
  17.280         32.50	     6.245
  17.300         28.33	     5.831
  17.320         28.33	     5.831
  17.340         30.83	     6.083
  17.360         28.33	     5.831
  17.380         31.67	     6.164
  17.400         36.67	     6.633
  17.420         30.00	     6.000
  17.440         30.83	     6.083
  17.460         23.33	     5.292
  17.480         39.17	     6.856
  17.500         24.17	     5.385
  17.520         38.33	     6.782
  17.540         28.33	     5.831
  17.560         25.00	     5.477
  17.580         25.83	     5.568
  17.600         30.83	     6.083
  17.620         30.83	     6.083
  17.640         24.17	     5.385
  17.660         28.33	     5.831
  17.680         36.67	     6.633
  17.700         34.17	     6.403
  17.720         32.50	     6.245
  17.740         37.50	     6.708
  17.760         34.17	     6.403
  17.780         29.17	     5.916
  17.800         26.67	     5.657
  17.820         33.33	     6.325
  17.840         40.00	     6.928
  17.860         30.83	     6.083
  17.880         45.83	     7.416
  17.900         37.50	     6.708
  17.920         45.83	     7.416
  17.940         51.67	     7.874
  17.960         68.33	     9.055
  17.980         57.50	     8.307
  18.000         70.83	     9.220
  18.020         71.67	     9.274
  18.040         54.17	     8.062
  18.060         63.33	     8.718
  18.080         92.50	    10.536
  18.100         77.50	     9.644
  18.120         78.33	     9.695
  18.140         85.83	    10.149
  18.160         78.33	     9.695
  18.180         52.50	     7.937
  18.200         51.67	     7.874
  18.220         38.33	     6.782
  18.240         37.50	     6.708
  18.260         43.33	     7.211
  18.280         44.17	     7.280
  18.300         33.33	     6.325
  18.320         40.00	     6.928
  18.340         33.33	     6.325
  18.360         30.00	     6.000
  18.380         43.33	     7.211
  18.400         35.00	     6.481
  18.420         35.00	     6.481
  18.440         30.83	     6.083
  18.460         28.33	     5.831
  18.480         29.17	     5.916
  18.500         33.33	     6.325
  18.520         40.00	     6.928
  18.540         25.00	     5.477
  18.560         34.17	     6.403
  18.580         20.00	     4.899
  18.600         30.83	     6.083
  18.620         37.50	     6.708
  18.640         29.17	     5.916
  18.660         40.00	     6.928
  18.680         34.17	     6.403
  18.700         40.83	     7.000
  18.720         44.17	     7.280
  18.740         25.83	     5.568
  18.760         24.17	     5.385
  18.780         38.33	     6.782
  18.800         29.17	     5.916
  18.820         53.33	     8.000
  18.840         49.17	     7.681
  18.860         63.33	     8.718
  18.880         60.00	     8.485
  18.900         47.50	     7.550
  18.920         40.83	     7.000
  18.940         40.83	     7.000
  18.960         54.17	     8.062
  18.980         40.83	     7.000
  19.000         62.50	     8.660
  19.020         60.00	     8.485
  19.040         66.67	     8.944
  19.060         75.00	     9.487
  19.080         76.67	     9.592
  19.100         82.50	     9.950
  19.120         51.67	     7.874
  19.140         53.33	     8.000
  19.160         48.33	     7.616
  19.180         39.17	     6.856
  19.200         47.50	     7.550
  19.220         37.50	     6.708
  19.240         34.17	     6.403
  19.260         27.50	     5.745
  19.280         27.50	     5.745
  19.300         44.17	     7.280
  19.320         33.33	     6.325
  19.340         37.50	     6.708
  19.360         23.33	     5.292
  19.380         40.83	     7.000
  19.400         39.17	     6.856
  19.420         34.17	     6.403
  19.440         39.17	     6.856
  19.460         45.00	     7.348
  19.480         48.33	     7.616
  19.500         45.83	     7.416
  19.520         44.17	     7.280
  19.540         37.50	     6.708
  19.560         44.17	     7.280
  19.580         46.67	     7.483
  19.600         40.83	     7.000
  19.620         51.67	     7.874
  19.640         49.17	     7.681
  19.660         60.00	     8.485
  19.680         64.17	     8.775
  19.700         58.33	     8.367
  19.720         55.83	     8.185
  19.740         36.67	     6.633
  19.760         50.00	     7.746
  19.780         30.83	     6.083
  19.800         38.33	     6.782
  19.820         36.67	     6.633
  19.840         47.50	     7.550
  19.860         47.50	     7.550
  19.880         41.67	     7.071
  19.900         58.33	     8.367
  19.920         55.83	     8.185
  19.940         52.50	     7.937
  19.960         57.50	     8.307
  19.980         60.83	     8.544
  20.000         70.00	     9.165
  20.020         91.67	    10.488
  20.040         70.00	     9.165
  20.060         64.17	     8.775
  20.080         74.17	     9.434
  20.100         68.33	     9.055
  20.120         91.67	    10.488
  20.140         77.50	     9.644
  20.160         80.00	     9.798
  20.180         74.17	     9.434
  20.200         60.83	     8.544
  20.220         62.50	     8.660
  20.240         58.33	     8.367
  20.260         54.17	     8.062
  20.280         54.17	     8.062
  20.300         51.67	     7.874
  20.320         49.17	     7.681
  20.340         51.67	     7.874
  20.360         50.83	     7.810
  20.380         55.00	     8.124
  20.400         45.83	     7.416
  20.420         47.50	     7.550
  20.440         50.00	     7.746
  20.460         36.67	     6.633
  20.480         46.67	     7.483
  20.500         43.33	     7.211
  20.520         42.50	     7.141
  20.540         35.00	     6.481
  20.560         40.83	     7.000
  20.580         34.17	     6.403
  20.600         30.00	     6.000
  20.620         39.17	     6.856
  20.640         32.50	     6.245
  20.660         36.67	     6.633
  20.680         39.17	     6.856
  20.700         40.00	     6.928
  20.720         34.17	     6.403
  20.740         30.00	     6.000
  20.760         44.17	     7.280
  20.780         38.33	     6.782
  20.800         35.00	     6.481
  20.820         42.50	     7.141
  20.840         40.83	     7.000
  20.860         57.50	     8.307
  20.880         50.00	     7.746
  20.900         56.67	     8.246
  20.920         53.33	     8.000
  20.940         55.00	     8.124
  20.960         57.50	     8.307
  20.980         55.83	     8.185
  21.000         80.83	     9.849
  21.020         89.17	    10.344
  21.040         73.33	     9.381
  21.060        108.33	    11.402
  21.080        147.50	    13.304
  21.100        206.67	    15.748
  21.120        273.33	    18.111
  21.140        369.17	    21.048
  21.160        345.00	    20.347
  21.180        290.00	    18.655
  21.200        254.17	    17.464
  21.220        301.67	    19.026
  21.240        287.50	    18.574
  21.260        245.00	    17.146
  21.280        210.83	    15.906
  21.300        195.00	    15.297
  21.320        116.67	    11.832
  21.340         92.50	    10.536
  21.360         80.83	     9.849
  21.380         65.83	     8.888
  21.400         56.67	     8.246
  21.420         68.33	     9.055
  21.440         40.00	     6.928
  21.460         43.33	     7.211
  21.480         43.33	     7.211
  21.500         38.33	     6.782
  21.520         43.33	     7.211
  21.540         35.00	     6.481
  21.560         39.17	     6.856
  21.580         37.50	     6.708
  21.600         39.17	     6.856
  21.620         33.33	     6.325
  21.640         35.83	     6.557
  21.660         31.67	     6.164
  21.680         43.33	     7.211
  21.700         42.50	     7.141
  21.720         40.00	     6.928
  21.740         33.33	     6.325
  21.760         40.83	     7.000
  21.780         42.50	     7.141
  21.800         39.17	     6.856
  21.820         38.33	     6.782
  21.840         38.33	     6.782
  21.860         51.67	     7.874
  21.880         47.50	     7.550
  21.900         35.00	     6.481
  21.920         43.33	     7.211
  21.940         43.33	     7.211
  21.960         38.33	     6.782
  21.980         40.00	     6.928
  22.000         31.67	     6.164
  22.020         29.17	     5.916
  22.040         35.83	     6.557
  22.060         53.33	     8.000
  22.080         45.83	     7.416
  22.100         38.33	     6.782
  22.120         40.00	     6.928
  22.140         49.17	     7.681
  22.160         41.67	     7.071
  22.180         54.17	     8.062
  22.200         66.67	     8.944
  22.220         75.00	     9.487
  22.240        104.17	    11.180
  22.260        150.83	    13.454
  22.280        193.33	    15.232
  22.300        220.83	    16.279
  22.320        270.00	    18.000
  22.340        230.83	    16.643
  22.360        167.50	    14.177
  22.380        150.83	    13.454
  22.400        153.33	    13.565
  22.420        137.50	    12.845
  22.440        108.33	    11.402
  22.460         92.50	    10.536
  22.480         85.83	    10.149
  22.500         67.50	     9.000
  22.520         56.67	     8.246
  22.540         59.17	     8.426
  22.560         57.50	     8.307
  22.580         47.50	     7.550
  22.600         45.00	     7.348
  22.620         63.33	     8.718
  22.640         52.50	     7.937
  22.660         57.50	     8.307
  22.680         41.67	     7.071
  22.700         52.50	     7.937
  22.720         54.17	     8.062
  22.740         55.83	     8.185
  22.760         56.67	     8.246
  22.780         46.67	     7.483
  22.800         49.17	     7.681
  22.820         56.67	     8.246
  22.840         34.17	     6.403
  22.860         53.33	     8.000
  22.880         57.50	     8.307
  22.900         37.50	     6.708
  22.920         46.67	     7.483
  22.940         44.17	     7.280
  22.960         36.67	     6.633
  22.980         37.50	     6.708
  23.000         34.17	     6.403
  23.020         47.50	     7.550
  23.040         40.00	     6.928
  23.060         53.33	     8.000
  23.080         43.33	     7.211
  23.100         52.50	     7.937
  23.120         65.83	     8.888
  23.140         76.67	     9.592
  23.160         85.83	    10.149
  23.180         80.83	     9.849
  23.200         84.17	    10.050
  23.220         84.17	    10.050
  23.240         80.83	     9.849
  23.260        103.33	    11.136
  23.280         89.17	    10.344
  23.300         84.17	    10.050
  23.320         83.33	    10.000
  23.340         75.00	     9.487
  23.360         80.00	     9.798
  23.380         59.17	     8.426
  23.400         50.00	     7.746
  23.420         48.33	     7.616
  23.440         48.33	     7.616
  23.460         43.33	     7.211
  23.480         31.67	     6.164
  23.500         43.33	     7.211
  23.520         44.17	     7.280
  23.540         43.33	     7.211
  23.560         42.50	     7.141
  23.580         32.50	     6.245
  23.600         30.00	     6.000
  23.620         40.83	     7.000
  23.640         43.33	     7.211
  23.660         29.17	     5.916
  23.680         50.00	     7.746
  23.700         52.50	     7.937
  23.720         65.83	     8.888
  23.740         72.50	     9.327
  23.760         83.33	    10.000
  23.780         87.50	    10.247
  23.800         99.17	    10.909
  23.820        120.00	    12.000
  23.840        111.67	    11.576
  23.860        110.83	    11.533
  23.880         94.17	    10.630
  23.900        105.00	    11.225
  23.920         85.83	    10.149
  23.940         76.67	     9.592
  23.960         66.67	     8.944
  23.980         68.33	     9.055
  24.000         56.67	     8.246
  24.020         74.17	     9.434
  24.040         73.33	     9.381
  24.060         69.17	     9.110
  24.080         79.17	     9.747
  24.100         87.50	    10.247
  24.120         91.67	    10.488
  24.140         76.67	     9.592
  24.160         75.83	     9.539
  24.180         85.83	    10.149
  24.200         59.17	     8.426
  24.220         71.67	     9.274
  24.240         69.17	     9.110
  24.260         88.33	    10.296
  24.280         68.33	     9.055
  24.300         81.67	     9.899
  24.320         69.17	     9.110
  24.340         84.17	    10.050
  24.360         82.50	     9.950
  24.380         82.50	     9.950
  24.400         75.83	     9.539
  24.420        100.83	    11.000
  24.440        110.83	    11.533
  24.460        121.67	    12.083
  24.480        120.83	    12.042
  24.500        120.00	    12.000
  24.520        111.67	    11.576
  24.540        143.33	    13.115
  24.560        147.50	    13.304
  24.580        206.67	    15.748
  24.600        260.83	    17.692
  24.620        193.33	    15.232
  24.640        172.50	    14.387
  24.660        175.83	    14.526
  24.680        134.17	    12.689
  24.700         80.00	     9.798
  24.720         85.83	    10.149
  24.740         83.33	    10.000
  24.760        101.67	    11.045
  24.780        104.17	    11.180
  24.800        126.67	    12.329
  24.820        174.17	    14.457
  24.840        191.67	    15.166
  24.860        227.50	    16.523
  24.880        219.17	    16.217
  24.900        224.17	    16.401
  24.920        220.00	    16.248
  24.940        185.00	    14.900
  24.960        168.33	    14.213
  24.980        164.17	    14.036
  25.000        127.50	    12.369
  25.020        147.50	    13.304
  25.040        100.00	    10.954
  25.060        100.00	    10.954
  25.080        100.00	    10.954
  25.100         89.17	    10.344
  25.120        106.67	    11.314
  25.140        111.67	    11.576
  25.160         93.33	    10.583
  25.180         92.50	    10.536
  25.200         95.83	    10.724
  25.220         86.67	    10.198
  25.240         82.50	     9.950
  25.260         81.67	     9.899
  25.280         97.50	    10.817
  25.300         80.83	     9.849
  25.320         78.33	     9.695
  25.340         81.67	     9.899
  25.360        122.50	    12.124
  25.380        131.67	    12.570
  25.400        153.33	    13.565
  25.420        156.67	    13.711
  25.440        169.17	    14.248
  25.460        160.83	    13.892
  25.480        123.33	    12.166
  25.500        124.17	    12.207
  25.520        112.50	    11.619
  25.540        105.83	    11.269
  25.560        101.67	    11.045
  25.580         98.33	    10.863
  25.600         92.50	    10.536
  25.620        115.83	    11.790
  25.640        125.00	    12.247
  25.660        120.00	    12.000
  25.680        130.83	    12.530
  25.700        166.67	    14.142
  25.720        160.83	    13.892
  25.740        197.50	    15.395
  25.760        209.17	    15.843
  25.780        239.17	    16.941
  25.800        224.17	    16.401
  25.820        216.67	    16.125
  25.840        206.67	    15.748
  25.860        217.50	    16.155
  25.880        207.50	    15.780
  25.900        236.67	    16.852
  25.920        248.33	    17.263
  25.940        224.17	    16.401
  25.960        189.17	    15.067
  25.980        170.00	    14.283
  26.000        133.33	    12.649
  26.020        135.83	    12.767
  26.040        101.67	    11.045
  26.060         88.33	    10.296
  26.080         81.67	     9.899
  26.100         77.50	     9.644
  26.120         90.00	    10.392
  26.140         81.67	     9.899
  26.160         63.33	     8.718
  26.180         52.50	     7.937
  26.200         60.83	     8.544
  26.220         61.67	     8.602
  26.240         51.67	     7.874
  26.260         60.00	     8.485
  26.280         53.33	     8.000
  26.300         57.50	     8.307
  26.320         70.00	     9.165
  26.340         47.50	     7.550
  26.360         63.33	     8.718
  26.380         49.17	     7.681
  26.400         64.17	     8.775
  26.420         83.33	    10.000
  26.440         53.33	     8.000
  26.460         69.17	     9.110
  26.480         82.50	     9.950
  26.500         71.67	     9.274
  26.520         77.50	     9.644
  26.540         98.33	    10.863
  26.560         70.00	     9.165
  26.580         99.17	    10.909
  26.600        108.33	    11.402
  26.620         92.50	    10.536
  26.640        128.33	    12.410
  26.660        157.50	    13.748
  26.680        187.50	    15.000
  26.700        189.17	    15.067
  26.720        211.67	    15.937
  26.740        228.33	    16.553
  26.760        241.67	    17.029
  26.780        281.67	    18.385
  26.800        361.67	    20.833
  26.820        536.67	    25.377
  26.840       1030.00	    35.157
  26.860       2095.83	    50.150
  26.880       3244.17	    62.394
  26.900       3767.50	    67.238
  26.920       3436.67	    64.218
  26.940       3198.33	    61.952
  26.960       3115.83	    61.147
  26.980       2411.67	    53.796
  27.000       1630.00	    44.227
  27.020       1263.33	    38.936
  27.040        950.83	    33.779
  27.060        678.33	    28.531
  27.080        471.67	    23.791
  27.100        468.33	    23.707
  27.120        442.50	    23.043
  27.140        422.50	    22.517
  27.160        372.50	    21.142
  27.180        338.33	    20.149
  27.200        288.33	    18.601
  27.220        230.83	    16.643
  27.240        199.17	    15.460
  27.260        150.00	    13.416
  27.280        127.50	    12.369
  27.300        115.83	    11.790
  27.320        125.00	    12.247
  27.340        116.67	    11.832
  27.360        135.00	    12.728
  27.380        116.67	    11.832
  27.400        120.00	    12.000
  27.420        113.33	    11.662
  27.440        110.83	    11.533
  27.460        115.00	    11.747
  27.480        104.17	    11.180
  27.500        104.17	    11.180
  27.520         79.17	     9.747
  27.540         76.67	     9.592
  27.560         63.33	     8.718
  27.580         70.83	     9.220
  27.600         76.67	     9.592
  27.620         88.33	    10.296
  27.640         74.17	     9.434
  27.660         91.67	    10.488
  27.680        100.00	    10.954
  27.700        125.83	    12.288
  27.720        116.67	    11.832
  27.740        167.50	    14.177
  27.760        168.33	    14.213
  27.780        180.00	    14.697
  27.800        153.33	    13.565
  27.820        172.50	    14.387
  27.840        150.83	    13.454
  27.860        110.00	    11.489
  27.880        114.17	    11.705
  27.900        121.67	    12.083
  27.920        116.67	    11.832
  27.940        107.50	    11.358
  27.960        162.50	    13.964
  27.980        190.83	    15.133
  28.000        204.17	    15.652
  28.020        201.67	    15.556
  28.040        212.50	    15.969
  28.060        212.50	    15.969
  28.080        236.67	    16.852
  28.100        343.33	    20.298
  28.120        354.17	    20.616
  28.140        473.33	    23.833
  28.160        445.00	    23.108
  28.180        475.83	    23.896
  28.200        518.33	    24.940
  28.220        553.33	    25.768
  28.240        555.00	    25.807
  28.260        496.67	    24.413
  28.280        399.17	    21.886
  28.300        325.83	    19.774
  28.320        306.67	    19.183
  28.340        234.17	    16.763
  28.360        180.00	    14.697
  28.380        166.67	    14.142
  28.400        170.00	    14.283
  28.420        127.50	    12.369
  28.440        136.67	    12.806
  28.460        112.50	    11.619
  28.480        125.00	    12.247
  28.500        120.83	    12.042
  28.520        116.67	    11.832
  28.540        118.33	    11.916
  28.560        158.33	    13.784
  28.580        128.33	    12.410
  28.600        126.67	    12.329
  28.620        123.33	    12.166
  28.640        125.83	    12.288
  28.660        106.67	    11.314
  28.680         92.50	    10.536
  28.700         65.00	     8.832
  28.720         69.17	     9.110
  28.740         53.33	     8.000
  28.760         65.83	     8.888
  28.780         87.50	    10.247
  28.800         90.00	    10.392
  28.820         71.67	     9.274
  28.840        110.83	    11.533
  28.860        133.33	    12.649
  28.880        104.17	    11.180
  28.900         95.00	    10.677
  28.920        115.83	    11.790
  28.940        115.83	    11.790
  28.960        107.50	    11.358
  28.980        123.33	    12.166
  29.000        101.67	    11.045
  29.020        115.83	    11.790
  29.040         91.67	    10.488
  29.060         75.00	     9.487
  29.080         80.83	     9.849
  29.100         48.33	     7.616
  29.120         57.50	     8.307
  29.140         37.50	     6.708
  29.160         62.50	     8.660
  29.180         55.00	     8.124
  29.200         46.67	     7.483
  29.220         50.00	     7.746
  29.240         50.00	     7.746
  29.260         40.00	     6.928
  29.280         36.67	     6.633
  29.300         40.83	     7.000
  29.320         47.50	     7.550
  29.340         33.33	     6.325
  29.360         47.50	     7.550
  29.380         43.33	     7.211
  29.400         29.17	     5.916
  29.420         40.83	     7.000
  29.440         46.67	     7.483
  29.460         45.83	     7.416
  29.480         51.67	     7.874
  29.500         34.17	     6.403
  29.520         38.33	     6.782
  29.540         45.83	     7.416
  29.560         35.00	     6.481
  29.580         35.83	     6.557
  29.600         43.33	     7.211
  29.620         39.17	     6.856
  29.640         33.33	     6.325
  29.660         40.00	     6.928
  29.680         45.00	     7.348
  29.700         43.33	     7.211
  29.720         42.50	     7.141
  29.740         41.67	     7.071
  29.760         40.83	     7.000
  29.780         45.00	     7.348
  29.800         39.17	     6.856
  29.820         36.67	     6.633
  29.840         45.83	     7.416
  29.860         56.67	     8.246
  29.880         37.50	     6.708
  29.900         41.67	     7.071
  29.920         54.17	     8.062
  29.940         45.00	     7.348
  29.960         48.33	     7.616
  29.980         50.00	     7.746
  30.000         55.00	     8.124
  30.020         76.67	     9.592
  30.040         67.50	     9.000
  30.060         91.67	    10.488
  30.080         98.33	    10.863
  30.100        114.17	    11.705
  30.120        128.33	    12.410
  30.140        155.83	    13.675
  30.160        161.67	    13.928
  30.180        146.67	    13.266
  30.200        156.67	    13.711
  30.220        140.83	    13.000
  30.240        131.67	    12.570
  30.260        118.33	    11.916
  30.280         98.33	    10.863
  30.300        100.00	    10.954
  30.320         93.33	    10.583
  30.340        100.00	    10.954
  30.360        101.67	    11.045
  30.380         92.50	    10.536
  30.400         99.17	    10.909
  30.420         95.83	    10.724
  30.440         73.33	     9.381
  30.460         72.50	     9.327
  30.480         97.50	    10.817
  30.500        107.50	    11.358
  30.520        107.50	    11.358
  30.540        115.00	    11.747
  30.560        110.83	    11.533
  30.580        104.17	    11.180
  30.600         90.83	    10.440
  30.620        118.33	    11.916
  30.640        127.50	    12.369
  30.660        162.50	    13.964
  30.680        103.33	    11.136
  30.700        130.83	    12.530
  30.720        149.17	    13.379
  30.740        201.67	    15.556
  30.760        290.00	    18.655
  30.780        309.17	    19.261
  30.800        209.17	    15.843
  30.820        184.17	    14.866
  30.840        190.83	    15.133
  30.860        191.67	    15.166
  30.880        130.83	    12.530
  30.900         79.17	     9.747
  30.920         55.00	     8.124
  30.940         58.33	     8.367
  30.960         58.33	     8.367
  30.980         55.83	     8.185
  31.000         58.33	     8.367
  31.020         58.33	     8.367
  31.040         50.83	     7.810
  31.060         73.33	     9.381
  31.080         69.17	     9.110
  31.100         67.50	     9.000
  31.120         73.33	     9.381
  31.140         82.50	     9.950
  31.160         88.33	    10.296
  31.180         81.67	     9.899
  31.200         75.00	     9.487
  31.220         69.17	     9.110
  31.240         62.50	     8.660
  31.260         50.00	     7.746
  31.280         60.00	     8.485
  31.300         66.67	     8.944
  31.320         66.67	     8.944
  31.340         70.83	     9.220
  31.360         53.33	     8.000
  31.380         77.50	     9.644
  31.400         70.00	     9.165
  31.420         81.67	     9.899
  31.440         85.83	    10.149
  31.460         92.50	    10.536
  31.480        116.67	    11.832
  31.500        145.83	    13.229
  31.520        152.50	    13.528
  31.540        150.83	    13.454
  31.560        145.83	    13.229
  31.580        171.67	    14.353
  31.600        130.83	    12.530
  31.620        123.33	    12.166
  31.640         97.50	    10.817
  31.660         93.33	    10.583
  31.680         65.00	     8.832
  31.700         65.00	     8.832
  31.720         52.50	     7.937
  31.740         63.33	     8.718
  31.760         50.83	     7.810
  31.780         45.00	     7.348
  31.800         49.17	     7.681
  31.820         70.83	     9.220
  31.840         65.00	     8.832
  31.860         67.50	     9.000
  31.880         63.33	     8.718
  31.900         69.17	     9.110
  31.920         59.17	     8.426
  31.940         67.50	     9.000
  31.960         60.00	     8.485
  31.980         45.00	     7.348
  32.000         35.83	     6.557
  32.020         40.00	     6.928
  32.040         50.83	     7.810
  32.060         38.33	     6.782
  32.080         31.67	     6.164
  32.100         40.83	     7.000
  32.120         41.67	     7.071
  32.140         40.83	     7.000
  32.160         47.50	     7.550
  32.180         43.33	     7.211
  32.200         60.00	     8.485
  32.220         49.17	     7.681
  32.240         47.50	     7.550
  32.260         41.67	     7.071
  32.280         66.67	     8.944
  32.300         63.33	     8.718
  32.320         68.33	     9.055
  32.340         73.33	     9.381
  32.360         78.33	     9.695
  32.380        111.67	    11.576
  32.400         76.67	     9.592
  32.420         68.33	     9.055
  32.440         71.67	     9.274
  32.460         60.00	     8.485
  32.480         57.50	     8.307
  32.500         55.83	     8.185
  32.520         70.83	     9.220
  32.540         40.00	     6.928
  32.560         47.50	     7.550
  32.580         46.67	     7.483
  32.600         54.17	     8.062
  32.620         44.17	     7.280
  32.640         42.50	     7.141
  32.660         39.17	     6.856
  32.680         37.50	     6.708
  32.700         28.33	     5.831
  32.720         29.17	     5.916
  32.740         28.33	     5.831
  32.760         35.00	     6.481
  32.780         38.33	     6.782
  32.800         35.00	     6.481
  32.820         35.00	     6.481
  32.840         19.17	     4.796
  32.860         27.50	     5.745
  32.880         30.83	     6.083
  32.900         30.83	     6.083
  32.920         27.50	     5.745
  32.940         33.33	     6.325
  32.960         24.17	     5.385
  32.980         24.17	     5.385
  33.000         28.33	     5.831
  33.020         35.83	     6.557
  33.040         27.50	     5.745
  33.060         49.17	     7.681
  33.080         52.50	     7.937
  33.100         45.00	     7.348
  33.120         46.67	     7.483
  33.140         40.00	     6.928
  33.160         40.83	     7.000
  33.180         37.50	     6.708
  33.200         36.67	     6.633
  33.220         41.67	     7.071
  33.240         32.50	     6.245
  33.260         50.00	     7.746
  33.280         58.33	     8.367
  33.300         85.83	    10.149
  33.320        165.00	    14.071
  33.340        148.33	    13.342
  33.360         83.33	    10.000
  33.380         84.17	    10.050
  33.400        105.83	    11.269
  33.420         91.67	    10.488
  33.440         69.17	     9.110
  33.460         68.33	     9.055
  33.480         45.00	     7.348
  33.500         38.33	     6.782
  33.520         31.67	     6.164
  33.540         35.00	     6.481
  33.560         39.17	     6.856
  33.580         31.67	     6.164
  33.600         33.33	     6.325
  33.620         39.17	     6.856
  33.640         35.83	     6.557
  33.660         34.17	     6.403
  33.680         35.00	     6.481
  33.700         28.33	     5.831
  33.720         35.83	     6.557
  33.740         42.50	     7.141
  33.760         32.50	     6.245
  33.780         52.50	     7.937
  33.800         44.17	     7.280
  33.820         48.33	     7.616
  33.840         32.50	     6.245
  33.860         40.83	     7.000
  33.880         37.50	     6.708
  33.900         44.17	     7.280
  33.920         36.67	     6.633
  33.940         42.50	     7.141
  33.960         35.00	     6.481
  33.980         25.83	     5.568
  34.000         39.17	     6.856
  34.020         42.50	     7.141
  34.040         35.83	     6.557
  34.060         30.83	     6.083
  34.080         41.67	     7.071
  34.100         35.00	     6.481
  34.120         33.33	     6.325
  34.140         39.17	     6.856
  34.160         54.17	     8.062
  34.180         55.00	     8.124
  34.200         51.67	     7.874
  34.220         50.83	     7.810
  34.240         46.67	     7.483
  34.260         50.00	     7.746
  34.280         54.17	     8.062
  34.300         60.00	     8.485
  34.320         45.83	     7.416
  34.340         59.17	     8.426
  34.360         42.50	     7.141
  34.380         42.50	     7.141
  34.400         60.83	     8.544
  34.420         40.83	     7.000
  34.440         55.00	     8.124
  34.460         37.50	     6.708
  34.480         47.50	     7.550
  34.500         40.00	     6.928
  34.520         47.50	     7.550
  34.540         32.50	     6.245
  34.560         30.83	     6.083
  34.580         55.83	     8.185
  34.600         51.67	     7.874
  34.620         70.00	     9.165
  34.640         60.83	     8.544
  34.660         65.00	     8.832
  34.680         71.67	     9.274
  34.700         83.33	    10.000
  34.720         69.17	     9.110
  34.740        107.50	    11.358
  34.760         95.83	    10.724
  34.780        104.17	    11.180
  34.800        105.83	    11.269
  34.820        109.17	    11.446
  34.840        120.83	    12.042
  34.860        134.17	    12.689
  34.880        105.00	    11.225
  34.900        116.67	    11.832
  34.920         86.67	    10.198
  34.940        108.33	    11.402
  34.960         80.83	     9.849
  34.980         72.50	     9.327
  35.000         71.67	     9.274
  35.020         76.67	     9.592
  35.040         61.67	     8.602
  35.060         65.00	     8.832
  35.080         80.00	     9.798
  35.100         85.83	    10.149
  35.120         96.67	    10.770
  35.140        106.67	    11.314
  35.160        116.67	    11.832
  35.180        105.00	    11.225
  35.200        124.17	    12.207
  35.220        120.83	    12.042
  35.240        141.67	    13.038
  35.260        137.50	    12.845
  35.280        134.17	    12.689
  35.300        109.17	    11.446
  35.320        110.00	    11.489
  35.340        119.17	    11.958
  35.360        119.17	    11.958
  35.380         96.67	    10.770
  35.400         84.17	    10.050
  35.420         90.00	    10.392
  35.440         85.83	    10.149
  35.460         80.00	     9.798
  35.480         82.50	     9.950
  35.500         89.17	    10.344
  35.520         78.33	     9.695
  35.540         71.67	     9.274
  35.560         80.00	     9.798
  35.580         75.83	     9.539
  35.600         71.67	     9.274
  35.620         76.67	     9.592
  35.640         73.33	     9.381
  35.660         91.67	    10.488
  35.680         87.50	    10.247
  35.700         95.00	    10.677
  35.720         96.67	    10.770
  35.740        106.67	    11.314
  35.760        122.50	    12.124
  35.780        122.50	    12.124
  35.800        145.00	    13.191
  35.820        162.50	    13.964
  35.840        142.50	    13.077
  35.860        157.50	    13.748
  35.880        165.00	    14.071
  35.900        131.67	    12.570
  35.920        128.33	    12.410
  35.940        115.83	    11.790
  35.960         90.83	    10.440
  35.980         84.17	    10.050
  36.000         85.83	    10.149
  36.020         75.00	     9.487
  36.040         63.33	     8.718
  36.060         65.83	     8.888
  36.080         61.67	     8.602
  36.100         66.67	     8.944
  36.120         75.00	     9.487
  36.140         69.17	     9.110
  36.160         74.17	     9.434
  36.180         58.33	     8.367
  36.200         60.00	     8.485
  36.220         56.67	     8.246
  36.240         45.00	     7.348
  36.260         44.17	     7.280
  36.280         62.50	     8.660
  36.300         52.50	     7.937
  36.320         50.83	     7.810
  36.340         63.33	     8.718
  36.360         68.33	     9.055
  36.380         73.33	     9.381
  36.400         65.83	     8.888
  36.420         52.50	     7.937
  36.440         52.50	     7.937
  36.460         55.83	     8.185
  36.480         54.17	     8.062
  36.500         65.83	     8.888
  36.520         39.17	     6.856
  36.540         46.67	     7.483
  36.560         57.50	     8.307
  36.580         54.17	     8.062
  36.600         45.83	     7.416
  36.620         52.50	     7.937
  36.640         55.00	     8.124
  36.660         74.17	     9.434
  36.680         60.83	     8.544
  36.700         75.83	     9.539
  36.720         98.33	    10.863
  36.740        115.00	    11.747
  36.760        133.33	    12.649
  36.780        185.00	    14.900
  36.800        264.17	    17.804
  36.820        265.00	    17.833
  36.840        195.00	    15.297
  36.860        160.83	    13.892
  36.880        165.83	    14.107
  36.900        204.17	    15.652
  36.920        150.00	    13.416
  36.940        124.17	    12.207
  36.960         95.00	    10.677
  36.980        105.00	    11.225
  37.000        106.67	    11.314
  37.020         91.67	    10.488
  37.040        100.00	    10.954
  37.060         90.83	    10.440
  37.080         64.17	     8.775
  37.100         57.50	     8.307
  37.120         64.17	     8.775
  37.140         55.83	     8.185
  37.160         60.83	     8.544
  37.180         54.17	     8.062
  37.200         47.50	     7.550
  37.220         57.50	     8.307
  37.240         63.33	     8.718
  37.260         65.83	     8.888
  37.280         56.67	     8.246
  37.300         40.83	     7.000
  37.320         45.00	     7.348
  37.340         50.83	     7.810
  37.360         48.33	     7.616
  37.380         47.50	     7.550
  37.400         50.83	     7.810
  37.420         40.83	     7.000
  37.440         55.83	     8.185
  37.460         47.50	     7.550
  37.480         42.50	     7.141
  37.500         44.17	     7.280
  37.520         37.50	     6.708
  37.540         40.00	     6.928
  37.560         56.67	     8.246
  37.580         69.17	     9.110
  37.600         59.17	     8.426
  37.620         48.33	     7.616
  37.640         62.50	     8.660
  37.660         73.33	     9.381
  37.680         83.33	    10.000
  37.700         68.33	     9.055
  37.720         78.33	     9.695
  37.740         82.50	     9.950
  37.760         65.00	     8.832
  37.780         60.83	     8.544
  37.800         74.17	     9.434
  37.820         64.17	     8.775
  37.840         73.33	     9.381
  37.860         77.50	     9.644
  37.880         86.67	    10.198
  37.900         94.17	    10.630
  37.920         89.17	    10.344
  37.940         95.00	    10.677
  37.960        100.00	    10.954
  37.980         95.83	    10.724
  38.000         88.33	    10.296
  38.020         81.67	     9.899
  38.040         83.33	    10.000
  38.060         64.17	     8.775
  38.080         78.33	     9.695
  38.100         61.67	     8.602
  38.120         51.67	     7.874
  38.140         55.00	     8.124
  38.160         41.67	     7.071
  38.180         48.33	     7.616
  38.200         41.67	     7.071
  38.220         40.00	     6.928
  38.240         37.50	     6.708
  38.260         32.50	     6.245
  38.280         25.83	     5.568
  38.300         31.67	     6.164
  38.320         33.33	     6.325
  38.340         25.00	     5.477
  38.360         27.50	     5.745
  38.380         28.33	     5.831
  38.400         25.83	     5.568
  38.420         27.50	     5.745
  38.440         27.50	     5.745
  38.460         31.67	     6.164
  38.480         32.50	     6.245
  38.500         24.17	     5.385
  38.520         40.00	     6.928
  38.540         29.17	     5.916
  38.560         36.67	     6.633
  38.580         30.00	     6.000
  38.600         28.33	     5.831
  38.620         34.17	     6.403
  38.640         25.83	     5.568
  38.660         41.67	     7.071
  38.680         37.50	     6.708
  38.700         26.67	     5.657
  38.720         27.50	     5.745
  38.740         32.50	     6.245
  38.760         35.00	     6.481
  38.780         32.50	     6.245
  38.800         35.83	     6.557
  38.820         35.83	     6.557
  38.840         46.67	     7.483
  38.860         48.33	     7.616
  38.880         59.17	     8.426
  38.900         47.50	     7.550
  38.920         39.17	     6.856
  38.940         45.83	     7.416
  38.960         34.17	     6.403
  38.980         39.17	     6.856
  39.000         47.50	     7.550
  39.020         33.33	     6.325
  39.040         59.17	     8.426
  39.060         50.83	     7.810
  39.080         62.50	     8.660
  39.100         85.83	    10.149
  39.120         91.67	    10.488
  39.140         84.17	    10.050
  39.160         76.67	     9.592
  39.180         66.67	     8.944
  39.200         67.50	     9.000
  39.220         55.00	     8.124
  39.240         62.50	     8.660
  39.260         45.83	     7.416
  39.280         33.33	     6.325
  39.300         43.33	     7.211
  39.320         41.67	     7.071
  39.340         49.17	     7.681
  39.360         39.17	     6.856
  39.380         35.83	     6.557
  39.400         40.00	     6.928
  39.420         36.67	     6.633
  39.440         35.00	     6.481
  39.460         35.00	     6.481
  39.480         27.50	     5.745
  39.500         40.00	     6.928
  39.520         42.50	     7.141
  39.540         49.17	     7.681
  39.560         48.33	     7.616
  39.580         39.17	     6.856
  39.600         52.50	     7.937
  39.620         49.17	     7.681
  39.640         54.17	     8.062
  39.660         83.33	    10.000
  39.680        110.83	    11.533
  39.700        163.33	    14.000
  39.720        267.50	    17.916
  39.740        315.00	    19.442
  39.760        347.50	    20.421
  39.780        332.50	    19.975
  39.800        298.33	    18.921
  39.820        242.50	    17.059
  39.840        188.33	    15.033
  39.860        192.50	    15.199
  39.880        199.17	    15.460
  39.900        165.00	    14.071
  39.920        110.00	    11.489
  39.940         70.00	     9.165
  39.960         57.50	     8.307
  39.980         65.00	     8.832
  40.000         65.83	     8.888
  40.020         47.50	     7.550
  40.040         52.50	     7.937
  40.060         41.67	     7.071
  40.080         55.00	     8.124
  40.100         50.83	     7.810
  40.120         48.33	     7.616
  40.140         49.17	     7.681
  40.160         47.50	     7.550
  40.180         30.83	     6.083
  40.200         48.33	     7.616
  40.220         33.33	     6.325
  40.240         42.50	     7.141
  40.260         45.00	     7.348
  40.280         45.00	     7.348
  40.300         51.67	     7.874
  40.320         46.67	     7.483
  40.340         45.83	     7.416
  40.360         41.67	     7.071
  40.380         39.17	     6.856
  40.400         45.83	     7.416
  40.420         44.17	     7.280
  40.440         41.67	     7.071
  40.460         49.17	     7.681
  40.480         59.17	     8.426
  40.500         61.67	     8.602
  40.520         95.00	    10.677
  40.540        128.33	    12.410
  40.560        129.17	    12.450
  40.580        118.33	    11.916
  40.600         86.67	    10.198
  40.620         90.00	    10.392
  40.640         88.33	    10.296
  40.660         79.17	     9.747
  40.680         72.50	     9.327
  40.700         55.83	     8.185
  40.720         49.17	     7.681
  40.740         48.33	     7.616
  40.760         46.67	     7.483
  40.780         39.17	     6.856
  40.800         45.83	     7.416
  40.820         45.00	     7.348
  40.840         40.83	     7.000
  40.860         36.67	     6.633
  40.880         42.50	     7.141
  40.900         41.67	     7.071
  40.920         38.33	     6.782
  40.940         35.83	     6.557
  40.960         40.00	     6.928
  40.980         35.00	     6.481
  41.000         40.83	     7.000
  41.020         37.50	     6.708
  41.040         42.50	     7.141
  41.060         45.00	     7.348
  41.080         40.00	     6.928
  41.100         46.67	     7.483
  41.120         44.17	     7.280
  41.140         32.50	     6.245
  41.160         31.67	     6.164
  41.180         51.67	     7.874
  41.200         41.67	     7.071
  41.220         48.33	     7.616
  41.240         36.67	     6.633
  41.260         44.17	     7.280
  41.280         42.50	     7.141
  41.300         49.17	     7.681
  41.320         25.83	     5.568
  41.340         50.83	     7.810
  41.360         44.17	     7.280
  41.380         30.00	     6.000
  41.400         34.17	     6.403
  41.420         35.00	     6.481
  41.440         30.83	     6.083
  41.460         45.83	     7.416
  41.480         48.33	     7.616
  41.500         50.00	     7.746
  41.520         55.83	     8.185
  41.540         60.00	     8.485
  41.560         65.83	     8.888
  41.580         46.67	     7.483
  41.600         49.17	     7.681
  41.620         50.83	     7.810
  41.640         53.33	     8.000
  41.660         52.50	     7.937
  41.680         42.50	     7.141
  41.700         55.83	     8.185
  41.720         45.00	     7.348
  41.740         35.83	     6.557
  41.760         37.50	     6.708
  41.780         35.00	     6.481
  41.800         31.67	     6.164
  41.820         52.50	     7.937
  41.840         45.83	     7.416
  41.860         45.00	     7.348
  41.880         55.83	     8.185
  41.900         85.83	    10.149
  41.920         86.67	    10.198
  41.940        100.83	    11.000
  41.960         95.00	    10.677
  41.980         99.17	    10.909
  42.000         98.33	    10.863
  42.020         98.33	    10.863
  42.040         83.33	    10.000
  42.060         79.17	     9.747
  42.080         81.67	     9.899
  42.100         75.83	     9.539
  42.120         76.67	     9.592
  42.140         69.17	     9.110
  42.160         70.00	     9.165
  42.180         66.67	     8.944
  42.200         66.67	     8.944
  42.220         65.00	     8.832
  42.240         74.17	     9.434
  42.260         68.33	     9.055
  42.280        106.67	    11.314
  42.300        106.67	    11.314
  42.320        129.17	    12.450
  42.340         95.00	    10.677
  42.360         69.17	     9.110
  42.380         60.00	     8.485
  42.400         85.83	    10.149
  42.420         75.83	     9.539
  42.440         65.83	     8.888
  42.460         73.33	     9.381
  42.480         54.17	     8.062
  42.500         56.67	     8.246
  42.520         65.00	     8.832
  42.540         62.50	     8.660
  42.560         73.33	     9.381
  42.580         74.17	     9.434
  42.600         84.17	    10.050
  42.620        101.67	    11.045
  42.640        121.67	    12.083
  42.660        115.83	    11.790
  42.680        163.33	    14.000
  42.700        180.83	    14.731
  42.720        171.67	    14.353
  42.740        165.83	    14.107
  42.760        171.67	    14.353
  42.780        145.83	    13.229
  42.800        149.17	    13.379
  42.820        121.67	    12.083
  42.840        111.67	    11.576
  42.860         99.17	    10.909
  42.880         78.33	     9.695
  42.900         83.33	    10.000
  42.920         68.33	     9.055
  42.940         56.67	     8.246
  42.960         64.17	     8.775
  42.980         47.50	     7.550
  43.000         48.33	     7.616
  43.020         44.17	     7.280
  43.040         46.67	     7.483
  43.060         55.83	     8.185
  43.080         44.17	     7.280
  43.100         42.50	     7.141
  43.120         47.50	     7.550
  43.140         44.17	     7.280
  43.160         49.17	     7.681
  43.180         46.67	     7.483
  43.200         36.67	     6.633
  43.220         30.83	     6.083
  43.240         50.83	     7.810
  43.260         40.00	     6.928
  43.280         43.33	     7.211
  43.300         38.33	     6.782
  43.320         29.17	     5.916
  43.340         33.33	     6.325
  43.360         28.33	     5.831
  43.380         35.00	     6.481
  43.400         35.83	     6.557
  43.420         31.67	     6.164
  43.440         30.83	     6.083
  43.460         21.67	     5.099
  43.480         20.00	     4.899
  43.500         24.17	     5.385
  43.520         31.67	     6.164
  43.540         36.67	     6.633
  43.560         31.67	     6.164
  43.580         39.17	     6.856
  43.600         22.50	     5.196
  43.620         40.00	     6.928
  43.640         24.17	     5.385
  43.660         31.67	     6.164
  43.680         27.50	     5.745
  43.700         33.33	     6.325
  43.720         29.17	     5.916
  43.740         29.17	     5.916
  43.760         38.33	     6.782
  43.780         40.83	     7.000
  43.800         44.17	     7.280
  43.820         45.83	     7.416
  43.840         60.00	     8.485
  43.860         50.00	     7.746
  43.880         42.50	     7.141
  43.900         49.17	     7.681
  43.920         55.00	     8.124
  43.940         56.67	     8.246
  43.960         49.17	     7.681
  43.980         45.83	     7.416
  44.000         37.50	     6.708
  44.020         30.00	     6.000
  44.040         39.17	     6.856
  44.060         37.50	     6.708
  44.080         35.00	     6.481
  44.100         34.17	     6.403
  44.120         39.17	     6.856
  44.140         28.33	     5.831
  44.160         42.50	     7.141
  44.180         40.00	     6.928
  44.200         35.83	     6.557
  44.220         49.17	     7.681
  44.240         37.50	     6.708
  44.260         33.33	     6.325
  44.280         42.50	     7.141
  44.300         39.17	     6.856
  44.320         40.83	     7.000
  44.340         35.00	     6.481
  44.360         31.67	     6.164
  44.380         35.83	     6.557
  44.400         22.50	     5.196
  44.420         30.83	     6.083
  44.440         36.67	     6.633
  44.460         37.50	     6.708
  44.480         34.17	     6.403
  44.500         25.00	     5.477
  44.520         27.50	     5.745
  44.540         30.83	     6.083
  44.560         41.67	     7.071
  44.580         38.33	     6.782
  44.600         30.83	     6.083
  44.620         28.33	     5.831
  44.640         29.17	     5.916
  44.660         36.67	     6.633
  44.680         30.00	     6.000
  44.700         27.50	     5.745
  44.720         35.00	     6.481
  44.740         28.33	     5.831
  44.760         33.33	     6.325
  44.780         28.33	     5.831
  44.800         30.00	     6.000
  44.820         24.17	     5.385
  44.840         27.50	     5.745
  44.860         33.33	     6.325
  44.880         33.33	     6.325
  44.900         33.33	     6.325
  44.920         43.33	     7.211
  44.940         35.83	     6.557
  44.960         29.17	     5.916
  44.980         45.00	     7.348
  45.000         35.00	     6.481
  45.020         33.33	     6.325
  45.040         35.83	     6.557
  45.060         41.67	     7.071
  45.080         38.33	     6.782
  45.100         44.17	     7.280
  45.120         54.17	     8.062
  45.140         46.67	     7.483
  45.160         55.00	     8.124
  45.180         59.17	     8.426
  45.200         57.50	     8.307
  45.220         62.50	     8.660
  45.240         50.00	     7.746
  45.260         63.33	     8.718
  45.280         60.00	     8.485
  45.300         75.83	     9.539
  45.320         72.50	     9.327
  45.340         65.83	     8.888
  45.360         75.83	     9.539
  45.380         67.50	     9.000
  45.400         57.50	     8.307
  45.420         65.83	     8.888
  45.440         60.00	     8.485
  45.460         83.33	    10.000
  45.480         60.83	     8.544
  45.500         55.00	     8.124
  45.520         64.17	     8.775
  45.540         70.83	     9.220
  45.560         62.50	     8.660
  45.580         60.83	     8.544
  45.600         71.67	     9.274
  45.620         74.17	     9.434
  45.640         70.00	     9.165
  45.660         74.17	     9.434
  45.680         85.83	    10.149
  45.700         73.33	     9.381
  45.720         92.50	    10.536
  45.740         99.17	    10.909
  45.760        131.67	    12.570
  45.780        110.83	    11.533
  45.800        101.67	    11.045
  45.820        111.67	    11.576
  45.840        120.83	    12.042
  45.860        127.50	    12.369
  45.880        120.83	    12.042
  45.900        102.50	    11.091
  45.920        111.67	    11.576
  45.940         80.00	     9.798
  45.960        108.33	    11.402
  45.980         96.67	    10.770
  46.000        130.83	    12.530
  46.020        133.33	    12.649
  46.040        131.67	    12.570
  46.060        116.67	    11.832
  46.080         85.00	    10.100
  46.100        103.33	    11.136
  46.120        114.17	    11.705
  46.140         88.33	    10.296
  46.160         90.83	    10.440
  46.180         83.33	    10.000
  46.200         75.83	     9.539
  46.220         80.00	     9.798
  46.240         86.67	    10.198
  46.260         63.33	     8.718
  46.280         69.17	     9.110
  46.300         61.67	     8.602
  46.320         70.00	     9.165
  46.340         63.33	     8.718
  46.360         57.50	     8.307
  46.380         59.17	     8.426
  46.400         58.33	     8.367
  46.420         48.33	     7.616
  46.440         56.67	     8.246
  46.460         52.50	     7.937
  46.480         40.83	     7.000
  46.500         32.50	     6.245
  46.520         41.67	     7.071
  46.540         34.17	     6.403
  46.560         45.83	     7.416
  46.580         38.33	     6.782
  46.600         34.17	     6.403
  46.620         37.50	     6.708
  46.640         21.67	     5.099
  46.660         32.50	     6.245
  46.680         31.67	     6.164
  46.700         28.33	     5.831
  46.720         25.00	     5.477
  46.740         34.17	     6.403
  46.760         33.33	     6.325
  46.780         37.50	     6.708
  46.800         32.50	     6.245
  46.820         38.33	     6.782
  46.840         33.33	     6.325
  46.860         28.33	     5.831
  46.880         36.67	     6.633
  46.900         32.50	     6.245
  46.920         26.67	     5.657
  46.940         37.50	     6.708
  46.960         33.33	     6.325
  46.980         32.50	     6.245
  47.000         27.50	     5.745
  47.020         35.00	     6.481
  47.040         30.00	     6.000
  47.060         32.50	     6.245
  47.080         31.67	     6.164
  47.100         26.67	     5.657
  47.120         24.17	     5.385
  47.140         23.33	     5.292
  47.160         37.50	     6.708
  47.180         26.67	     5.657
  47.200         39.17	     6.856
  47.220         26.67	     5.657
  47.240         31.67	     6.164
  47.260         27.50	     5.745
  47.280         33.33	     6.325
  47.300         41.67	     7.071
  47.320         41.67	     7.071
  47.340         55.00	     8.124
  47.360         39.17	     6.856
  47.380         41.67	     7.071
  47.400         47.50	     7.550
  47.420         40.00	     6.928
  47.440         45.83	     7.416
  47.460         38.33	     6.782
  47.480         30.83	     6.083
  47.500         33.33	     6.325
  47.520         38.33	     6.782
  47.540         27.50	     5.745
  47.560         35.00	     6.481
  47.580         34.17	     6.403
  47.600         32.50	     6.245
  47.620         28.33	     5.831
  47.640         15.83	     4.359
  47.660         31.67	     6.164
  47.680         29.17	     5.916
  47.700         24.17	     5.385
  47.720         26.67	     5.657
  47.740         32.50	     6.245
  47.760         36.67	     6.633
  47.780         35.83	     6.557
  47.800         27.50	     5.745
  47.820         31.67	     6.164
  47.840         26.67	     5.657
  47.860         30.83	     6.083
  47.880         25.00	     5.477
  47.900         35.00	     6.481
  47.920         25.00	     5.477
  47.940         30.00	     6.000
  47.960         26.67	     5.657
  47.980         25.83	     5.568
  48.000         28.33	     5.831
  48.020         30.00	     6.000
  48.040         32.50	     6.245
  48.060         32.50	     6.245
  48.080         44.17	     7.280
  48.100         35.83	     6.557
  48.120         35.83	     6.557
  48.140         39.17	     6.856
  48.160         50.00	     7.746
  48.180         40.83	     7.000
  48.200         49.17	     7.681
  48.220         61.67	     8.602
  48.240         74.17	     9.434
  48.260         45.00	     7.348
  48.280         48.33	     7.616
  48.300         59.17	     8.426
  48.320         49.17	     7.681
  48.340         50.83	     7.810
  48.360         45.83	     7.416
  48.380         60.83	     8.544
  48.400         63.33	     8.718
  48.420         71.67	     9.274
  48.440         62.50	     8.660
  48.460         59.17	     8.426
  48.480         60.83	     8.544
  48.500         47.50	     7.550
  48.520         56.67	     8.246
  48.540         64.17	     8.775
  48.560         59.17	     8.426
  48.580         60.00	     8.485
  48.600         46.67	     7.483
  48.620         51.67	     7.874
  48.640         50.83	     7.810
  48.660         43.33	     7.211
  48.680         44.17	     7.280
  48.700         43.33	     7.211
  48.720         40.83	     7.000
  48.740         50.00	     7.746
  48.760         47.50	     7.550
  48.780         37.50	     6.708
  48.800         34.17	     6.403
  48.820         43.33	     7.211
  48.840         35.83	     6.557
  48.860         43.33	     7.211
  48.880         41.67	     7.071
  48.900         53.33	     8.000
  48.920         42.50	     7.141
  48.940         41.67	     7.071
  48.960         40.00	     6.928
  48.980         41.67	     7.071
  49.000         30.83	     6.083
  49.020         42.50	     7.141
  49.040         48.33	     7.616
  49.060         37.50	     6.708
  49.080         30.83	     6.083
  49.100         33.33	     6.325
  49.120         41.67	     7.071
  49.140         33.33	     6.325
  49.160         43.33	     7.211
  49.180         38.33	     6.782
  49.200         42.50	     7.141
  49.220         39.17	     6.856
  49.240         26.67	     5.657
  49.260         31.67	     6.164
  49.280         53.33	     8.000
  49.300         41.67	     7.071
  49.320         41.67	     7.071
  49.340         46.67	     7.483
  49.360         37.50	     6.708
  49.380         44.17	     7.280
  49.400         43.33	     7.211
  49.420         65.00	     8.832
  49.440         75.83	     9.539
  49.460         75.83	     9.539
  49.480         82.50	     9.950
  49.500         51.67	     7.874
  49.520         46.67	     7.483
  49.540         55.00	     8.124
  49.560         55.00	     8.124
  49.580         57.50	     8.307
  49.600         53.33	     8.000
  49.620         60.00	     8.485
  49.640         49.17	     7.681
  49.660         34.17	     6.403
  49.680         46.67	     7.483
  49.700         49.17	     7.681
  49.720         44.17	     7.280
  49.740         40.00	     6.928
  49.760         44.17	     7.280
  49.780         45.83	     7.416
  49.800         35.83	     6.557
  49.820         43.33	     7.211
  49.840         53.33	     8.000
  49.860         43.33	     7.211
  49.880         30.83	     6.083
  49.900         53.33	     8.000
  49.920         40.83	     7.000
  49.940         43.33	     7.211
  49.960         42.50	     7.141
  49.980         55.83	     8.185
  50.000         48.33	     7.616
  50.020         43.33	     7.211
  50.040         52.50	     7.937
  50.060         64.17	     8.775
  50.080         65.83	     8.888
  50.100         70.83	     9.220
  50.120         75.83	     9.539
  50.140         89.17	    10.344
  50.160        124.17	    12.207
  50.180        149.17	    13.379
  50.200        146.67	    13.266
  50.220        121.67	    12.083
  50.240        117.50	    11.874
  50.260        103.33	    11.136
  50.280        123.33	    12.166
  50.300        185.83	    14.933
  50.320        268.33	    17.944
  50.340        321.67	    19.647
  50.360        453.33	    23.324
  50.380        850.83	    31.953
  50.400       1085.00	    36.083
  50.420        850.00	    31.937
  50.440        486.67	    24.166
  50.460        287.50	    18.574
  50.480        262.50	    17.748
  50.500        362.50	    20.857
  50.520        474.17	    23.854
  50.540        533.33	    25.298
  50.560        385.83	    21.517
  50.580        202.50	    15.588
  50.600        123.33	    12.166
  50.620         73.33	     9.381
  50.640         65.83	     8.888
  50.660         71.67	     9.274
  50.680         59.17	     8.426
  50.700         55.83	     8.185
  50.720         35.83	     6.557
  50.740         40.00	     6.928
  50.760         53.33	     8.000
  50.780         43.33	     7.211
  50.800         68.33	     9.055
  50.820         69.17	     9.110
  50.840         87.50	    10.247
  50.860         80.83	     9.849
  50.880         87.50	    10.247
  50.900         66.67	     8.944
  50.920         60.00	     8.485
  50.940         69.17	     9.110
  50.960         73.33	     9.381
  50.980         75.83	     9.539
  51.000         78.33	     9.695
  51.020         66.67	     8.944
  51.040         45.83	     7.416
  51.060         47.50	     7.550
  51.080         54.17	     8.062
  51.100         42.50	     7.141
  51.120         53.33	     8.000
  51.140         43.33	     7.211
  51.160         40.83	     7.000
  51.180         26.67	     5.657
  51.200         34.17	     6.403
  51.220         34.17	     6.403
  51.240         40.00	     6.928
  51.260         27.50	     5.745
  51.280         30.00	     6.000
  51.300         32.50	     6.245
  51.320         34.17	     6.403
  51.340         33.33	     6.325
  51.360         45.83	     7.416
  51.380         55.00	     8.124
  51.400         59.17	     8.426
  51.420         61.67	     8.602
  51.440         53.33	     8.000
  51.460         49.17	     7.681
  51.480         47.50	     7.550
  51.500         65.00	     8.832
  51.520         59.17	     8.426
  51.540         56.67	     8.246
  51.560         51.67	     7.874
  51.580         49.17	     7.681
  51.600         44.17	     7.280
  51.620         48.33	     7.616
  51.640         45.83	     7.416
  51.660         52.50	     7.937
  51.680         54.17	     8.062
  51.700         47.50	     7.550
  51.720         43.33	     7.211
  51.740         34.17	     6.403
  51.760         45.00	     7.348
  51.780         42.50	     7.141
  51.800         29.17	     5.916
  51.820         30.83	     6.083
  51.840         30.00	     6.000
  51.860         35.00	     6.481
  51.880         37.50	     6.708
  51.900         32.50	     6.245
  51.920         26.67	     5.657
  51.940         31.67	     6.164
  51.960         25.83	     5.568
  51.980         33.33	     6.325
  52.000         27.50	     5.745
  52.020         25.00	     5.477
  52.040         28.33	     5.831
  52.060         26.67	     5.657
  52.080         32.50	     6.245
  52.100         29.17	     5.916
  52.120         31.67	     6.164
  52.140         22.50	     5.196
  52.160         30.00	     6.000
  52.180         27.50	     5.745
  52.200         25.83	     5.568
  52.220         27.50	     5.745
  52.240         40.83	     7.000
  52.260         36.67	     6.633
  52.280         35.83	     6.557
  52.300         41.67	     7.071
  52.320         40.83	     7.000
  52.340         46.67	     7.483
  52.360         66.67	     8.944
  52.380         69.17	     9.110
  52.400         60.00	     8.485
  52.420         42.50	     7.141
  52.440         40.00	     6.928
  52.460         45.83	     7.416
  52.480         42.50	     7.141
  52.500         44.17	     7.280
  52.520         72.50	     9.327
  52.540         60.83	     8.544
  52.560         40.00	     6.928
  52.580         53.33	     8.000
  52.600         44.17	     7.280
  52.620         43.33	     7.211
  52.640         41.67	     7.071
  52.660         40.00	     6.928
  52.680         38.33	     6.782
  52.700         55.00	     8.124
  52.720         40.00	     6.928
  52.740         46.67	     7.483
  52.760         46.67	     7.483
  52.780         34.17	     6.403
  52.800         33.33	     6.325
  52.820         43.33	     7.211
  52.840         51.67	     7.874
  52.860         31.67	     6.164
  52.880         32.50	     6.245
  52.900         38.33	     6.782
  52.920         40.00	     6.928
  52.940         34.17	     6.403
  52.960         36.67	     6.633
  52.980         32.50	     6.245
  53.000         45.83	     7.416
  53.020         37.50	     6.708
  53.040         42.50	     7.141
  53.060         21.67	     5.099
  53.080         35.83	     6.557
  53.100         36.67	     6.633
  53.120         39.17	     6.856
  53.140         43.33	     7.211
  53.160         53.33	     8.000
  53.180         46.67	     7.483
  53.200         45.83	     7.416
  53.220         40.83	     7.000
  53.240         42.50	     7.141
  53.260         36.67	     6.633
  53.280         43.33	     7.211
  53.300         47.50	     7.550
  53.320         50.83	     7.810
  53.340         42.50	     7.141
  53.360         59.17	     8.426
  53.380         55.83	     8.185
  53.400         51.67	     7.874
  53.420         51.67	     7.874
  53.440         43.33	     7.211
  53.460         58.33	     8.367
  53.480         47.50	     7.550
  53.500         48.33	     7.616
  53.520         55.83	     8.185
  53.540         58.33	     8.367
  53.560         60.83	     8.544
  53.580         49.17	     7.681
  53.600         41.67	     7.071
  53.620         49.17	     7.681
  53.640         43.33	     7.211
  53.660         37.50	     6.708
  53.680         40.83	     7.000
  53.700         30.00	     6.000
  53.720         38.33	     6.782
  53.740         40.83	     7.000
  53.760         40.83	     7.000
  53.780         34.17	     6.403
  53.800         31.67	     6.164
  53.820         30.83	     6.083
  53.840         33.33	     6.325
  53.860         30.83	     6.083
  53.880         37.50	     6.708
  53.900         27.50	     5.745
  53.920         33.33	     6.325
  53.940         35.83	     6.557
  53.960         40.00	     6.928
  53.980         34.17	     6.403
  54.000         35.83	     6.557
  54.020         38.33	     6.782
  54.040         45.83	     7.416
  54.060         36.67	     6.633
  54.080         41.67	     7.071
  54.100         65.00	     8.832
  54.120         62.50	     8.660
  54.140         40.00	     6.928
  54.160         34.17	     6.403
  54.180         37.50	     6.708
  54.200         41.67	     7.071
  54.220         31.67	     6.164
  54.240         49.17	     7.681
  54.260         55.00	     8.124
  54.280         41.67	     7.071
  54.300         28.33	     5.831
  54.320         39.17	     6.856
  54.340         24.17	     5.385
  54.360         30.00	     6.000
  54.380         37.50	     6.708
  54.400         21.67	     5.099
  54.420         34.17	     6.403
  54.440         28.33	     5.831
  54.460         40.83	     7.000
  54.480         30.00	     6.000
  54.500         33.33	     6.325
  54.520         28.33	     5.831
  54.540         35.00	     6.481
  54.560         37.50	     6.708
  54.580         39.17	     6.856
  54.600         43.33	     7.211
  54.620         48.33	     7.616
  54.640         42.50	     7.141
  54.660         36.67	     6.633
  54.680         55.83	     8.185
  54.700         33.33	     6.325
  54.720         45.00	     7.348
  54.740         45.00	     7.348
  54.760         36.67	     6.633
  54.780         40.00	     6.928
  54.800         49.17	     7.681
  54.820         35.83	     6.557
  54.840         39.17	     6.856
  54.860         43.33	     7.211
  54.880         43.33	     7.211
  54.900         50.83	     7.810
  54.920         44.17	     7.280
  54.940         44.17	     7.280
  54.960         60.00	     8.485
  54.980         60.83	     8.544
  55.000         50.83	     7.810
  55.020         66.67	     8.944
  55.040         95.00	    10.677
  55.060        122.50	    12.124
  55.080        171.67	    14.353
  55.100        171.67	    14.353
  55.120        179.17	    14.663
  55.140        144.17	    13.153
  55.160        110.00	    11.489
  55.180        108.33	    11.402
  55.200         94.17	    10.630
  55.220         88.33	    10.296
  55.240        110.00	    11.489
  55.260         98.33	    10.863
  55.280         90.00	    10.392
  55.300         81.67	     9.899
  55.320         84.17	    10.050
  55.340         56.67	     8.246
  55.360         50.83	     7.810
  55.380         41.67	     7.071
  55.400         47.50	     7.550
  55.420         53.33	     8.000
  55.440         51.67	     7.874
  55.460         46.67	     7.483
  55.480         44.17	     7.280
  55.500         68.33	     9.055
  55.520         57.50	     8.307
  55.540         70.83	     9.220
  55.560         72.50	     9.327
  55.580         80.83	     9.849
  55.600         50.83	     7.810
  55.620         66.67	     8.944
  55.640         45.83	     7.416
  55.660         44.17	     7.280
  55.680         51.67	     7.874
  55.700         49.17	     7.681
  55.720         58.33	     8.367
  55.740         52.50	     7.937
  55.760         35.00	     6.481
  55.780         43.33	     7.211
  55.800         49.17	     7.681
  55.820         47.50	     7.550
  55.840         47.50	     7.550
  55.860         53.33	     8.000
  55.880         49.17	     7.681
  55.900         57.50	     8.307
  55.920         64.17	     8.775
  55.940         65.00	     8.832
  55.960         74.17	     9.434
  55.980         60.83	     8.544
  56.000         60.83	     8.544
  56.020         70.83	     9.220
  56.040         76.67	     9.592
  56.060         80.83	     9.849
  56.080         81.67	     9.899
  56.100         90.00	    10.392
  56.120         83.33	    10.000
  56.140         69.17	     9.110
  56.160         64.17	     8.775
  56.180         63.33	     8.718
  56.200         64.17	     8.775
  56.220         69.17	     9.110
  56.240         59.17	     8.426
  56.260         45.00	     7.348
  56.280         35.83	     6.557
  56.300         43.33	     7.211
  56.320         50.83	     7.810
  56.340         41.67	     7.071
  56.360         48.33	     7.616
  56.380         50.00	     7.746
  56.400         48.33	     7.616
  56.420         44.17	     7.280
  56.440         35.00	     6.481
  56.460         43.33	     7.211
  56.480         38.33	     6.782
  56.500         37.50	     6.708
  56.520         30.83	     6.083
  56.540         35.83	     6.557
  56.560         29.17	     5.916
  56.580         31.67	     6.164
  56.600         35.00	     6.481
  56.620         25.83	     5.568
  56.640         41.67	     7.071
  56.660         31.67	     6.164
  56.680         25.00	     5.477
  56.700         25.00	     5.477
  56.720         30.00	     6.000
  56.740         32.50	     6.245
  56.760         32.50	     6.245
  56.780         35.00	     6.481
  56.800         31.67	     6.164
  56.820         34.17	     6.403
  56.840         26.67	     5.657
  56.860         26.67	     5.657
  56.880         30.83	     6.083
  56.900         21.67	     5.099
  56.920         36.67	     6.633
  56.940         29.17	     5.916
  56.960         29.17	     5.916
  56.980         40.83	     7.000
  57.000         45.00	     7.348
  57.020         40.83	     7.000
  57.040         45.83	     7.416
  57.060         33.33	     6.325
  57.080         29.17	     5.916
  57.100         35.83	     6.557
  57.120         40.83	     7.000
  57.140         31.67	     6.164
  57.160         38.33	     6.782
  57.180         32.50	     6.245
  57.200         53.33	     8.000
  57.220         41.67	     7.071
  57.240         27.50	     5.745
  57.260         38.33	     6.782
  57.280         37.50	     6.708
  57.300         35.00	     6.481
  57.320         35.83	     6.557
  57.340         35.00	     6.481
  57.360         32.50	     6.245
  57.380         33.33	     6.325
  57.400         28.33	     5.831
  57.420         30.83	     6.083
  57.440         35.00	     6.481
  57.460         47.50	     7.550
  57.480         45.00	     7.348
  57.500         41.67	     7.071
  57.520         40.83	     7.000
  57.540         44.17	     7.280
  57.560         35.00	     6.481
  57.580         56.67	     8.246
  57.600         31.67	     6.164
  57.620         33.33	     6.325
  57.640         32.50	     6.245
  57.660         44.17	     7.280
  57.680         35.00	     6.481
  57.700         44.17	     7.280
  57.720         39.17	     6.856
  57.740         30.83	     6.083
  57.760         35.00	     6.481
  57.780         40.83	     7.000
  57.800         31.67	     6.164
  57.820         43.33	     7.211
  57.840         35.00	     6.481
  57.860         42.50	     7.141
  57.880         33.33	     6.325
  57.900         28.33	     5.831
  57.920         40.83	     7.000
  57.940         38.33	     6.782
  57.960         41.67	     7.071
  57.980         25.00	     5.477
  58.000         45.00	     7.348
  58.020         35.00	     6.481
  58.040         36.67	     6.633
  58.060         29.17	     5.916
  58.080         39.17	     6.856
  58.100         29.17	     5.916
  58.120         31.67	     6.164
  58.140         30.00	     6.000
  58.160         34.17	     6.403
  58.180         29.17	     5.916
  58.200         25.00	     5.477
  58.220         25.83	     5.568
  58.240         33.33	     6.325
  58.260         35.00	     6.481
  58.280         27.50	     5.745
  58.300         34.17	     6.403
  58.320         24.17	     5.385
  58.340         41.67	     7.071
  58.360         38.33	     6.782
  58.380         31.67	     6.164
  58.400         38.33	     6.782
  58.420         35.00	     6.481
  58.440         35.00	     6.481
  58.460         37.50	     6.708
  58.480         45.83	     7.416
  58.500         33.33	     6.325
  58.520         33.33	     6.325
  58.540         37.50	     6.708
  58.560         41.67	     7.071
  58.580         38.33	     6.782
  58.600         27.50	     5.745
  58.620         38.33	     6.782
  58.640         47.50	     7.550
  58.660         36.67	     6.633
  58.680         33.33	     6.325
  58.700         35.83	     6.557
  58.720         42.50	     7.141
  58.740         41.67	     7.071
  58.760         44.17	     7.280
  58.780         35.00	     6.481
  58.800         39.17	     6.856
  58.820         47.50	     7.550
  58.840         51.67	     7.874
  58.860         57.50	     8.307
  58.880         62.50	     8.660
  58.900         70.00	     9.165
  58.920         74.17	     9.434
  58.940         82.50	     9.950
  58.960         70.00	     9.165
  58.980         66.67	     8.944
  59.000         58.33	     8.367
  59.020         54.17	     8.062
  59.040         58.33	     8.367
  59.060         53.33	     8.000
  59.080         53.33	     8.000
  59.100         52.50	     7.937
  59.120         45.83	     7.416
  59.140         53.33	     8.000
  59.160         54.17	     8.062
  59.180         49.17	     7.681
  59.200         57.50	     8.307
  59.220         56.67	     8.246
  59.240         53.33	     8.000
  59.260         63.33	     8.718
  59.280         53.33	     8.000
  59.300         58.33	     8.367
  59.320         50.00	     7.746
  59.340         54.17	     8.062
  59.360         60.83	     8.544
  59.380         77.50	     9.644
  59.400         87.50	    10.247
  59.420         74.17	     9.434
  59.440         53.33	     8.000
  59.460         61.67	     8.602
  59.480         53.33	     8.000
  59.500         52.50	     7.937
  59.520         80.83	     9.849
  59.540         70.83	     9.220
  59.560         53.33	     8.000
  59.580         44.17	     7.280
  59.600         64.17	     8.775
  59.620         49.17	     7.681
  59.640         41.67	     7.071
  59.660         43.33	     7.211
  59.680         49.17	     7.681
  59.700         59.17	     8.426
  59.720         36.67	     6.633
  59.740         50.00	     7.746
  59.760         51.67	     7.874
  59.780         44.17	     7.280
  59.800         40.00	     6.928
  59.820         38.33	     6.782
  59.840         42.50	     7.141
  59.860         51.67	     7.874
  59.880         45.00	     7.348
  59.900         51.67	     7.874
  59.920         45.00	     7.348
  59.940         47.50	     7.550
  59.960         55.83	     8.185
  59.980         48.33	     7.616
  60.000         59.17	     8.426
  60.020         58.33	     8.367
  60.040         56.67	     8.246
  60.060         65.83	     8.888
  60.080         70.00	     9.165
  60.100         98.33	    10.863
  60.120        108.33	    11.402
  60.140        128.33	    12.410
  60.160        207.50	    15.780
  60.180        267.50	    17.916
  60.200        277.50	    18.248
  60.220        239.17	    16.941
  60.240        205.00	    15.684
  60.260        140.83	    13.000
  60.280        122.50	    12.124
  60.300        119.17	    11.958
  60.320        139.17	    12.923
  60.340        139.17	    12.923
  60.360        160.00	    13.856
  60.380        151.67	    13.491
  60.400        126.67	    12.329
  60.420        105.83	    11.269
  60.440         69.17	     9.110
  60.460         60.00	     8.485
  60.480         54.17	     8.062
  60.500         51.67	     7.874
  60.520         52.50	     7.937
  60.540         53.33	     8.000
  60.560         50.83	     7.810
  60.580         50.00	     7.746
  60.600         48.33	     7.616
  60.620         41.67	     7.071
  60.640         50.00	     7.746
  60.660         65.00	     8.832
  60.680         54.17	     8.062
  60.700         58.33	     8.367
  60.720         55.83	     8.185
  60.740         59.17	     8.426
  60.760         39.17	     6.856
  60.780         47.50	     7.550
  60.800         55.00	     8.124
  60.820         49.17	     7.681
  60.840         55.83	     8.185
  60.860         65.83	     8.888
  60.880         60.00	     8.485
  60.900         57.50	     8.307
  60.920         37.50	     6.708
  60.940         50.83	     7.810
  60.960         55.00	     8.124
  60.980         61.67	     8.602
  61.000         49.17	     7.681
  61.020         50.83	     7.810
  61.040         58.33	     8.367
  61.060         56.67	     8.246
  61.080         53.33	     8.000
  61.100         62.50	     8.660
  61.120         70.00	     9.165
  61.140         75.00	     9.487
  61.160         56.67	     8.246
  61.180         60.00	     8.485
  61.200         56.67	     8.246
  61.220         53.33	     8.000
  61.240         57.50	     8.307
  61.260         50.83	     7.810
  61.280         65.00	     8.832
  61.300         67.50	     9.000
  61.320         69.17	     9.110
  61.340         61.67	     8.602
  61.360         49.17	     7.681
  61.380         49.17	     7.681
  61.400         55.83	     8.185
  61.420         55.83	     8.185
  61.440         45.83	     7.416
  61.460         53.33	     8.000
  61.480         45.83	     7.416
  61.500         40.83	     7.000
  61.520         46.67	     7.483
  61.540         55.83	     8.185
  61.560         54.17	     8.062
  61.580         54.17	     8.062
  61.600         46.67	     7.483
  61.620         55.00	     8.124
  61.640         50.00	     7.746
  61.660         46.67	     7.483
  61.680         49.17	     7.681
  61.700         61.67	     8.602
  61.720         59.17	     8.426
  61.740         69.17	     9.110
  61.760         57.50	     8.307
  61.780         69.17	     9.110
  61.800         73.33	     9.381
  61.820         76.67	     9.592
  61.840         72.50	     9.327
  61.860         65.83	     8.888
  61.880         65.00	     8.832
  61.900         62.50	     8.660
  61.920         73.33	     9.381
  61.940         67.50	     9.000
  61.960         70.00	     9.165
  61.980         72.50	     9.327
  62.000         65.83	     8.888
  62.020         60.83	     8.544
  62.040         75.00	     9.487
  62.060         57.50	     8.307
  62.080         52.50	     7.937
  62.100         66.67	     8.944
  62.120         50.00	     7.746
  62.140         52.50	     7.937
  62.160         64.17	     8.775
  62.180         68.33	     9.055
  62.200         57.50	     8.307
  62.220         60.83	     8.544
  62.240         68.33	     9.055
  62.260         44.17	     7.280
  62.280         48.33	     7.616
  62.300         40.83	     7.000
  62.320         47.50	     7.550
  62.340         49.17	     7.681
  62.360         52.50	     7.937
  62.380         41.67	     7.071
  62.400         43.33	     7.211
  62.420         48.33	     7.616
  62.440         45.83	     7.416
  62.460         37.50	     6.708
  62.480         35.00	     6.481
  62.500         43.33	     7.211
  62.520         25.83	     5.568
  62.540         32.50	     6.245
  62.560         34.17	     6.403
  62.580         35.83	     6.557
  62.600         25.83	     5.568
  62.620         36.67	     6.633
  62.640         35.00	     6.481
  62.660         43.33	     7.211
  62.680         36.67	     6.633
  62.700         33.33	     6.325
  62.720         33.33	     6.325
  62.740         30.83	     6.083
  62.760         30.83	     6.083
  62.780         31.67	     6.164
  62.800         46.67	     7.483
  62.820         34.17	     6.403
  62.840         27.50	     5.745
  62.860         35.00	     6.481
  62.880         39.17	     6.856
  62.900         36.67	     6.633
  62.920         35.83	     6.557
  62.940         42.50	     7.141
  62.960         31.67	     6.164
  62.980         30.00	     6.000
  63.000         35.00	     6.481
  63.020         38.33	     6.782
  63.040         39.17	     6.856
  63.060         38.33	     6.782
  63.080         25.83	     5.568
  63.100         38.33	     6.782
  63.120         30.00	     6.000
  63.140         26.67	     5.657
  63.160         31.67	     6.164
  63.180         34.17	     6.403
  63.200         31.67	     6.164
  63.220         31.67	     6.164
  63.240         35.00	     6.481
  63.260         28.33	     5.831
  63.280         37.50	     6.708
  63.300         35.00	     6.481
  63.320         37.50	     6.708
  63.340         35.00	     6.481
  63.360         34.17	     6.403
  63.380         32.50	     6.245
  63.400         31.67	     6.164
  63.420         37.50	     6.708
  63.440         42.50	     7.141
  63.460         34.17	     6.403
  63.480         45.00	     7.348
  63.500         47.50	     7.550
  63.520         34.17	     6.403
  63.540         26.67	     5.657
  63.560         33.33	     6.325
  63.580         31.67	     6.164
  63.600         35.83	     6.557
  63.620         57.50	     8.307
  63.640         44.17	     7.280
  63.660         58.33	     8.367
  63.680         59.17	     8.426
  63.700         51.67	     7.874
  63.720         53.33	     8.000
  63.740         57.50	     8.307
  63.760         39.17	     6.856
  63.780         40.83	     7.000
  63.800         43.33	     7.211
  63.820         42.50	     7.141
  63.840         52.50	     7.937
  63.860         49.17	     7.681
  63.880         45.00	     7.348
  63.900         57.50	     8.307
  63.920         54.17	     8.062
  63.940         51.67	     7.874
  63.960         35.83	     6.557
  63.980         45.83	     7.416
  64.000         39.17	     6.856
  64.020         43.33	     7.211
  64.040         40.00	     6.928
  64.060         44.17	     7.280
  64.080         46.67	     7.483
  64.100         56.67	     8.246
  64.120         54.17	     8.062
  64.140         45.00	     7.348
  64.160         56.67	     8.246
  64.180         50.83	     7.810
  64.200         46.67	     7.483
  64.220         67.50	     9.000
  64.240         71.67	     9.274
  64.260         71.67	     9.274
  64.280         91.67	    10.488
  64.300         68.33	     9.055
  64.320         59.17	     8.426
  64.340         70.83	     9.220
  64.360         51.67	     7.874
  64.380         58.33	     8.367
  64.400         70.83	     9.220
  64.420         62.50	     8.660
  64.440         71.67	     9.274
  64.460         57.50	     8.307
  64.480         52.50	     7.937
  64.500         70.83	     9.220
  64.520         56.67	     8.246
  64.540         51.67	     7.874
  64.560         65.83	     8.888
  64.580         46.67	     7.483
  64.600         39.17	     6.856
  64.620         38.33	     6.782
  64.640         45.00	     7.348
  64.660         35.83	     6.557
  64.680         40.00	     6.928
  64.700         44.17	     7.280
  64.720         43.33	     7.211
  64.740         60.00	     8.485
  64.760         45.00	     7.348
  64.780         42.50	     7.141
  64.800         44.17	     7.280
  64.820         37.50	     6.708
  64.840         35.83	     6.557
  64.860         34.17	     6.403
  64.880         48.33	     7.616
  64.900         52.50	     7.937
  64.920         47.50	     7.550
  64.940         41.67	     7.071
  64.960         51.67	     7.874
  64.980         41.67	     7.071
  65.000         45.83	     7.416
