
Filename:
	C:\Program Files\Thermo Electron\WinXRD\Datafiles\F_HERMAN\GEO\GG_14_SFT.raw

File Created:
	October 13, 2020 - 01:36 PM

Specimen Id:
	GG_14_SFT

Specimen Name:
	

Specimen Description:
	

Comment:
Scan Type: 2Theta Scan
Start Angle: 3 deg.
Stop Angle: 65 deg.
Num Points: 3101
Step Size: 0.02 deg.
Scan Rate: 1.000000
Scan Mode: Continuous
Wavelength: 1.540562
\Kalpha1: 1.540562	\Kalpha2: 1.544390	\Kbeta: 1.392218

Optics:
		Detector:
			 Type: Fixed Slits
		Tube: 
			 Type: Fixed Slits


Datas:
 Pos [deg]       Rate [CPS]      ESD [-]

Range 1 ---> Iteration 1
   3.000        326.67	    19.799
   3.020        324.17	    19.723
   3.040        315.83	    19.468
   3.060        337.50	    20.125
   3.080        325.00	    19.748
   3.100        320.83	    19.621
   3.120        315.00	    19.442
   3.140        310.83	    19.313
   3.160        289.17	    18.628
   3.180        319.17	    19.570
   3.200        330.83	    19.925
   3.220        303.33	    19.079
   3.240        314.17	    19.416
   3.260        320.00	    19.596
   3.280        282.50	    18.412
   3.300        293.33	    18.762
   3.320        331.67	    19.950
   3.340        282.50	    18.412
   3.360        315.00	    19.442
   3.380        273.33	    18.111
   3.400        282.50	    18.412
   3.420        301.67	    19.026
   3.440        297.50	    18.894
   3.460        284.17	    18.466
   3.480        265.83	    17.861
   3.500        273.33	    18.111
   3.520        260.83	    17.692
   3.540        279.17	    18.303
   3.560        250.83	    17.349
   3.580        270.00	    18.000
   3.600        272.50	    18.083
   3.620        295.00	    18.815
   3.640        260.00	    17.664
   3.660        263.33	    17.776
   3.680        246.67	    17.205
   3.700        259.17	    17.635
   3.720        247.50	    17.234
   3.740        274.17	    18.138
   3.760        230.00	    16.613
   3.780        236.67	    16.852
   3.800        269.17	    17.972
   3.820        240.83	    17.000
   3.840        230.83	    16.643
   3.860        260.83	    17.692
   3.880        247.50	    17.234
   3.900        245.83	    17.176
   3.920        234.17	    16.763
   3.940        221.67	    16.310
   3.960        233.33	    16.733
   3.980        234.17	    16.763
   4.000        246.67	    17.205
   4.020        229.17	    16.583
   4.040        233.33	    16.733
   4.060        232.50	    16.703
   4.080        245.00	    17.146
   4.100        220.83	    16.279
   4.120        218.33	    16.186
   4.140        239.17	    16.941
   4.160        224.17	    16.401
   4.180        228.33	    16.553
   4.200        214.17	    16.031
   4.220        222.50	    16.340
   4.240        216.67	    16.125
   4.260        256.67	    17.550
   4.280        219.17	    16.217
   4.300        192.50	    15.199
   4.320        193.33	    15.232
   4.340        185.83	    14.933
   4.360        194.17	    15.264
   4.380        210.83	    15.906
   4.400        196.67	    15.362
   4.420        225.00	    16.432
   4.440        209.17	    15.843
   4.460        222.50	    16.340
   4.480        215.83	    16.093
   4.500        198.33	    15.427
   4.520        203.33	    15.620
   4.540        191.67	    15.166
   4.560        187.50	    15.000
   4.580        216.67	    16.125
   4.600        175.83	    14.526
   4.620        196.67	    15.362
   4.640        213.33	    16.000
   4.660        217.50	    16.155
   4.680        168.33	    14.213
   4.700        185.83	    14.933
   4.720        170.00	    14.283
   4.740        200.83	    15.524
   4.760        176.67	    14.560
   4.780        200.83	    15.524
   4.800        185.83	    14.933
   4.820        175.83	    14.526
   4.840        185.83	    14.933
   4.860        183.33	    14.832
   4.880        184.17	    14.866
   4.900        188.33	    15.033
   4.920        184.17	    14.866
   4.940        184.17	    14.866
   4.960        180.00	    14.697
   4.980        165.00	    14.071
   5.000        170.00	    14.283
   5.020        174.17	    14.457
   5.040        172.50	    14.387
   5.060        178.33	    14.629
   5.080        192.50	    15.199
   5.100        165.00	    14.071
   5.120        179.17	    14.663
   5.140        168.33	    14.213
   5.160        163.33	    14.000
   5.180        158.33	    13.784
   5.200        151.67	    13.491
   5.220        160.00	    13.856
   5.240        165.00	    14.071
   5.260        163.33	    14.000
   5.280        168.33	    14.213
   5.300        164.17	    14.036
   5.320        180.00	    14.697
   5.340        175.83	    14.526
   5.360        172.50	    14.387
   5.380        154.17	    13.601
   5.400        140.83	    13.000
   5.420        171.67	    14.353
   5.440        153.33	    13.565
   5.460        145.83	    13.229
   5.480        190.00	    15.100
   5.500        159.17	    13.820
   5.520        161.67	    13.928
   5.540        159.17	    13.820
   5.560        150.00	    13.416
   5.580        156.67	    13.711
   5.600        135.00	    12.728
   5.620        152.50	    13.528
   5.640        150.00	    13.416
   5.660        143.33	    13.115
   5.680        160.00	    13.856
   5.700        153.33	    13.565
   5.720        151.67	    13.491
   5.740        160.83	    13.892
   5.760        125.00	    12.247
   5.780        144.17	    13.153
   5.800        148.33	    13.342
   5.820        130.00	    12.490
   5.840        137.50	    12.845
   5.860        146.67	    13.266
   5.880        161.67	    13.928
   5.900        154.17	    13.601
   5.920        135.00	    12.728
   5.940        137.50	    12.845
   5.960        160.83	    13.892
   5.980        169.17	    14.248
   6.000        160.83	    13.892
   6.020        168.33	    14.213
   6.040        173.33	    14.422
   6.060        154.17	    13.601
   6.080        145.83	    13.229
   6.100        161.67	    13.928
   6.120        163.33	    14.000
   6.140        146.67	    13.266
   6.160        170.83	    14.318
   6.180        173.33	    14.422
   6.200        202.50	    15.588
   6.220        205.00	    15.684
   6.240        194.17	    15.264
   6.260        189.17	    15.067
   6.280        195.00	    15.297
   6.300        182.50	    14.799
   6.320        158.33	    13.784
   6.340        163.33	    14.000
   6.360        145.00	    13.191
   6.380        162.50	    13.964
   6.400        169.17	    14.248
   6.420        162.50	    13.964
   6.440        158.33	    13.784
   6.460        169.17	    14.248
   6.480        170.00	    14.283
   6.500        152.50	    13.528
   6.520        140.00	    12.961
   6.540        130.00	    12.490
   6.560        129.17	    12.450
   6.580        130.00	    12.490
   6.600        138.33	    12.884
   6.620        135.00	    12.728
   6.640        138.33	    12.884
   6.660        137.50	    12.845
   6.680        147.50	    13.304
   6.700        112.50	    11.619
   6.720        106.67	    11.314
   6.740        145.83	    13.229
   6.760        120.00	    12.000
   6.780        115.00	    11.747
   6.800        124.17	    12.207
   6.820        119.17	    11.958
   6.840        132.50	    12.610
   6.860        117.50	    11.874
   6.880        127.50	    12.369
   6.900        127.50	    12.369
   6.920        101.67	    11.045
   6.940        130.83	    12.530
   6.960        123.33	    12.166
   6.980        109.17	    11.446
   7.000        124.17	    12.207
   7.020        141.67	    13.038
   7.040        104.17	    11.180
   7.060        105.83	    11.269
   7.080         90.00	    10.392
   7.100        115.00	    11.747
   7.120        125.83	    12.288
   7.140        119.17	    11.958
   7.160        130.83	    12.530
   7.180        128.33	    12.410
   7.200        112.50	    11.619
   7.220        103.33	    11.136
   7.240        125.00	    12.247
   7.260        115.00	    11.747
   7.280         99.17	    10.909
   7.300        105.83	    11.269
   7.320        110.00	    11.489
   7.340         97.50	    10.817
   7.360        112.50	    11.619
   7.380        110.00	    11.489
   7.400        119.17	    11.958
   7.420         95.83	    10.724
   7.440        104.17	    11.180
   7.460         98.33	    10.863
   7.480        109.17	    11.446
   7.500         93.33	    10.583
   7.520        107.50	    11.358
   7.540         89.17	    10.344
   7.560        102.50	    11.091
   7.580        106.67	    11.314
   7.600        100.83	    11.000
   7.620         94.17	    10.630
   7.640         97.50	    10.817
   7.660         89.17	    10.344
   7.680         97.50	    10.817
   7.700         85.00	    10.100
   7.720        107.50	    11.358
   7.740         95.83	    10.724
   7.760         99.17	    10.909
   7.780         90.00	    10.392
   7.800         94.17	    10.630
   7.820         87.50	    10.247
   7.840        109.17	    11.446
   7.860         95.00	    10.677
   7.880         80.00	     9.798
   7.900         94.17	    10.630
   7.920        103.33	    11.136
   7.940         95.00	    10.677
   7.960         91.67	    10.488
   7.980         93.33	    10.583
   8.000         85.00	    10.100
   8.020         83.33	    10.000
   8.040         95.00	    10.677
   8.060         85.83	    10.149
   8.080         94.17	    10.630
   8.100         90.83	    10.440
   8.120         94.17	    10.630
   8.140         80.83	     9.849
   8.160        109.17	    11.446
   8.180         83.33	    10.000
   8.200         83.33	    10.000
   8.220        105.00	    11.225
   8.240         80.83	     9.849
   8.260         96.67	    10.770
   8.280         94.17	    10.630
   8.300         90.83	    10.440
   8.320         92.50	    10.536
   8.340         91.67	    10.488
   8.360         84.17	    10.050
   8.380         83.33	    10.000
   8.400         73.33	     9.381
   8.420         86.67	    10.198
   8.440         90.00	    10.392
   8.460         84.17	    10.050
   8.480         78.33	     9.695
   8.500        116.67	    11.832
   8.520         79.17	     9.747
   8.540         86.67	    10.198
   8.560         79.17	     9.747
   8.580        100.83	    11.000
   8.600         87.50	    10.247
   8.620         94.17	    10.630
   8.640        100.00	    10.954
   8.660         91.67	    10.488
   8.680         84.17	    10.050
   8.700         89.17	    10.344
   8.720         87.50	    10.247
   8.740        115.00	    11.747
   8.760        104.17	    11.180
   8.780         85.00	    10.100
   8.800         79.17	     9.747
   8.820         98.33	    10.863
   8.840         96.67	    10.770
   8.860         92.50	    10.536
   8.880         99.17	    10.909
   8.900         97.50	    10.817
   8.920        106.67	    11.314
   8.940        107.50	    11.358
   8.960        117.50	    11.874
   8.980        135.00	    12.728
   9.000        152.50	    13.528
   9.020        129.17	    12.450
   9.040        116.67	    11.832
   9.060        122.50	    12.124
   9.080        153.33	    13.565
   9.100        185.83	    14.933
   9.120        155.83	    13.675
   9.140        168.33	    14.213
   9.160        140.00	    12.961
   9.180        118.33	    11.916
   9.200        106.67	    11.314
   9.220         72.50	     9.327
   9.240         85.00	    10.100
   9.260         82.50	     9.950
   9.280         82.50	     9.950
   9.300         90.00	    10.392
   9.320         84.17	    10.050
   9.340         71.67	     9.274
   9.360         74.17	     9.434
   9.380         96.67	    10.770
   9.400         81.67	     9.899
   9.420         72.50	     9.327
   9.440         84.17	    10.050
   9.460         63.33	     8.718
   9.480         65.00	     8.832
   9.500         89.17	    10.344
   9.520         70.00	     9.165
   9.540         75.00	     9.487
   9.560         86.67	    10.198
   9.580         65.83	     8.888
   9.600         67.50	     9.000
   9.620         82.50	     9.950
   9.640         71.67	     9.274
   9.660         83.33	    10.000
   9.680         77.50	     9.644
   9.700         80.83	     9.849
   9.720         80.00	     9.798
   9.740         81.67	     9.899
   9.760         65.00	     8.832
   9.780         65.83	     8.888
   9.800         58.33	     8.367
   9.820         74.17	     9.434
   9.840         58.33	     8.367
   9.860         62.50	     8.660
   9.880         70.00	     9.165
   9.900         68.33	     9.055
   9.920         75.83	     9.539
   9.940         65.83	     8.888
   9.960         74.17	     9.434
   9.980         62.50	     8.660
  10.000         73.33	     9.381
  10.020         71.67	     9.274
  10.040         80.00	     9.798
  10.060         71.67	     9.274
  10.080         83.33	    10.000
  10.100         55.00	     8.124
  10.120         66.67	     8.944
  10.140         63.33	     8.718
  10.160         65.83	     8.888
  10.180         65.83	     8.888
  10.200         67.50	     9.000
  10.220         61.67	     8.602
  10.240         72.50	     9.327
  10.260         77.50	     9.644
  10.280         55.00	     8.124
  10.300         55.00	     8.124
  10.320         55.83	     8.185
  10.340         47.50	     7.550
  10.360         65.00	     8.832
  10.380         51.67	     7.874
  10.400         70.83	     9.220
  10.420         59.17	     8.426
  10.440         60.83	     8.544
  10.460         70.83	     9.220
  10.480         61.67	     8.602
  10.500         69.17	     9.110
  10.520         75.83	     9.539
  10.540         55.00	     8.124
  10.560         70.00	     9.165
  10.580         60.83	     8.544
  10.600         77.50	     9.644
  10.620         84.17	    10.050
  10.640         85.00	    10.100
  10.660         74.17	     9.434
  10.680         65.00	     8.832
  10.700         86.67	    10.198
  10.720         85.83	    10.149
  10.740        109.17	    11.446
  10.760         95.00	    10.677
  10.780         72.50	     9.327
  10.800         77.50	     9.644
  10.820         65.00	     8.832
  10.840         65.83	     8.888
  10.860         77.50	     9.644
  10.880         59.17	     8.426
  10.900         63.33	     8.718
  10.920         52.50	     7.937
  10.940         53.33	     8.000
  10.960         50.00	     7.746
  10.980         70.00	     9.165
  11.000         61.67	     8.602
  11.020         44.17	     7.280
  11.040         46.67	     7.483
  11.060         68.33	     9.055
  11.080         50.83	     7.810
  11.100         56.67	     8.246
  11.120         53.33	     8.000
  11.140         48.33	     7.616
  11.160         55.83	     8.185
  11.180         61.67	     8.602
  11.200         48.33	     7.616
  11.220         50.83	     7.810
  11.240         62.50	     8.660
  11.260         56.67	     8.246
  11.280         62.50	     8.660
  11.300         54.17	     8.062
  11.320         60.83	     8.544
  11.340         53.33	     8.000
  11.360         60.00	     8.485
  11.380         61.67	     8.602
  11.400         60.00	     8.485
  11.420         49.17	     7.681
  11.440         54.17	     8.062
  11.460         55.00	     8.124
  11.480         56.67	     8.246
  11.500         56.67	     8.246
  11.520         45.00	     7.348
  11.540         64.17	     8.775
  11.560         56.67	     8.246
  11.580         60.83	     8.544
  11.600         51.67	     7.874
  11.620         55.83	     8.185
  11.640         66.67	     8.944
  11.660         57.50	     8.307
  11.680         57.50	     8.307
  11.700         42.50	     7.141
  11.720         60.00	     8.485
  11.740         60.00	     8.485
  11.760         63.33	     8.718
  11.780         57.50	     8.307
  11.800         65.83	     8.888
  11.820         49.17	     7.681
  11.840         54.17	     8.062
  11.860         44.17	     7.280
  11.880         63.33	     8.718
  11.900         60.00	     8.485
  11.920         55.83	     8.185
  11.940         51.67	     7.874
  11.960         63.33	     8.718
  11.980         50.83	     7.810
  12.000         65.83	     8.888
  12.020         60.00	     8.485
  12.040         45.00	     7.348
  12.060         62.50	     8.660
  12.080         55.00	     8.124
  12.100         67.50	     9.000
  12.120         45.83	     7.416
  12.140         61.67	     8.602
  12.160         65.83	     8.888
  12.180         61.67	     8.602
  12.200         82.50	     9.950
  12.220         80.83	     9.849
  12.240         81.67	     9.899
  12.260        102.50	    11.091
  12.280        122.50	    12.124
  12.300        110.83	    11.533
  12.320        119.17	    11.958
  12.340        117.50	    11.874
  12.360        140.83	    13.000
  12.380        155.83	    13.675
  12.400        226.67	    16.492
  12.420        223.33	    16.371
  12.440        208.33	    15.811
  12.460        186.67	    14.967
  12.480        133.33	    12.649
  12.500        125.00	    12.247
  12.520        115.83	    11.790
  12.540        117.50	    11.874
  12.560        125.83	    12.288
  12.580        124.17	    12.207
  12.600        120.83	    12.042
  12.620        116.67	    11.832
  12.640        128.33	    12.410
  12.660        119.17	    11.958
  12.680        140.83	    13.000
  12.700        149.17	    13.379
  12.720        165.83	    14.107
  12.740        152.50	    13.528
  12.760        130.83	    12.530
  12.780        112.50	    11.619
  12.800         92.50	    10.536
  12.820         93.33	    10.583
  12.840         60.83	     8.544
  12.860         49.17	     7.681
  12.880         50.00	     7.746
  12.900         44.17	     7.280
  12.920         51.67	     7.874
  12.940         50.83	     7.810
  12.960         49.17	     7.681
  12.980         50.00	     7.746
  13.000         47.50	     7.550
  13.020         50.83	     7.810
  13.040         56.67	     8.246
  13.060         55.00	     8.124
  13.080         57.50	     8.307
  13.100         56.67	     8.246
  13.120         45.00	     7.348
  13.140         45.83	     7.416
  13.160         45.83	     7.416
  13.180         52.50	     7.937
  13.200         46.67	     7.483
  13.220         50.83	     7.810
  13.240         41.67	     7.071
  13.260         50.00	     7.746
  13.280         40.00	     6.928
  13.300         43.33	     7.211
  13.320         48.33	     7.616
  13.340         50.83	     7.810
  13.360         40.83	     7.000
  13.380         47.50	     7.550
  13.400         49.17	     7.681
  13.420         51.67	     7.874
  13.440         52.50	     7.937
  13.460         39.17	     6.856
  13.480         37.50	     6.708
  13.500         47.50	     7.550
  13.520         44.17	     7.280
  13.540         46.67	     7.483
  13.560         51.67	     7.874
  13.580         35.83	     6.557
  13.600         50.83	     7.810
  13.620         55.83	     8.185
  13.640         56.67	     8.246
  13.660         55.83	     8.185
  13.680         45.00	     7.348
  13.700         49.17	     7.681
  13.720         55.00	     8.124
  13.740         52.50	     7.937
  13.760         51.67	     7.874
  13.780         55.83	     8.185
  13.800         56.67	     8.246
  13.820         58.33	     8.367
  13.840         50.83	     7.810
  13.860         47.50	     7.550
  13.880         54.17	     8.062
  13.900         35.00	     6.481
  13.920         62.50	     8.660
  13.940         62.50	     8.660
  13.960         52.50	     7.937
  13.980         48.33	     7.616
  14.000         49.17	     7.681
  14.020         56.67	     8.246
  14.040         78.33	     9.695
  14.060         71.67	     9.274
  14.080         80.00	     9.798
  14.100        116.67	    11.832
  14.120        118.33	    11.916
  14.140        122.50	    12.124
  14.160         85.83	    10.149
  14.180         67.50	     9.000
  14.200         52.50	     7.937
  14.220         50.00	     7.746
  14.240         37.50	     6.708
  14.260         45.00	     7.348
  14.280         36.67	     6.633
  14.300         41.67	     7.071
  14.320         44.17	     7.280
  14.340         38.33	     6.782
  14.360         37.50	     6.708
  14.380         39.17	     6.856
  14.400         40.00	     6.928
  14.420         41.67	     7.071
  14.440         27.50	     5.745
  14.460         37.50	     6.708
  14.480         50.00	     7.746
  14.500         35.00	     6.481
  14.520         37.50	     6.708
  14.540         35.83	     6.557
  14.560         43.33	     7.211
  14.580         45.83	     7.416
  14.600         42.50	     7.141
  14.620         30.83	     6.083
  14.640         37.50	     6.708
  14.660         39.17	     6.856
  14.680         46.67	     7.483
  14.700         35.83	     6.557
  14.720         40.83	     7.000
  14.740         33.33	     6.325
  14.760         43.33	     7.211
  14.780         37.50	     6.708
  14.800         25.00	     5.477
  14.820         31.67	     6.164
  14.840         29.17	     5.916
  14.860         30.83	     6.083
  14.880         40.83	     7.000
  14.900         31.67	     6.164
  14.920         31.67	     6.164
  14.940         41.67	     7.071
  14.960         38.33	     6.782
  14.980         46.67	     7.483
  15.000         46.67	     7.483
  15.020         52.50	     7.937
  15.040         42.50	     7.141
  15.060         42.50	     7.141
  15.080         35.00	     6.481
  15.100         50.00	     7.746
  15.120         45.83	     7.416
  15.140         50.83	     7.810
  15.160         43.33	     7.211
  15.180         50.83	     7.810
  15.200         50.00	     7.746
  15.220         43.33	     7.211
  15.240         55.83	     8.185
  15.260         43.33	     7.211
  15.280         35.00	     6.481
  15.300         42.50	     7.141
  15.320         42.50	     7.141
  15.340         32.50	     6.245
  15.360         40.00	     6.928
  15.380         35.83	     6.557
  15.400         38.33	     6.782
  15.420         35.83	     6.557
  15.440         39.17	     6.856
  15.460         35.00	     6.481
  15.480         34.17	     6.403
  15.500         35.00	     6.481
  15.520         49.17	     7.681
  15.540         33.33	     6.325
  15.560         37.50	     6.708
  15.580         40.83	     7.000
  15.600         36.67	     6.633
  15.620         35.00	     6.481
  15.640         33.33	     6.325
  15.660         40.00	     6.928
  15.680         29.17	     5.916
  15.700         40.00	     6.928
  15.720         40.83	     7.000
  15.740         40.00	     6.928
  15.760         37.50	     6.708
  15.780         37.50	     6.708
  15.800         27.50	     5.745
  15.820         35.00	     6.481
  15.840         37.50	     6.708
  15.860         34.17	     6.403
  15.880         43.33	     7.211
  15.900         51.67	     7.874
  15.920         44.17	     7.280
  15.940         34.17	     6.403
  15.960         41.67	     7.071
  15.980         42.50	     7.141
  16.000         43.33	     7.211
  16.020         47.50	     7.550
  16.040         50.00	     7.746
  16.060         43.33	     7.211
  16.080         34.17	     6.403
  16.100         43.33	     7.211
  16.120         36.67	     6.633
  16.140         35.00	     6.481
  16.160         31.67	     6.164
  16.180         40.83	     7.000
  16.200         38.33	     6.782
  16.220         35.00	     6.481
  16.240         40.83	     7.000
  16.260         40.83	     7.000
  16.280         35.00	     6.481
  16.300         35.00	     6.481
  16.320         45.83	     7.416
  16.340         38.33	     6.782
  16.360         34.17	     6.403
  16.380         42.50	     7.141
  16.400         40.00	     6.928
  16.420         35.83	     6.557
  16.440         32.50	     6.245
  16.460         35.00	     6.481
  16.480         37.50	     6.708
  16.500         32.50	     6.245
  16.520         27.50	     5.745
  16.540         27.50	     5.745
  16.560         35.83	     6.557
  16.580         34.17	     6.403
  16.600         33.33	     6.325
  16.620         35.83	     6.557
  16.640         34.17	     6.403
  16.660         30.83	     6.083
  16.680         39.17	     6.856
  16.700         35.00	     6.481
  16.720         45.00	     7.348
  16.740         35.00	     6.481
  16.760         29.17	     5.916
  16.780         30.83	     6.083
  16.800         30.83	     6.083
  16.820         31.67	     6.164
  16.840         23.33	     5.292
  16.860         34.17	     6.403
  16.880         29.17	     5.916
  16.900         40.00	     6.928
  16.920         39.17	     6.856
  16.940         32.50	     6.245
  16.960         31.67	     6.164
  16.980         31.67	     6.164
  17.000         26.67	     5.657
  17.020         27.50	     5.745
  17.040         38.33	     6.782
  17.060         30.83	     6.083
  17.080         38.33	     6.782
  17.100         37.50	     6.708
  17.120         30.83	     6.083
  17.140         37.50	     6.708
  17.160         30.83	     6.083
  17.180         35.00	     6.481
  17.200         31.67	     6.164
  17.220         35.00	     6.481
  17.240         38.33	     6.782
  17.260         25.83	     5.568
  17.280         29.17	     5.916
  17.300         40.00	     6.928
  17.320         29.17	     5.916
  17.340         32.50	     6.245
  17.360         30.83	     6.083
  17.380         28.33	     5.831
  17.400         34.17	     6.403
  17.420         29.17	     5.916
  17.440         35.00	     6.481
  17.460         30.83	     6.083
  17.480         37.50	     6.708
  17.500         30.00	     6.000
  17.520         41.67	     7.071
  17.540         30.83	     6.083
  17.560         35.00	     6.481
  17.580         32.50	     6.245
  17.600         45.83	     7.416
  17.620         30.00	     6.000
  17.640         40.00	     6.928
  17.660         38.33	     6.782
  17.680         32.50	     6.245
  17.700         46.67	     7.483
  17.720         40.00	     6.928
  17.740         29.17	     5.916
  17.760         30.00	     6.000
  17.780         37.50	     6.708
  17.800         39.17	     6.856
  17.820         36.67	     6.633
  17.840         55.00	     8.124
  17.860         40.00	     6.928
  17.880         55.00	     8.124
  17.900         50.83	     7.810
  17.920         52.50	     7.937
  17.940         55.00	     8.124
  17.960         69.17	     9.110
  17.980         66.67	     8.944
  18.000         80.00	     9.798
  18.020         73.33	     9.381
  18.040         89.17	    10.344
  18.060         90.83	    10.440
  18.080         82.50	     9.950
  18.100         71.67	     9.274
  18.120         60.83	     8.544
  18.140         53.33	     8.000
  18.160         42.50	     7.141
  18.180         50.00	     7.746
  18.200         45.83	     7.416
  18.220         50.83	     7.810
  18.240         38.33	     6.782
  18.260         45.00	     7.348
  18.280         40.83	     7.000
  18.300         33.33	     6.325
  18.320         43.33	     7.211
  18.340         44.17	     7.280
  18.360         45.83	     7.416
  18.380         46.67	     7.483
  18.400         36.67	     6.633
  18.420         42.50	     7.141
  18.440         38.33	     6.782
  18.460         35.83	     6.557
  18.480         35.00	     6.481
  18.500         35.83	     6.557
  18.520         29.17	     5.916
  18.540         37.50	     6.708
  18.560         31.67	     6.164
  18.580         37.50	     6.708
  18.600         46.67	     7.483
  18.620         34.17	     6.403
  18.640         35.00	     6.481
  18.660         46.67	     7.483
  18.680         41.67	     7.071
  18.700         40.00	     6.928
  18.720         59.17	     8.426
  18.740         58.33	     8.367
  18.760         61.67	     8.602
  18.780         58.33	     8.367
  18.800         78.33	     9.695
  18.820         57.50	     8.307
  18.840         60.83	     8.544
  18.860         75.83	     9.539
  18.880         62.50	     8.660
  18.900         65.00	     8.832
  18.920         63.33	     8.718
  18.940         86.67	    10.198
  18.960         93.33	    10.583
  18.980        129.17	    12.450
  19.000        138.33	    12.884
  19.020        116.67	    11.832
  19.040         87.50	    10.247
  19.060         75.00	     9.487
  19.080         65.83	     8.888
  19.100         57.50	     8.307
  19.120         33.33	     6.325
  19.140         46.67	     7.483
  19.160         47.50	     7.550
  19.180         47.50	     7.550
  19.200         46.67	     7.483
  19.220         42.50	     7.141
  19.240         35.83	     6.557
  19.260         40.00	     6.928
  19.280         41.67	     7.071
  19.300         50.83	     7.810
  19.320         53.33	     8.000
  19.340         38.33	     6.782
  19.360         45.83	     7.416
  19.380         36.67	     6.633
  19.400         47.50	     7.550
  19.420         48.33	     7.616
  19.440         61.67	     8.602
  19.460         42.50	     7.141
  19.480         57.50	     8.307
  19.500         52.50	     7.937
  19.520         59.17	     8.426
  19.540         45.00	     7.348
  19.560         45.83	     7.416
  19.580         41.67	     7.071
  19.600         38.33	     6.782
  19.620         46.67	     7.483
  19.640         42.50	     7.141
  19.660         55.00	     8.124
  19.680         50.83	     7.810
  19.700         56.67	     8.246
  19.720         39.17	     6.856
  19.740         65.00	     8.832
  19.760         65.83	     8.888
  19.780         67.50	     9.000
  19.800         55.00	     8.124
  19.820         55.83	     8.185
  19.840         70.83	     9.220
  19.860         64.17	     8.775
  19.880         72.50	     9.327
  19.900        105.83	    11.269
  19.920        105.83	    11.269
  19.940        102.50	    11.091
  19.960        105.00	    11.225
  19.980         91.67	    10.488
  20.000         82.50	     9.950
  20.020         95.00	    10.677
  20.040         80.83	     9.849
  20.060         88.33	    10.296
  20.080        114.17	    11.705
  20.100         81.67	     9.899
  20.120         70.83	     9.220
  20.140         75.00	     9.487
  20.160         69.17	     9.110
  20.180         55.83	     8.185
  20.200         52.50	     7.937
  20.220         55.00	     8.124
  20.240         43.33	     7.211
  20.260         44.17	     7.280
  20.280         47.50	     7.550
  20.300         39.17	     6.856
  20.320         45.83	     7.416
  20.340         47.50	     7.550
  20.360         59.17	     8.426
  20.380         45.00	     7.348
  20.400         35.83	     6.557
  20.420         44.17	     7.280
  20.440         37.50	     6.708
  20.460         34.17	     6.403
  20.480         39.17	     6.856
  20.500         38.33	     6.782
  20.520         41.67	     7.071
  20.540         41.67	     7.071
  20.560         40.00	     6.928
  20.580         36.67	     6.633
  20.600         42.50	     7.141
  20.620         45.00	     7.348
  20.640         43.33	     7.211
  20.660         50.83	     7.810
  20.680         50.83	     7.810
  20.700         40.00	     6.928
  20.720         57.50	     8.307
  20.740         42.50	     7.141
  20.760         47.50	     7.550
  20.780         60.00	     8.485
  20.800         50.83	     7.810
  20.820         55.00	     8.124
  20.840         54.17	     8.062
  20.860         91.67	    10.488
  20.880        111.67	    11.576
  20.900        133.33	    12.649
  20.920        217.50	    16.155
  20.940        230.00	    16.613
  20.960        231.67	    16.673
  20.980        189.17	    15.067
  21.000        198.33	    15.427
  21.020        183.33	    14.832
  21.040        200.83	    15.524
  21.060        214.17	    16.031
  21.080        267.50	    17.916
  21.100        278.33	    18.276
  21.120        269.17	    17.972
  21.140        177.50	    14.595
  21.160        180.00	    14.697
  21.180        115.00	    11.747
  21.200         87.50	    10.247
  21.220         92.50	    10.536
  21.240         78.33	     9.695
  21.260         70.83	     9.220
  21.280         62.50	     8.660
  21.300         60.83	     8.544
  21.320         60.83	     8.544
  21.340         52.50	     7.937
  21.360         45.83	     7.416
  21.380         51.67	     7.874
  21.400         51.67	     7.874
  21.420         40.00	     6.928
  21.440         47.50	     7.550
  21.460         50.00	     7.746
  21.480         40.00	     6.928
  21.500         38.33	     6.782
  21.520         39.17	     6.856
  21.540         50.83	     7.810
  21.560         41.67	     7.071
  21.580         53.33	     8.000
  21.600         39.17	     6.856
  21.620         35.00	     6.481
  21.640         41.67	     7.071
  21.660         53.33	     8.000
  21.680         44.17	     7.280
  21.700         37.50	     6.708
  21.720         37.50	     6.708
  21.740         40.83	     7.000
  21.760         35.83	     6.557
  21.780         51.67	     7.874
  21.800         47.50	     7.550
  21.820         45.83	     7.416
  21.840         54.17	     8.062
  21.860         44.17	     7.280
  21.880         55.00	     8.124
  21.900         42.50	     7.141
  21.920         40.00	     6.928
  21.940         41.67	     7.071
  21.960         38.33	     6.782
  21.980         42.50	     7.141
  22.000         36.67	     6.633
  22.020         51.67	     7.874
  22.040         45.83	     7.416
  22.060         73.33	     9.381
  22.080         81.67	     9.899
  22.100         98.33	    10.863
  22.120         97.50	    10.817
  22.140         92.50	    10.536
  22.160         85.83	    10.149
  22.180        113.33	    11.662
  22.200         87.50	    10.247
  22.220        104.17	    11.180
  22.240        140.83	    13.000
  22.260        197.50	    15.395
  22.280        184.17	    14.866
  22.300        165.83	    14.107
  22.320        159.17	    13.820
  22.340        108.33	    11.402
  22.360         80.83	     9.849
  22.380         64.17	     8.775
  22.400         44.17	     7.280
  22.420         64.17	     8.775
  22.440         45.83	     7.416
  22.460         48.33	     7.616
  22.480         54.17	     8.062
  22.500         59.17	     8.426
  22.520         61.67	     8.602
  22.540         62.50	     8.660
  22.560         80.83	     9.849
  22.580        107.50	    11.358
  22.600         95.00	    10.677
  22.620         79.17	     9.747
  22.640         85.00	    10.100
  22.660         70.83	     9.220
  22.680         69.17	     9.110
  22.700         72.50	     9.327
  22.720         61.67	     8.602
  22.740         55.83	     8.185
  22.760         75.00	     9.487
  22.780         49.17	     7.681
  22.800         45.00	     7.348
  22.820         58.33	     8.367
  22.840         45.83	     7.416
  22.860         50.83	     7.810
  22.880         47.50	     7.550
  22.900         53.33	     8.000
  22.920         36.67	     6.633
  22.940         45.83	     7.416
  22.960         46.67	     7.483
  22.980         50.00	     7.746
  23.000         48.33	     7.616
  23.020         51.67	     7.874
  23.040         71.67	     9.274
  23.060         80.83	     9.849
  23.080         90.83	    10.440
  23.100        103.33	    11.136
  23.120        113.33	    11.662
  23.140        115.83	    11.790
  23.160        100.00	    10.954
  23.180         90.83	    10.440
  23.200         87.50	    10.247
  23.220         72.50	     9.327
  23.240         89.17	    10.344
  23.260         85.83	    10.149
  23.280         62.50	     8.660
  23.300         66.67	     8.944
  23.320         79.17	     9.747
  23.340         63.33	     8.718
  23.360         50.83	     7.810
  23.380         52.50	     7.937
  23.400         47.50	     7.550
  23.420         47.50	     7.550
  23.440         51.67	     7.874
  23.460         50.00	     7.746
  23.480         52.50	     7.937
  23.500         40.83	     7.000
  23.520         50.83	     7.810
  23.540         52.50	     7.937
  23.560         52.50	     7.937
  23.580         65.83	     8.888
  23.600        105.83	    11.269
  23.620        111.67	    11.576
  23.640        130.83	    12.530
  23.660        145.00	    13.191
  23.680        135.83	    12.767
  23.700        125.83	    12.288
  23.720        144.17	    13.153
  23.740        142.50	    13.077
  23.760        125.83	    12.288
  23.780        128.33	    12.410
  23.800        116.67	    11.832
  23.820        102.50	    11.091
  23.840         89.17	    10.344
  23.860        107.50	    11.358
  23.880        103.33	    11.136
  23.900         90.83	    10.440
  23.920         83.33	    10.000
  23.940         86.67	    10.198
  23.960         76.67	     9.592
  23.980         81.67	     9.899
  24.000         95.00	    10.677
  24.020         75.00	     9.487
  24.040         81.67	     9.899
  24.060         68.33	     9.055
  24.080         77.50	     9.644
  24.100         80.00	     9.798
  24.120         92.50	    10.536
  24.140         69.17	     9.110
  24.160         68.33	     9.055
  24.180         77.50	     9.644
  24.200        109.17	    11.446
  24.220         96.67	    10.770
  24.240        127.50	    12.369
  24.260        103.33	    11.136
  24.280        102.50	    11.091
  24.300         92.50	    10.536
  24.320        100.00	    10.954
  24.340        141.67	    13.038
  24.360        145.00	    13.191
  24.380        139.17	    12.923
  24.400        120.83	    12.042
  24.420        121.67	    12.083
  24.440        123.33	    12.166
  24.460        101.67	    11.045
  24.480        116.67	    11.832
  24.500        142.50	    13.077
  24.520        148.33	    13.342
  24.540        150.00	    13.416
  24.560        140.83	    13.000
  24.580        152.50	    13.528
  24.600        152.50	    13.528
  24.620        144.17	    13.153
  24.640        127.50	    12.369
  24.660        120.83	    12.042
  24.680        122.50	    12.124
  24.700        115.83	    11.790
  24.720        108.33	    11.402
  24.740        127.50	    12.369
  24.760        135.00	    12.728
  24.780        157.50	    13.748
  24.800        180.00	    14.697
  24.820        202.50	    15.588
  24.840        180.83	    14.731
  24.860        203.33	    15.620
  24.880        175.00	    14.491
  24.900        175.83	    14.526
  24.920        160.00	    13.856
  24.940        155.00	    13.638
  24.960        131.67	    12.570
  24.980        105.83	    11.269
  25.000        133.33	    12.649
  25.020        102.50	    11.091
  25.040        106.67	    11.314
  25.060         90.00	    10.392
  25.080        101.67	    11.045
  25.100         80.83	     9.849
  25.120         98.33	    10.863
  25.140         89.17	    10.344
  25.160         96.67	    10.770
  25.180         97.50	    10.817
  25.200        118.33	    11.916
  25.220        130.00	    12.490
  25.240        126.67	    12.329
  25.260        165.83	    14.107
  25.280        206.67	    15.748
  25.300        211.67	    15.937
  25.320        235.00	    16.793
  25.340        225.00	    16.432
  25.360        203.33	    15.620
  25.380        209.17	    15.843
  25.400        196.67	    15.362
  25.420        160.83	    13.892
  25.440        130.83	    12.530
  25.460         94.17	    10.630
  25.480         84.17	    10.050
  25.500         88.33	    10.296
  25.520         93.33	    10.583
  25.540         95.83	    10.724
  25.560         85.83	    10.149
  25.580        100.00	    10.954
  25.600        103.33	    11.136
  25.620        125.00	    12.247
  25.640        111.67	    11.576
  25.660        117.50	    11.874
  25.680        157.50	    13.748
  25.700        167.50	    14.177
  25.720        146.67	    13.266
  25.740        123.33	    12.166
  25.760        131.67	    12.570
  25.780        117.50	    11.874
  25.800        109.17	    11.446
  25.820        133.33	    12.649
  25.840        100.83	    11.000
  25.860         97.50	    10.817
  25.880         88.33	    10.296
  25.900         91.67	    10.488
  25.920         91.67	    10.488
  25.940         74.17	     9.434
  25.960         83.33	    10.000
  25.980         72.50	     9.327
  26.000         68.33	     9.055
  26.020         59.17	     8.426
  26.040         62.50	     8.660
  26.060         67.50	     9.000
  26.080         44.17	     7.280
  26.100         50.83	     7.810
  26.120         69.17	     9.110
  26.140         60.83	     8.544
  26.160         58.33	     8.367
  26.180         60.83	     8.544
  26.200         53.33	     8.000
  26.220         59.17	     8.426
  26.240         70.83	     9.220
  26.260         48.33	     7.616
  26.280         58.33	     8.367
  26.300         55.00	     8.124
  26.320         67.50	     9.000
  26.340         65.00	     8.832
  26.360         50.83	     7.810
  26.380         86.67	    10.198
  26.400         68.33	     9.055
  26.420         70.83	     9.220
  26.440         88.33	    10.296
  26.460         76.67	     9.592
  26.480         85.83	    10.149
  26.500        124.17	    12.207
  26.520        140.00	    12.961
  26.540        158.33	    13.784
  26.560        153.33	    13.565
  26.580        182.50	    14.799
  26.600        190.83	    15.133
  26.620        205.83	    15.716
  26.640        250.00	    17.321
  26.660        383.33	    21.448
  26.680        749.17	    29.983
  26.700       1497.50	    42.391
  26.720       1651.67	    44.520
  26.740       1352.50	    40.286
  26.760       1124.17	    36.729
  26.780       1344.17	    40.162
  26.800       1340.83	    40.112
  26.820       1313.33	    39.699
  26.840       1476.67	    42.095
  26.860       1702.50	    45.200
  26.880       1639.17	    44.351
  26.900       1502.50	    42.462
  26.920       1295.83	    39.433
  26.940       1096.67	    36.277
  26.960        824.17	    31.448
  26.980        575.00	    26.268
  27.000        425.00	    22.583
  27.020        340.00	    20.199
  27.040        305.00	    19.131
  27.060        271.67	    18.055
  27.080        300.83	    19.000
  27.100        275.83	    18.193
  27.120        210.00	    15.875
  27.140        235.00	    16.793
  27.160        185.00	    14.900
  27.180        161.67	    13.928
  27.200        139.17	    12.923
  27.220        128.33	    12.410
  27.240        124.17	    12.207
  27.260         94.17	    10.630
  27.280        100.00	    10.954
  27.300        123.33	    12.166
  27.320        130.00	    12.490
  27.340        108.33	    11.402
  27.360        109.17	    11.446
  27.380         95.00	    10.677
  27.400        104.17	    11.180
  27.420        105.83	    11.269
  27.440         81.67	     9.899
  27.460         99.17	    10.909
  27.480        131.67	    12.570
  27.500        156.67	    13.711
  27.520        146.67	    13.266
  27.540        193.33	    15.232
  27.560        223.33	    16.371
  27.580        248.33	    17.263
  27.600        298.33	    18.921
  27.620        248.33	    17.263
  27.640        215.83	    16.093
  27.660        230.83	    16.643
  27.680        232.50	    16.703
  27.700        225.00	    16.432
  27.720        230.00	    16.613
  27.740        215.00	    16.062
  27.760        213.33	    16.000
  27.780        190.00	    15.100
  27.800        191.67	    15.166
  27.820        160.83	    13.892
  27.840        173.33	    14.422
  27.860        142.50	    13.077
  27.880        120.00	    12.000
  27.900        180.83	    14.731
  27.920        240.00	    16.971
  27.940        310.83	    19.313
  27.960        319.17	    19.570
  27.980        347.50	    20.421
  28.000        335.00	    20.050
  28.020        349.17	    20.469
  28.040        368.33	    21.024
  28.060        319.17	    19.570
  28.080        365.00	    20.928
  28.100        493.33	    24.331
  28.120        696.67	    28.914
  28.140        740.83	    29.816
  28.160        684.17	    28.653
  28.180        620.00	    27.276
  28.200        577.50	    26.325
  28.220        495.83	    24.393
  28.240        330.00	    19.900
  28.260        260.00	    17.664
  28.280        200.00	    15.492
  28.300        150.00	    13.416
  28.320        163.33	    14.000
  28.340        156.67	    13.711
  28.360        155.83	    13.675
  28.380        154.17	    13.601
  28.400        137.50	    12.845
  28.420        129.17	    12.450
  28.440        135.83	    12.767
  28.460        149.17	    13.379
  28.480        117.50	    11.874
  28.500        117.50	    11.874
  28.520        100.83	    11.000
  28.540        113.33	    11.662
  28.560         89.17	    10.344
  28.580         75.00	     9.487
  28.600         88.33	    10.296
  28.620         86.67	    10.198
  28.640         90.00	    10.392
  28.660         86.67	    10.198
  28.680        114.17	    11.705
  28.700        185.00	    14.900
  28.720        262.50	    17.748
  28.740        224.17	    16.401
  28.760        158.33	    13.784
  28.780        162.50	    13.964
  28.800        212.50	    15.969
  28.820        160.83	    13.892
  28.840        130.83	    12.530
  28.860         96.67	    10.770
  28.880        105.00	    11.225
  28.900         72.50	     9.327
  28.920         81.67	     9.899
  28.940         65.00	     8.832
  28.960         62.50	     8.660
  28.980         55.83	     8.185
  29.000         70.00	     9.165
  29.020         71.67	     9.274
  29.040         60.83	     8.544
  29.060         49.17	     7.681
  29.080         57.50	     8.307
  29.100         45.83	     7.416
  29.120         35.83	     6.557
  29.140         52.50	     7.937
  29.160         45.83	     7.416
  29.180         45.00	     7.348
  29.200         40.83	     7.000
  29.220         40.00	     6.928
  29.240         49.17	     7.681
  29.260         41.67	     7.071
  29.280         48.33	     7.616
  29.300         35.83	     6.557
  29.320         32.50	     6.245
  29.340         48.33	     7.616
  29.360         48.33	     7.616
  29.380         31.67	     6.164
  29.400         52.50	     7.937
  29.420         38.33	     6.782
  29.440         36.67	     6.633
  29.460         50.83	     7.810
  29.480         41.67	     7.071
  29.500         44.17	     7.280
  29.520         34.17	     6.403
  29.540         40.00	     6.928
  29.560         40.00	     6.928
  29.580         55.00	     8.124
  29.600         35.00	     6.481
  29.620         41.67	     7.071
  29.640         35.00	     6.481
  29.660         40.83	     7.000
  29.680         41.67	     7.071
  29.700         50.00	     7.746
  29.720         45.00	     7.348
  29.740         59.17	     8.426
  29.760         59.17	     8.426
  29.780         44.17	     7.280
  29.800         50.00	     7.746
  29.820         54.17	     8.062
  29.840         59.17	     8.426
  29.860         57.50	     8.307
  29.880         60.00	     8.485
  29.900         60.00	     8.485
  29.920         75.00	     9.487
  29.940         70.00	     9.165
  29.960         96.67	    10.770
  29.980        100.83	    11.000
  30.000        106.67	    11.314
  30.020        111.67	    11.576
  30.040        125.00	    12.247
  30.060        133.33	    12.649
  30.080        142.50	    13.077
  30.100        149.17	    13.379
  30.120        143.33	    13.115
  30.140        147.50	    13.304
  30.160        161.67	    13.928
  30.180        160.00	    13.856
  30.200        175.00	    14.491
  30.220        144.17	    13.153
  30.240        175.00	    14.491
  30.260        154.17	    13.601
  30.280        164.17	    14.036
  30.300        174.17	    14.457
  30.320        137.50	    12.845
  30.340        121.67	    12.083
  30.360        127.50	    12.369
  30.380        115.00	    11.747
  30.400        123.33	    12.166
  30.420        130.00	    12.490
  30.440        110.83	    11.533
  30.460        110.00	    11.489
  30.480        114.17	    11.705
  30.500        112.50	    11.619
  30.520        108.33	    11.402
  30.540        113.33	    11.662
  30.560        107.50	    11.358
  30.580        147.50	    13.304
  30.600        150.00	    13.416
  30.620        166.67	    14.142
  30.640        139.17	    12.923
  30.660        167.50	    14.177
  30.680        152.50	    13.528
  30.700        155.83	    13.675
  30.720        139.17	    12.923
  30.740        132.50	    12.610
  30.760        102.50	    11.091
  30.780        101.67	    11.045
  30.800         83.33	    10.000
  30.820         72.50	     9.327
  30.840         77.50	     9.644
  30.860         60.00	     8.485
  30.880         64.17	     8.775
  30.900         58.33	     8.367
  30.920         45.00	     7.348
  30.940         53.33	     8.000
  30.960         47.50	     7.550
  30.980         61.67	     8.602
  31.000         67.50	     9.000
  31.020         60.83	     8.544
  31.040         84.17	    10.050
  31.060         96.67	    10.770
  31.080        116.67	    11.832
  31.100         93.33	    10.583
  31.120         85.00	    10.100
  31.140         75.83	     9.539
  31.160         83.33	    10.000
  31.180         58.33	     8.367
  31.200         42.50	     7.141
  31.220         54.17	     8.062
  31.240         72.50	     9.327
  31.260         63.33	     8.718
  31.280         64.17	     8.775
  31.300         52.50	     7.937
  31.320         82.50	     9.950
  31.340         84.17	    10.050
  31.360         76.67	     9.592
  31.380         98.33	    10.863
  31.400         99.17	    10.909
  31.420         95.83	    10.724
  31.440        100.00	    10.954
  31.460        102.50	    11.091
  31.480        102.50	    11.091
  31.500        110.00	    11.489
  31.520        100.00	    10.954
  31.540         99.17	    10.909
  31.560         97.50	    10.817
  31.580         85.83	    10.149
  31.600         67.50	     9.000
  31.620         72.50	     9.327
  31.640         75.83	     9.539
  31.660         70.83	     9.220
  31.680         70.00	     9.165
  31.700         99.17	    10.909
  31.720         93.33	    10.583
  31.740         81.67	     9.899
  31.760         90.00	    10.392
  31.780         80.83	     9.849
  31.800         89.17	    10.344
  31.820         61.67	     8.602
  31.840         67.50	     9.000
  31.860         68.33	     9.055
  31.880         54.17	     8.062
  31.900         42.50	     7.141
  31.920         55.83	     8.185
  31.940         41.67	     7.071
  31.960         50.83	     7.810
  31.980         45.00	     7.348
  32.000         46.67	     7.483
  32.020         55.00	     8.124
  32.040         45.83	     7.416
  32.060         49.17	     7.681
  32.080         55.00	     8.124
  32.100         47.50	     7.550
  32.120         59.17	     8.426
  32.140         59.17	     8.426
  32.160         61.67	     8.602
  32.180         57.50	     8.307
  32.200         56.67	     8.246
  32.220         59.17	     8.426
  32.240         60.83	     8.544
  32.260         70.83	     9.220
  32.280         80.00	     9.798
  32.300         75.00	     9.487
  32.320         86.67	    10.198
  32.340         91.67	    10.488
  32.360         68.33	     9.055
  32.380         70.00	     9.165
  32.400         60.83	     8.544
  32.420         50.83	     7.810
  32.440         60.83	     8.544
  32.460         54.17	     8.062
  32.480         53.33	     8.000
  32.500         63.33	     8.718
  32.520         55.00	     8.124
  32.540         44.17	     7.280
  32.560         46.67	     7.483
  32.580         36.67	     6.633
  32.600         48.33	     7.616
  32.620         39.17	     6.856
  32.640         35.83	     6.557
  32.660         50.83	     7.810
  32.680         35.83	     6.557
  32.700         32.50	     6.245
  32.720         34.17	     6.403
  32.740         31.67	     6.164
  32.760         26.67	     5.657
  32.780         30.00	     6.000
  32.800         32.50	     6.245
  32.820         21.67	     5.099
  32.840         30.83	     6.083
  32.860         31.67	     6.164
  32.880         34.17	     6.403
  32.900         33.33	     6.325
  32.920         35.00	     6.481
  32.940         28.33	     5.831
  32.960         35.00	     6.481
  32.980         29.17	     5.916
  33.000         39.17	     6.856
  33.020         35.00	     6.481
  33.040         35.83	     6.557
  33.060         31.67	     6.164
  33.080         34.17	     6.403
  33.100         30.83	     6.083
  33.120         35.00	     6.481
  33.140         44.17	     7.280
  33.160         33.33	     6.325
  33.180         50.83	     7.810
  33.200         47.50	     7.550
  33.220         68.33	     9.055
  33.240         79.17	     9.747
  33.260         60.83	     8.544
  33.280         56.67	     8.246
  33.300         79.17	     9.747
  33.320         55.00	     8.124
  33.340         69.17	     9.110
  33.360         62.50	     8.660
  33.380         50.00	     7.746
  33.400         56.67	     8.246
  33.420         42.50	     7.141
  33.440         36.67	     6.633
  33.460         24.17	     5.385
  33.480         39.17	     6.856
  33.500         35.83	     6.557
  33.520         40.83	     7.000
  33.540         31.67	     6.164
  33.560         30.00	     6.000
  33.580         43.33	     7.211
  33.600         48.33	     7.616
  33.620         36.67	     6.633
  33.640         49.17	     7.681
  33.660         43.33	     7.211
  33.680         39.17	     6.856
  33.700         41.67	     7.071
  33.720         42.50	     7.141
  33.740         43.33	     7.211
  33.760         46.67	     7.483
  33.780         40.83	     7.000
  33.800         37.50	     6.708
  33.820         40.83	     7.000
  33.840         50.00	     7.746
  33.860         32.50	     6.245
  33.880         40.83	     7.000
  33.900         36.67	     6.633
  33.920         48.33	     7.616
  33.940         35.00	     6.481
  33.960         45.83	     7.416
  33.980         41.67	     7.071
  34.000         35.83	     6.557
  34.020         44.17	     7.280
  34.040         48.33	     7.616
  34.060         39.17	     6.856
  34.080         53.33	     8.000
  34.100         40.83	     7.000
  34.120         49.17	     7.681
  34.140         61.67	     8.602
  34.160         58.33	     8.367
  34.180         58.33	     8.367
  34.200         62.50	     8.660
  34.220         53.33	     8.000
  34.240         55.83	     8.185
  34.260         56.67	     8.246
  34.280         50.00	     7.746
  34.300         56.67	     8.246
  34.320         45.00	     7.348
  34.340         61.67	     8.602
  34.360         50.00	     7.746
  34.380         52.50	     7.937
  34.400         60.83	     8.544
  34.420         48.33	     7.616
  34.440         45.83	     7.416
  34.460         50.83	     7.810
  34.480         55.00	     8.124
  34.500         60.00	     8.485
  34.520         68.33	     9.055
  34.540         66.67	     8.944
  34.560         61.67	     8.602
  34.580         60.00	     8.485
  34.600         80.00	     9.798
  34.620         75.83	     9.539
  34.640         97.50	    10.817
  34.660         95.00	    10.677
  34.680         94.17	    10.630
  34.700        117.50	    11.874
  34.720         89.17	    10.344
  34.740        110.83	    11.533
  34.760        110.83	    11.533
  34.780        137.50	    12.845
  34.800        128.33	    12.410
  34.820        120.00	    12.000
  34.840         81.67	     9.899
  34.860        110.83	    11.533
  34.880         91.67	    10.488
  34.900         93.33	    10.583
  34.920         84.17	    10.050
  34.940         72.50	     9.327
  34.960         63.33	     8.718
  34.980         76.67	     9.592
  35.000         73.33	     9.381
  35.020         77.50	     9.644
  35.040         90.00	    10.392
  35.060         99.17	    10.909
  35.080        102.50	    11.091
  35.100        104.17	    11.180
  35.120        116.67	    11.832
  35.140        122.50	    12.124
  35.160        142.50	    13.077
  35.180        140.00	    12.961
  35.200        125.83	    12.288
  35.220        125.83	    12.288
  35.240        135.83	    12.767
  35.260        136.67	    12.806
  35.280        145.83	    13.229
  35.300        127.50	    12.369
  35.320        122.50	    12.124
  35.340        100.83	    11.000
  35.360        118.33	    11.916
  35.380         97.50	    10.817
  35.400        116.67	    11.832
  35.420         82.50	     9.950
  35.440         94.17	    10.630
  35.460         82.50	     9.950
  35.480        101.67	    11.045
  35.500         97.50	    10.817
  35.520         80.83	     9.849
  35.540         91.67	    10.488
  35.560         93.33	    10.583
  35.580         95.83	    10.724
  35.600         87.50	    10.247
  35.620         88.33	    10.296
  35.640         97.50	    10.817
  35.660        105.83	    11.269
  35.680        113.33	    11.662
  35.700        127.50	    12.369
  35.720        195.83	    15.330
  35.740        171.67	    14.353
  35.760        158.33	    13.784
  35.780        170.83	    14.318
  35.800        130.83	    12.530
  35.820        170.00	    14.283
  35.840        135.00	    12.728
  35.860        122.50	    12.124
  35.880        115.00	    11.747
  35.900         85.83	    10.149
  35.920         89.17	    10.344
  35.940         94.17	    10.630
  35.960         53.33	     8.000
  35.980         65.83	     8.888
  36.000         59.17	     8.426
  36.020         54.17	     8.062
  36.040         64.17	     8.775
  36.060         64.17	     8.775
  36.080         47.50	     7.550
  36.100         66.67	     8.944
  36.120         56.67	     8.246
  36.140         60.83	     8.544
  36.160         56.67	     8.246
  36.180         49.17	     7.681
  36.200         55.83	     8.185
  36.220         53.33	     8.000
  36.240         51.67	     7.874
  36.260         53.33	     8.000
  36.280         57.50	     8.307
  36.300         58.33	     8.367
  36.320         56.67	     8.246
  36.340         65.00	     8.832
  36.360         60.00	     8.485
  36.380         55.00	     8.124
  36.400         50.83	     7.810
  36.420         44.17	     7.280
  36.440         46.67	     7.483
  36.460         32.50	     6.245
  36.480         55.00	     8.124
  36.500         50.83	     7.810
  36.520         68.33	     9.055
  36.540         47.50	     7.550
  36.560         45.83	     7.416
  36.580         67.50	     9.000
  36.600         74.17	     9.434
  36.620        109.17	    11.446
  36.640        134.17	    12.689
  36.660        102.50	    11.091
  36.680        139.17	    12.923
  36.700        165.00	    14.071
  36.720        220.00	    16.248
  36.740        237.50	    16.882
  36.760        260.83	    17.692
  36.780        284.17	    18.466
  36.800        234.17	    16.763
  36.820        202.50	    15.588
  36.840        202.50	    15.588
  36.860        219.17	    16.217
  36.880        170.00	    14.283
  36.900        156.67	    13.711
  36.920        117.50	    11.874
  36.940        111.67	    11.576
  36.960         92.50	    10.536
  36.980         89.17	    10.344
  37.000         70.83	     9.220
  37.020         82.50	     9.950
  37.040         60.00	     8.485
  37.060         66.67	     8.944
  37.080         66.67	     8.944
  37.100         52.50	     7.937
  37.120         55.83	     8.185
  37.140         53.33	     8.000
  37.160         55.83	     8.185
  37.180         44.17	     7.280
  37.200         60.83	     8.544
  37.220         50.83	     7.810
  37.240         48.33	     7.616
  37.260         46.67	     7.483
  37.280         51.67	     7.874
  37.300         45.00	     7.348
  37.320         60.00	     8.485
  37.340         55.83	     8.185
  37.360         50.00	     7.746
  37.380         47.50	     7.550
  37.400         50.83	     7.810
  37.420         60.83	     8.544
  37.440         59.17	     8.426
  37.460         48.33	     7.616
  37.480         69.17	     9.110
  37.500         55.83	     8.185
  37.520         66.67	     8.944
  37.540         60.83	     8.544
  37.560         77.50	     9.644
  37.580         60.83	     8.544
  37.600         50.00	     7.746
  37.620         66.67	     8.944
  37.640         60.83	     8.544
  37.660         74.17	     9.434
  37.680         69.17	     9.110
  37.700         80.83	     9.849
  37.720         80.83	     9.849
  37.740         80.83	     9.849
  37.760         57.50	     8.307
  37.780         75.00	     9.487
  37.800         86.67	    10.198
  37.820         75.83	     9.539
  37.840         86.67	    10.198
  37.860         79.17	     9.747
  37.880         87.50	    10.247
  37.900         90.83	    10.440
  37.920         85.00	    10.100
  37.940        103.33	    11.136
  37.960         85.00	    10.100
  37.980         85.00	    10.100
  38.000         82.50	     9.950
  38.020         95.00	    10.677
  38.040         78.33	     9.695
  38.060         70.00	     9.165
  38.080         68.33	     9.055
  38.100         74.17	     9.434
  38.120         91.67	    10.488
  38.140         95.00	    10.677
  38.160        157.50	    13.748
  38.180        180.00	    14.697
  38.200        154.17	    13.601
  38.220         95.83	    10.724
  38.240         94.17	    10.630
  38.260        117.50	    11.874
  38.280        111.67	    11.576
  38.300         87.50	    10.247
  38.320         70.00	     9.165
  38.340         48.33	     7.616
  38.360         38.33	     6.782
  38.380         36.67	     6.633
  38.400         40.83	     7.000
  38.420         41.67	     7.071
  38.440         28.33	     5.831
  38.460         29.17	     5.916
  38.480         35.00	     6.481
  38.500         23.33	     5.292
  38.520         35.00	     6.481
  38.540         35.00	     6.481
  38.560         39.17	     6.856
  38.580         41.67	     7.071
  38.600         31.67	     6.164
  38.620         28.33	     5.831
  38.640         37.50	     6.708
  38.660         50.00	     7.746
  38.680         55.00	     8.124
  38.700         40.83	     7.000
  38.720         40.00	     6.928
  38.740         56.67	     8.246
  38.760         48.33	     7.616
  38.780         50.83	     7.810
  38.800         43.33	     7.211
  38.820         47.50	     7.550
  38.840         50.83	     7.810
  38.860         39.17	     6.856
  38.880         34.17	     6.403
  38.900         60.00	     8.485
  38.920         64.17	     8.775
  38.940         54.17	     8.062
  38.960         55.00	     8.124
  38.980         57.50	     8.307
  39.000         55.00	     8.124
  39.020         81.67	     9.899
  39.040         50.83	     7.810
  39.060         69.17	     9.110
  39.080         40.00	     6.928
  39.100         52.50	     7.937
  39.120         48.33	     7.616
  39.140         41.67	     7.071
  39.160         64.17	     8.775
  39.180         42.50	     7.141
  39.200         46.67	     7.483
  39.220         50.00	     7.746
  39.240         31.67	     6.164
  39.260         36.67	     6.633
  39.280         26.67	     5.657
  39.300         30.00	     6.000
  39.320         40.00	     6.928
  39.340         36.67	     6.633
  39.360         36.67	     6.633
  39.380         44.17	     7.280
  39.400         46.67	     7.483
  39.420         35.83	     6.557
  39.440         41.67	     7.071
  39.460         46.67	     7.483
  39.480         44.17	     7.280
  39.500         63.33	     8.718
  39.520         75.00	     9.487
  39.540        151.67	    13.491
  39.560        195.00	    15.297
  39.580        126.67	    12.329
  39.600         86.67	    10.198
  39.620        102.50	    11.091
  39.640        170.83	    14.318
  39.660        240.83	    17.000
  39.680        225.00	    16.432
  39.700        227.50	    16.523
  39.720        160.83	    13.892
  39.740        123.33	    12.166
  39.760        118.33	    11.916
  39.780        138.33	    12.884
  39.800        143.33	    13.115
  39.820        141.67	    13.038
  39.840         91.67	    10.488
  39.860         69.17	     9.110
  39.880         74.17	     9.434
  39.900         77.50	     9.644
  39.920         70.83	     9.220
  39.940         53.33	     8.000
  39.960         50.83	     7.810
  39.980         69.17	     9.110
  40.000         42.50	     7.141
  40.020         36.67	     6.633
  40.040         46.67	     7.483
  40.060         44.17	     7.280
  40.080         48.33	     7.616
  40.100         40.83	     7.000
  40.120         44.17	     7.280
  40.140         51.67	     7.874
  40.160         43.33	     7.211
  40.180         45.00	     7.348
  40.200         36.67	     6.633
  40.220         53.33	     8.000
  40.240         43.33	     7.211
  40.260         40.00	     6.928
  40.280         43.33	     7.211
  40.300         60.00	     8.485
  40.320         48.33	     7.616
  40.340         75.83	     9.539
  40.360         48.33	     7.616
  40.380         54.17	     8.062
  40.400         73.33	     9.381
  40.420         90.83	    10.440
  40.440         62.50	     8.660
  40.460        100.83	    11.000
  40.480        113.33	    11.662
  40.500        116.67	    11.832
  40.520        103.33	    11.136
  40.540         84.17	    10.050
  40.560         71.67	     9.274
  40.580         76.67	     9.592
  40.600         82.50	     9.950
  40.620         67.50	     9.000
  40.640         67.50	     9.000
  40.660         44.17	     7.280
  40.680         50.00	     7.746
  40.700         42.50	     7.141
  40.720         35.83	     6.557
  40.740         36.67	     6.633
  40.760         39.17	     6.856
  40.780         40.83	     7.000
  40.800         42.50	     7.141
  40.820         36.67	     6.633
  40.840         39.17	     6.856
  40.860         37.50	     6.708
  40.880         40.83	     7.000
  40.900         37.50	     6.708
  40.920         44.17	     7.280
  40.940         41.67	     7.071
  40.960         47.50	     7.550
  40.980         35.83	     6.557
  41.000         51.67	     7.874
  41.020         45.00	     7.348
  41.040         45.83	     7.416
  41.060         40.83	     7.000
  41.080         50.83	     7.810
  41.100         44.17	     7.280
  41.120         53.33	     8.000
  41.140         47.50	     7.550
  41.160         39.17	     6.856
  41.180         40.00	     6.928
  41.200         43.33	     7.211
  41.220         37.50	     6.708
  41.240         44.17	     7.280
  41.260         43.33	     7.211
  41.280         36.67	     6.633
  41.300         42.50	     7.141
  41.320         42.50	     7.141
  41.340         50.00	     7.746
  41.360         71.67	     9.274
  41.380         81.67	     9.899
  41.400         65.00	     8.832
  41.420         60.83	     8.544
  41.440         58.33	     8.367
  41.460         67.50	     9.000
  41.480         81.67	     9.899
  41.500         66.67	     8.944
  41.520         53.33	     8.000
  41.540         50.00	     7.746
  41.560         41.67	     7.071
  41.580         52.50	     7.937
  41.600         35.83	     6.557
  41.620         39.17	     6.856
  41.640         60.00	     8.485
  41.660         50.00	     7.746
  41.680         43.33	     7.211
  41.700         43.33	     7.211
  41.720         43.33	     7.211
  41.740         36.67	     6.633
  41.760         51.67	     7.874
  41.780         62.50	     8.660
  41.800         61.67	     8.602
  41.820         65.83	     8.888
  41.840         65.00	     8.832
  41.860         61.67	     8.602
  41.880         75.83	     9.539
  41.900         70.83	     9.220
  41.920         75.83	     9.539
  41.940         95.83	    10.724
  41.960        118.33	    11.916
  41.980        110.83	    11.533
  42.000        120.00	    12.000
  42.020         76.67	     9.592
  42.040         80.83	     9.849
  42.060         85.83	    10.149
  42.080         98.33	    10.863
  42.100         75.83	     9.539
  42.120         91.67	    10.488
  42.140         71.67	     9.274
  42.160         67.50	     9.000
  42.180         80.00	     9.798
  42.200         70.00	     9.165
  42.220         76.67	     9.592
  42.240         64.17	     8.775
  42.260         57.50	     8.307
  42.280         60.00	     8.485
  42.300         61.67	     8.602
  42.320         60.00	     8.485
  42.340         64.17	     8.775
  42.360         51.67	     7.874
  42.380         58.33	     8.367
  42.400         70.83	     9.220
  42.420         66.67	     8.944
  42.440         95.00	    10.677
  42.460        113.33	    11.662
  42.480        108.33	    11.402
  42.500        105.00	    11.225
  42.520        109.17	    11.446
  42.540        106.67	    11.314
  42.560        113.33	    11.662
  42.580        111.67	    11.576
  42.600        136.67	    12.806
  42.620        153.33	    13.565
  42.640        187.50	    15.000
  42.660        225.83	    16.462
  42.680        210.00	    15.875
  42.700        162.50	    13.964
  42.720        142.50	    13.077
  42.740        133.33	    12.649
  42.760        124.17	    12.207
  42.780        143.33	    13.115
  42.800        110.83	    11.533
  42.820        103.33	    11.136
  42.840         68.33	     9.055
  42.860         64.17	     8.775
  42.880         40.83	     7.000
  42.900         47.50	     7.550
  42.920         47.50	     7.550
  42.940         57.50	     8.307
  42.960         51.67	     7.874
  42.980         55.00	     8.124
  43.000         60.00	     8.485
  43.020         61.67	     8.602
  43.040         50.83	     7.810
  43.060         45.83	     7.416
  43.080         57.50	     8.307
  43.100         44.17	     7.280
  43.120         40.00	     6.928
  43.140         52.50	     7.937
  43.160         35.00	     6.481
  43.180         35.83	     6.557
  43.200         41.67	     7.071
  43.220         33.33	     6.325
  43.240         40.00	     6.928
  43.260         47.50	     7.550
  43.280         37.50	     6.708
  43.300         43.33	     7.211
  43.320         36.67	     6.633
  43.340         40.83	     7.000
  43.360         34.17	     6.403
  43.380         30.83	     6.083
  43.400         29.17	     5.916
  43.420         43.33	     7.211
  43.440         30.00	     6.000
  43.460         36.67	     6.633
  43.480         26.67	     5.657
  43.500         22.50	     5.196
  43.520         30.83	     6.083
  43.540         31.67	     6.164
  43.560         37.50	     6.708
  43.580         36.67	     6.633
  43.600         35.83	     6.557
  43.620         30.00	     6.000
  43.640         19.17	     4.796
  43.660         32.50	     6.245
  43.680         38.33	     6.782
  43.700         42.50	     7.141
  43.720         40.83	     7.000
  43.740         38.33	     6.782
  43.760         40.83	     7.000
  43.780         45.00	     7.348
  43.800         30.00	     6.000
  43.820         48.33	     7.616
  43.840         40.83	     7.000
  43.860         41.67	     7.071
  43.880         36.67	     6.633
  43.900         44.17	     7.280
  43.920         35.00	     6.481
  43.940         39.17	     6.856
  43.960         36.67	     6.633
  43.980         43.33	     7.211
  44.000         33.33	     6.325
  44.020         38.33	     6.782
  44.040         33.33	     6.325
  44.060         32.50	     6.245
  44.080         31.67	     6.164
  44.100         40.83	     7.000
  44.120         41.67	     7.071
  44.140         27.50	     5.745
  44.160         43.33	     7.211
  44.180         41.67	     7.071
  44.200         55.00	     8.124
  44.220         49.17	     7.681
  44.240         48.33	     7.616
  44.260         49.17	     7.681
  44.280         61.67	     8.602
  44.300         61.67	     8.602
  44.320         82.50	     9.950
  44.340        115.00	    11.747
  44.360        175.00	    14.491
  44.380        170.00	    14.283
  44.400        103.33	    11.136
  44.420         71.67	     9.274
  44.440         78.33	     9.695
  44.460         78.33	     9.695
  44.480         92.50	    10.536
  44.500         94.17	    10.630
  44.520         59.17	     8.426
  44.540         43.33	     7.211
  44.560         49.17	     7.681
  44.580         41.67	     7.071
  44.600         39.17	     6.856
  44.620         37.50	     6.708
  44.640         40.83	     7.000
  44.660         42.50	     7.141
  44.680         27.50	     5.745
  44.700         32.50	     6.245
  44.720         36.67	     6.633
  44.740         35.83	     6.557
  44.760         42.50	     7.141
  44.780         40.00	     6.928
  44.800         37.50	     6.708
  44.820         32.50	     6.245
  44.840         45.83	     7.416
  44.860         41.67	     7.071
  44.880         46.67	     7.483
  44.900         41.67	     7.071
  44.920         35.83	     6.557
  44.940         40.83	     7.000
  44.960         45.00	     7.348
  44.980         39.17	     6.856
  45.000         59.17	     8.426
  45.020         47.50	     7.550
  45.040         46.67	     7.483
  45.060         53.33	     8.000
  45.080         49.17	     7.681
  45.100         48.33	     7.616
  45.120         47.50	     7.550
  45.140         45.83	     7.416
  45.160         63.33	     8.718
  45.180         65.00	     8.832
  45.200         55.00	     8.124
  45.220         66.67	     8.944
  45.240         63.33	     8.718
  45.260         61.67	     8.602
  45.280         64.17	     8.775
  45.300         79.17	     9.747
  45.320         60.83	     8.544
  45.340         72.50	     9.327
  45.360         75.00	     9.487
  45.380         53.33	     8.000
  45.400         75.83	     9.539
  45.420         61.67	     8.602
  45.440         76.67	     9.592
  45.460         66.67	     8.944
  45.480         64.17	     8.775
  45.500         75.83	     9.539
  45.520         81.67	     9.899
  45.540         81.67	     9.899
  45.560         80.00	     9.798
  45.580         72.50	     9.327
  45.600         83.33	    10.000
  45.620         75.83	     9.539
  45.640         97.50	    10.817
  45.660         90.83	    10.440
  45.680         93.33	    10.583
  45.700         97.50	    10.817
  45.720         95.00	    10.677
  45.740        100.00	    10.954
  45.760        102.50	    11.091
  45.780        100.00	    10.954
  45.800         86.67	    10.198
  45.820         84.17	    10.050
  45.840         85.00	    10.100
  45.860         93.33	    10.583
  45.880        104.17	    11.180
  45.900         71.67	     9.274
  45.920         87.50	    10.247
  45.940        110.00	    11.489
  45.960         78.33	     9.695
  45.980        104.17	    11.180
  46.000        105.83	    11.269
  46.020         99.17	    10.909
  46.040         85.00	    10.100
  46.060         68.33	     9.055
  46.080         73.33	     9.381
  46.100         87.50	    10.247
  46.120         79.17	     9.747
  46.140         79.17	     9.747
  46.160         67.50	     9.000
  46.180         61.67	     8.602
  46.200         63.33	     8.718
  46.220         58.33	     8.367
  46.240         53.33	     8.000
  46.260         41.67	     7.071
  46.280         62.50	     8.660
  46.300         65.00	     8.832
  46.320         52.50	     7.937
  46.340         61.67	     8.602
  46.360         47.50	     7.550
  46.380         43.33	     7.211
  46.400         43.33	     7.211
  46.420         43.33	     7.211
  46.440         34.17	     6.403
  46.460         36.67	     6.633
  46.480         31.67	     6.164
  46.500         36.67	     6.633
  46.520         45.00	     7.348
  46.540         35.00	     6.481
  46.560         27.50	     5.745
  46.580         27.50	     5.745
  46.600         38.33	     6.782
  46.620         25.00	     5.477
  46.640         35.83	     6.557
  46.660         23.33	     5.292
  46.680         28.33	     5.831
  46.700         27.50	     5.745
  46.720         44.17	     7.280
  46.740         36.67	     6.633
  46.760         31.67	     6.164
  46.780         32.50	     6.245
  46.800         28.33	     5.831
  46.820         22.50	     5.196
  46.840         30.00	     6.000
  46.860         25.00	     5.477
  46.880         23.33	     5.292
  46.900         22.50	     5.196
  46.920         26.67	     5.657
  46.940         28.33	     5.831
  46.960         26.67	     5.657
  46.980         33.33	     6.325
  47.000         35.00	     6.481
  47.020         30.83	     6.083
  47.040         30.83	     6.083
  47.060         37.50	     6.708
  47.080         33.33	     6.325
  47.100         33.33	     6.325
  47.120         31.67	     6.164
  47.140         35.00	     6.481
  47.160         48.33	     7.616
  47.180         68.33	     9.055
  47.200         48.33	     7.616
  47.220         42.50	     7.141
  47.240         35.83	     6.557
  47.260         40.00	     6.928
  47.280         44.17	     7.280
  47.300         59.17	     8.426
  47.320         44.17	     7.280
  47.340         45.00	     7.348
  47.360         49.17	     7.681
  47.380         44.17	     7.280
  47.400         40.00	     6.928
  47.420         40.83	     7.000
  47.440         44.17	     7.280
  47.460         40.83	     7.000
  47.480         40.00	     6.928
  47.500         33.33	     6.325
  47.520         32.50	     6.245
  47.540         39.17	     6.856
  47.560         26.67	     5.657
  47.580         34.17	     6.403
  47.600         30.83	     6.083
  47.620         26.67	     5.657
  47.640         30.83	     6.083
  47.660         30.00	     6.000
  47.680         33.33	     6.325
  47.700         30.83	     6.083
  47.720         26.67	     5.657
  47.740         21.67	     5.099
  47.760         28.33	     5.831
  47.780         20.83	     5.000
  47.800         26.67	     5.657
  47.820         28.33	     5.831
  47.840         25.00	     5.477
  47.860         32.50	     6.245
  47.880         21.67	     5.099
  47.900         20.83	     5.000
  47.920         21.67	     5.099
  47.940         25.00	     5.477
  47.960         24.17	     5.385
  47.980         27.50	     5.745
  48.000         35.00	     6.481
  48.020         36.67	     6.633
  48.040         40.00	     6.928
  48.060         42.50	     7.141
  48.080         42.50	     7.141
  48.100         47.50	     7.550
  48.120         45.83	     7.416
  48.140         45.00	     7.348
  48.160         48.33	     7.616
  48.180         60.00	     8.485
  48.200         42.50	     7.141
  48.220         40.00	     6.928
  48.240         43.33	     7.211
  48.260         56.67	     8.246
  48.280         47.50	     7.550
  48.300         44.17	     7.280
  48.320         45.83	     7.416
  48.340         70.00	     9.165
  48.360         54.17	     8.062
  48.380         55.83	     8.185
  48.400         62.50	     8.660
  48.420         57.50	     8.307
  48.440         45.00	     7.348
  48.460         57.50	     8.307
  48.480         40.83	     7.000
  48.500         55.83	     8.185
  48.520         48.33	     7.616
  48.540         57.50	     8.307
  48.560         49.17	     7.681
  48.580         36.67	     6.633
  48.600         44.17	     7.280
  48.620         36.67	     6.633
  48.640         30.83	     6.083
  48.660         36.67	     6.633
  48.680         38.33	     6.782
  48.700         50.83	     7.810
  48.720         35.83	     6.557
  48.740         40.00	     6.928
  48.760         44.17	     7.280
  48.780         39.17	     6.856
  48.800         35.00	     6.481
  48.820         32.50	     6.245
  48.840         38.33	     6.782
  48.860         47.50	     7.550
  48.880         42.50	     7.141
  48.900         37.50	     6.708
  48.920         37.50	     6.708
  48.940         35.00	     6.481
  48.960         41.67	     7.071
  48.980         37.50	     6.708
  49.000         40.00	     6.928
  49.020         40.00	     6.928
  49.040         41.67	     7.071
  49.060         26.67	     5.657
  49.080         44.17	     7.280
  49.100         43.33	     7.211
  49.120         38.33	     6.782
  49.140         52.50	     7.937
  49.160         29.17	     5.916
  49.180         38.33	     6.782
  49.200         35.83	     6.557
  49.220         45.83	     7.416
  49.240         32.50	     6.245
  49.260         52.50	     7.937
  49.280         39.17	     6.856
  49.300         37.50	     6.708
  49.320         38.33	     6.782
  49.340         45.83	     7.416
  49.360         35.00	     6.481
  49.380         42.50	     7.141
  49.400         65.83	     8.888
  49.420         83.33	    10.000
  49.440         78.33	     9.695
  49.460         55.00	     8.124
  49.480         52.50	     7.937
  49.500         58.33	     8.367
  49.520         47.50	     7.550
  49.540         55.00	     8.124
  49.560         64.17	     8.775
  49.580         61.67	     8.602
  49.600         50.83	     7.810
  49.620         36.67	     6.633
  49.640         52.50	     7.937
  49.660         49.17	     7.681
  49.680         45.83	     7.416
  49.700         32.50	     6.245
  49.720         46.67	     7.483
  49.740         33.33	     6.325
  49.760         33.33	     6.325
  49.780         44.17	     7.280
  49.800         35.00	     6.481
  49.820         46.67	     7.483
  49.840         43.33	     7.211
  49.860         52.50	     7.937
  49.880         40.83	     7.000
  49.900         53.33	     8.000
  49.920         43.33	     7.211
  49.940         53.33	     8.000
  49.960         50.00	     7.746
  49.980         57.50	     8.307
  50.000         87.50	    10.247
  50.020         98.33	    10.863
  50.040         91.67	    10.488
  50.060         87.50	    10.247
  50.080         93.33	    10.583
  50.100         76.67	     9.592
  50.120         95.83	    10.724
  50.140         87.50	    10.247
  50.160         96.67	    10.770
  50.180         96.67	    10.770
  50.200         75.83	     9.539
  50.220        120.00	    12.000
  50.240        120.83	    12.042
  50.260        138.33	    12.884
  50.280        172.50	    14.387
  50.300        186.67	    14.967
  50.320        262.50	    17.748
  50.340        288.33	    18.601
  50.360        309.17	    19.261
  50.380        223.33	    16.371
  50.400        160.83	    13.892
  50.420        126.67	    12.329
  50.440        145.00	    13.191
  50.460        181.67	    14.765
  50.480        160.00	    13.856
  50.500        129.17	    12.450
  50.520        106.67	    11.314
  50.540         70.00	     9.165
  50.560         54.17	     8.062
  50.580         52.50	     7.937
  50.600         51.67	     7.874
  50.620         52.50	     7.937
  50.640         50.83	     7.810
  50.660         36.67	     6.633
  50.680         75.00	     9.487
  50.700         58.33	     8.367
  50.720         64.17	     8.775
  50.740         63.33	     8.718
  50.760         69.17	     9.110
  50.780         72.50	     9.327
  50.800         68.33	     9.055
  50.820         73.33	     9.381
  50.840         68.33	     9.055
  50.860         72.50	     9.327
  50.880         64.17	     8.775
  50.900         57.50	     8.307
  50.920         52.50	     7.937
  50.940         79.17	     9.747
  50.960         64.17	     8.775
  50.980         48.33	     7.616
  51.000         53.33	     8.000
  51.020         46.67	     7.483
  51.040         44.17	     7.280
  51.060         35.00	     6.481
  51.080         42.50	     7.141
  51.100         34.17	     6.403
  51.120         33.33	     6.325
  51.140         30.00	     6.000
  51.160         31.67	     6.164
  51.180         35.83	     6.557
  51.200         32.50	     6.245
  51.220         39.17	     6.856
  51.240         45.00	     7.348
  51.260         40.83	     7.000
  51.280         31.67	     6.164
  51.300         42.50	     7.141
  51.320         35.00	     6.481
  51.340         58.33	     8.367
  51.360         55.00	     8.124
  51.380         55.00	     8.124
  51.400         49.17	     7.681
  51.420         54.17	     8.062
  51.440         60.00	     8.485
  51.460         54.17	     8.062
  51.480         60.00	     8.485
  51.500         52.50	     7.937
  51.520         49.17	     7.681
  51.540         46.67	     7.483
  51.560         47.50	     7.550
  51.580         44.17	     7.280
  51.600         37.50	     6.708
  51.620         41.67	     7.071
  51.640         26.67	     5.657
  51.660         34.17	     6.403
  51.680         34.17	     6.403
  51.700         31.67	     6.164
  51.720         25.00	     5.477
  51.740         35.00	     6.481
  51.760         26.67	     5.657
  51.780         27.50	     5.745
  51.800         20.00	     4.899
  51.820         31.67	     6.164
  51.840         31.67	     6.164
  51.860         30.00	     6.000
  51.880         34.17	     6.403
  51.900         39.17	     6.856
  51.920         29.17	     5.916
  51.940         23.33	     5.292
  51.960         32.50	     6.245
  51.980         30.00	     6.000
  52.000         22.50	     5.196
  52.020         25.83	     5.568
  52.040         19.17	     4.796
  52.060         21.67	     5.099
  52.080         33.33	     6.325
  52.100         21.67	     5.099
  52.120         30.00	     6.000
  52.140         25.83	     5.568
  52.160         35.83	     6.557
  52.180         34.17	     6.403
  52.200         38.33	     6.782
  52.220         26.67	     5.657
  52.240         38.33	     6.782
  52.260         33.33	     6.325
  52.280         28.33	     5.831
  52.300         41.67	     7.071
  52.320         38.33	     6.782
  52.340         56.67	     8.246
  52.360         52.50	     7.937
  52.380         40.00	     6.928
  52.400         46.67	     7.483
  52.420         45.00	     7.348
  52.440         45.83	     7.416
  52.460         44.17	     7.280
  52.480         40.83	     7.000
  52.500         57.50	     8.307
  52.520         52.50	     7.937
  52.540         34.17	     6.403
  52.560         60.00	     8.485
  52.580         49.17	     7.681
  52.600         41.67	     7.071
  52.620         50.00	     7.746
  52.640         43.33	     7.211
  52.660         45.00	     7.348
  52.680         70.00	     9.165
  52.700         62.50	     8.660
  52.720         60.00	     8.485
  52.740         54.17	     8.062
  52.760         37.50	     6.708
  52.780         40.83	     7.000
  52.800         45.00	     7.348
  52.820         32.50	     6.245
  52.840         40.83	     7.000
  52.860         42.50	     7.141
  52.880         32.50	     6.245
  52.900         59.17	     8.426
  52.920         35.83	     6.557
  52.940         37.50	     6.708
  52.960         43.33	     7.211
  52.980         50.00	     7.746
  53.000         41.67	     7.071
  53.020         37.50	     6.708
  53.040         40.00	     6.928
  53.060         45.83	     7.416
  53.080         37.50	     6.708
  53.100         56.67	     8.246
  53.120         43.33	     7.211
  53.140         38.33	     6.782
  53.160         46.67	     7.483
  53.180         33.33	     6.325
  53.200         54.17	     8.062
  53.220         35.00	     6.481
  53.240         37.50	     6.708
  53.260         47.50	     7.550
  53.280         32.50	     6.245
  53.300         46.67	     7.483
  53.320         43.33	     7.211
  53.340         41.67	     7.071
  53.360         60.83	     8.544
  53.380         45.83	     7.416
  53.400         65.83	     8.888
  53.420         47.50	     7.550
  53.440         47.50	     7.550
  53.460         45.00	     7.348
  53.480         47.50	     7.550
  53.500         50.00	     7.746
  53.520         40.00	     6.928
  53.540         40.83	     7.000
  53.560         54.17	     8.062
  53.580         35.00	     6.481
  53.600         40.83	     7.000
  53.620         39.17	     6.856
  53.640         35.00	     6.481
  53.660         44.17	     7.280
  53.680         36.67	     6.633
  53.700         45.83	     7.416
  53.720         25.00	     5.477
  53.740         40.83	     7.000
  53.760         33.33	     6.325
  53.780         43.33	     7.211
  53.800         39.17	     6.856
  53.820         52.50	     7.937
  53.840         35.00	     6.481
  53.860         29.17	     5.916
  53.880         39.17	     6.856
  53.900         54.17	     8.062
  53.920         30.00	     6.000
  53.940         33.33	     6.325
  53.960         35.00	     6.481
  53.980         27.50	     5.745
  54.000         21.67	     5.099
  54.020         43.33	     7.211
  54.040         34.17	     6.403
  54.060         31.67	     6.164
  54.080         29.17	     5.916
  54.100         37.50	     6.708
  54.120         43.33	     7.211
  54.140         33.33	     6.325
  54.160         35.83	     6.557
  54.180         31.67	     6.164
  54.200         43.33	     7.211
  54.220         32.50	     6.245
  54.240         40.00	     6.928
  54.260         33.33	     6.325
  54.280         31.67	     6.164
  54.300         38.33	     6.782
  54.320         30.00	     6.000
  54.340         32.50	     6.245
  54.360         38.33	     6.782
  54.380         28.33	     5.831
  54.400         27.50	     5.745
  54.420         28.33	     5.831
  54.440         25.83	     5.568
  54.460         41.67	     7.071
  54.480         38.33	     6.782
  54.500         47.50	     7.550
  54.520         44.17	     7.280
  54.540         46.67	     7.483
  54.560         37.50	     6.708
  54.580         40.00	     6.928
  54.600         29.17	     5.916
  54.620         35.83	     6.557
  54.640         39.17	     6.856
  54.660         27.50	     5.745
  54.680         54.17	     8.062
  54.700         33.33	     6.325
  54.720         47.50	     7.550
  54.740         36.67	     6.633
  54.760         40.00	     6.928
  54.780         45.83	     7.416
  54.800         46.67	     7.483
  54.820         49.17	     7.681
  54.840         54.17	     8.062
  54.860         46.67	     7.483
  54.880         40.00	     6.928
  54.900         60.83	     8.544
  54.920         80.00	     9.798
  54.940         92.50	    10.536
  54.960        136.67	    12.806
  54.980        170.83	    14.318
  55.000        132.50	    12.610
  55.020        105.00	    11.225
  55.040        124.17	    12.207
  55.060        126.67	    12.329
  55.080        124.17	    12.207
  55.100        133.33	    12.649
  55.120        147.50	    13.304
  55.140        109.17	    11.446
  55.160        105.83	    11.269
  55.180         93.33	    10.583
  55.200         84.17	    10.050
  55.220         85.83	    10.149
  55.240         89.17	    10.344
  55.260         70.00	     9.165
  55.280         58.33	     8.367
  55.300         56.67	     8.246
  55.320         41.67	     7.071
  55.340         45.00	     7.348
  55.360         39.17	     6.856
  55.380         41.67	     7.071
  55.400         50.83	     7.810
  55.420         59.17	     8.426
  55.440         55.83	     8.185
  55.460         73.33	     9.381
  55.480         68.33	     9.055
  55.500         60.83	     8.544
  55.520         65.83	     8.888
  55.540         60.83	     8.544
  55.560         50.00	     7.746
  55.580         48.33	     7.616
  55.600         45.83	     7.416
  55.620         49.17	     7.681
  55.640         51.67	     7.874
  55.660         44.17	     7.280
  55.680         48.33	     7.616
  55.700         60.00	     8.485
  55.720         55.00	     8.124
  55.740         60.00	     8.485
  55.760         66.67	     8.944
  55.780         62.50	     8.660
  55.800         56.67	     8.246
  55.820         57.50	     8.307
  55.840         67.50	     9.000
  55.860         80.00	     9.798
  55.880         61.67	     8.602
  55.900         80.00	     9.798
  55.920         57.50	     8.307
  55.940         71.67	     9.274
  55.960         62.50	     8.660
  55.980         88.33	    10.296
  56.000         92.50	    10.536
  56.020         78.33	     9.695
  56.040         82.50	     9.950
  56.060         77.50	     9.644
  56.080         75.83	     9.539
  56.100         67.50	     9.000
  56.120         78.33	     9.695
  56.140         83.33	    10.000
  56.160         77.50	     9.644
  56.180         50.00	     7.746
  56.200         55.83	     8.185
  56.220         45.83	     7.416
  56.240         59.17	     8.426
  56.260         55.00	     8.124
  56.280         56.67	     8.246
  56.300         48.33	     7.616
  56.320         40.00	     6.928
  56.340         46.67	     7.483
  56.360         34.17	     6.403
  56.380         40.00	     6.928
  56.400         32.50	     6.245
  56.420         43.33	     7.211
  56.440         41.67	     7.071
  56.460         46.67	     7.483
  56.480         35.00	     6.481
  56.500         55.83	     8.185
  56.520         50.00	     7.746
  56.540         51.67	     7.874
  56.560         44.17	     7.280
  56.580         25.00	     5.477
  56.600         31.67	     6.164
  56.620         30.00	     6.000
  56.640         42.50	     7.141
  56.660         49.17	     7.681
  56.680         40.83	     7.000
  56.700         35.00	     6.481
  56.720         41.67	     7.071
  56.740         39.17	     6.856
  56.760         40.00	     6.928
  56.780         33.33	     6.325
  56.800         50.00	     7.746
  56.820         40.83	     7.000
  56.840         29.17	     5.916
  56.860         30.83	     6.083
  56.880         40.83	     7.000
  56.900         45.00	     7.348
  56.920         38.33	     6.782
  56.940         40.83	     7.000
  56.960         35.00	     6.481
  56.980         40.00	     6.928
  57.000         25.00	     5.477
  57.020         30.83	     6.083
  57.040         44.17	     7.280
  57.060         36.67	     6.633
  57.080         36.67	     6.633
  57.100         39.17	     6.856
  57.120         36.67	     6.633
  57.140         36.67	     6.633
  57.160         43.33	     7.211
  57.180         39.17	     6.856
  57.200         31.67	     6.164
  57.220         36.67	     6.633
  57.240         48.33	     7.616
  57.260         44.17	     7.280
  57.280         38.33	     6.782
  57.300         40.83	     7.000
  57.320         41.67	     7.071
  57.340         49.17	     7.681
  57.360         49.17	     7.681
  57.380         50.83	     7.810
  57.400         44.17	     7.280
  57.420         39.17	     6.856
  57.440         51.67	     7.874
  57.460         46.67	     7.483
  57.480         33.33	     6.325
  57.500         41.67	     7.071
  57.520         40.00	     6.928
  57.540         31.67	     6.164
  57.560         45.00	     7.348
  57.580         35.00	     6.481
  57.600         26.67	     5.657
  57.620         33.33	     6.325
  57.640         35.83	     6.557
  57.660         25.00	     5.477
  57.680         34.17	     6.403
  57.700         31.67	     6.164
  57.720         40.00	     6.928
  57.740         36.67	     6.633
  57.760         46.67	     7.483
  57.780         31.67	     6.164
  57.800         48.33	     7.616
  57.820         31.67	     6.164
  57.840         31.67	     6.164
  57.860         33.33	     6.325
  57.880         39.17	     6.856
  57.900         44.17	     7.280
  57.920         25.83	     5.568
  57.940         33.33	     6.325
  57.960         36.67	     6.633
  57.980         36.67	     6.633
  58.000         35.83	     6.557
  58.020         46.67	     7.483
  58.040         25.00	     5.477
  58.060         30.00	     6.000
  58.080         50.00	     7.746
  58.100         32.50	     6.245
  58.120         34.17	     6.403
  58.140         41.67	     7.071
  58.160         24.17	     5.385
  58.180         40.83	     7.000
  58.200         44.17	     7.280
  58.220         33.33	     6.325
  58.240         28.33	     5.831
  58.260         34.17	     6.403
  58.280         40.00	     6.928
  58.300         40.00	     6.928
  58.320         35.00	     6.481
  58.340         40.83	     7.000
  58.360         46.67	     7.483
  58.380         47.50	     7.550
  58.400         41.67	     7.071
  58.420         45.83	     7.416
  58.440         30.83	     6.083
  58.460         51.67	     7.874
  58.480         35.83	     6.557
  58.500         45.00	     7.348
  58.520         41.67	     7.071
  58.540         45.00	     7.348
  58.560         48.33	     7.616
  58.580         43.33	     7.211
  58.600         36.67	     6.633
  58.620         37.50	     6.708
  58.640         38.33	     6.782
  58.660         49.17	     7.681
  58.680         51.67	     7.874
  58.700         71.67	     9.274
  58.720         56.67	     8.246
  58.740         48.33	     7.616
  58.760         59.17	     8.426
  58.780         41.67	     7.071
  58.800         50.00	     7.746
  58.820         50.83	     7.810
  58.840         67.50	     9.000
  58.860         69.17	     9.110
  58.880         50.00	     7.746
  58.900         55.83	     8.185
  58.920         56.67	     8.246
  58.940         60.00	     8.485
  58.960         55.00	     8.124
  58.980         50.83	     7.810
  59.000         54.17	     8.062
  59.020         36.67	     6.633
  59.040         60.00	     8.485
  59.060         55.83	     8.185
  59.080         36.67	     6.633
  59.100         55.00	     8.124
  59.120         42.50	     7.141
  59.140         54.17	     8.062
  59.160         59.17	     8.426
  59.180         55.00	     8.124
  59.200         58.33	     8.367
  59.220         52.50	     7.937
  59.240         50.00	     7.746
  59.260         55.00	     8.124
  59.280         56.67	     8.246
  59.300         61.67	     8.602
  59.320         52.50	     7.937
  59.340         50.83	     7.810
  59.360         62.50	     8.660
  59.380         65.00	     8.832
  59.400         70.83	     9.220
  59.420         70.00	     9.165
  59.440        102.50	    11.091
  59.460         90.83	    10.440
  59.480         77.50	     9.644
  59.500         70.83	     9.220
  59.520         55.00	     8.124
  59.540         77.50	     9.644
  59.560         62.50	     8.660
  59.580         76.67	     9.592
  59.600         65.83	     8.888
  59.620         63.33	     8.718
  59.640         59.17	     8.426
  59.660         68.33	     9.055
  59.680         41.67	     7.071
  59.700         50.83	     7.810
  59.720         50.00	     7.746
  59.740         40.83	     7.000
  59.760         42.50	     7.141
  59.780         45.83	     7.416
  59.800         34.17	     6.403
  59.820         44.17	     7.280
  59.840         51.67	     7.874
  59.860         45.00	     7.348
  59.880         46.67	     7.483
  59.900         41.67	     7.071
  59.920         55.00	     8.124
  59.940         42.50	     7.141
  59.960         56.67	     8.246
  59.980         55.00	     8.124
  60.000         63.33	     8.718
  60.020         87.50	    10.247
  60.040         98.33	    10.863
  60.060        137.50	    12.845
  60.080        165.00	    14.071
  60.100        224.17	    16.401
  60.120        245.83	    17.176
  60.140        259.17	    17.635
  60.160        285.83	    18.520
  60.180        272.50	    18.083
  60.200        265.83	    17.861
  60.220        187.50	    15.000
  60.240        180.00	    14.697
  60.260        162.50	    13.964
  60.280        152.50	    13.528
  60.300        160.00	    13.856
  60.320        156.67	    13.711
  60.340        150.83	    13.454
  60.360        167.50	    14.177
  60.380        103.33	    11.136
  60.400         87.50	    10.247
  60.420         75.00	     9.487
  60.440         60.00	     8.485
  60.460         62.50	     8.660
  60.480         51.67	     7.874
  60.500         63.33	     8.718
  60.520         45.83	     7.416
  60.540         49.17	     7.681
  60.560         47.50	     7.550
  60.580         54.17	     8.062
  60.600         53.33	     8.000
  60.620         45.83	     7.416
  60.640         47.50	     7.550
  60.660         48.33	     7.616
  60.680         44.17	     7.280
  60.700         52.50	     7.937
  60.720         41.67	     7.071
  60.740         41.67	     7.071
  60.760         47.50	     7.550
  60.780         41.67	     7.071
  60.800         58.33	     8.367
  60.820         43.33	     7.211
  60.840         60.83	     8.544
  60.860         55.83	     8.185
  60.880         54.17	     8.062
  60.900         40.00	     6.928
  60.920         52.50	     7.937
  60.940         59.17	     8.426
  60.960         44.17	     7.280
  60.980         61.67	     8.602
  61.000         69.17	     9.110
  61.020         60.83	     8.544
  61.040         54.17	     8.062
  61.060         56.67	     8.246
  61.080         56.67	     8.246
  61.100         56.67	     8.246
  61.120         60.83	     8.544
  61.140         48.33	     7.616
  61.160         57.50	     8.307
  61.180         54.17	     8.062
  61.200         55.83	     8.185
  61.220         55.00	     8.124
  61.240         56.67	     8.246
  61.260         50.00	     7.746
  61.280         45.83	     7.416
  61.300         43.33	     7.211
  61.320         47.50	     7.550
  61.340         50.00	     7.746
  61.360         46.67	     7.483
  61.380         36.67	     6.633
  61.400         46.67	     7.483
  61.420         36.67	     6.633
  61.440         45.00	     7.348
  61.460         51.67	     7.874
  61.480         72.50	     9.327
  61.500         61.67	     8.602
  61.520         43.33	     7.211
  61.540         53.33	     8.000
  61.560         55.00	     8.124
  61.580         60.83	     8.544
  61.600         70.00	     9.165
  61.620         61.67	     8.602
  61.640         54.17	     8.062
  61.660         86.67	    10.198
  61.680         65.00	     8.832
  61.700         75.83	     9.539
  61.720         80.83	     9.849
  61.740         54.17	     8.062
  61.760         60.83	     8.544
  61.780         80.83	     9.849
  61.800         65.00	     8.832
  61.820         67.50	     9.000
  61.840         59.17	     8.426
  61.860         81.67	     9.899
  61.880         69.17	     9.110
  61.900         75.83	     9.539
  61.920         78.33	     9.695
  61.940         55.83	     8.185
  61.960         67.50	     9.000
  61.980         71.67	     9.274
  62.000         70.83	     9.220
  62.020         93.33	    10.583
  62.040         69.17	     9.110
  62.060         64.17	     8.775
  62.080         75.83	     9.539
  62.100         63.33	     8.718
  62.120         73.33	     9.381
  62.140         70.83	     9.220
  62.160         67.50	     9.000
  62.180         62.50	     8.660
  62.200         56.67	     8.246
  62.220         62.50	     8.660
  62.240         61.67	     8.602
  62.260         46.67	     7.483
  62.280         50.00	     7.746
  62.300         44.17	     7.280
  62.320         49.17	     7.681
  62.340         45.00	     7.348
  62.360         49.17	     7.681
  62.380         48.33	     7.616
  62.400         38.33	     6.782
  62.420         39.17	     6.856
  62.440         42.50	     7.141
  62.460         48.33	     7.616
  62.480         40.83	     7.000
  62.500         30.00	     6.000
  62.520         35.00	     6.481
  62.540         40.00	     6.928
  62.560         31.67	     6.164
  62.580         24.17	     5.385
  62.600         26.67	     5.657
  62.620         41.67	     7.071
  62.640         31.67	     6.164
  62.660         33.33	     6.325
  62.680         34.17	     6.403
  62.700         40.83	     7.000
  62.720         47.50	     7.550
  62.740         58.33	     8.367
  62.760         55.00	     8.124
  62.780         41.67	     7.071
  62.800         41.67	     7.071
  62.820         54.17	     8.062
  62.840         53.33	     8.000
  62.860         41.67	     7.071
  62.880         56.67	     8.246
  62.900         58.33	     8.367
  62.920         55.83	     8.185
  62.940         49.17	     7.681
  62.960         40.00	     6.928
  62.980         52.50	     7.937
  63.000         55.00	     8.124
  63.020         33.33	     6.325
  63.040         44.17	     7.280
  63.060         40.00	     6.928
  63.080         45.00	     7.348
  63.100         53.33	     8.000
  63.120         49.17	     7.681
  63.140         40.83	     7.000
  63.160         34.17	     6.403
  63.180         28.33	     5.831
  63.200         40.00	     6.928
  63.220         28.33	     5.831
  63.240         37.50	     6.708
  63.260         35.00	     6.481
  63.280         43.33	     7.211
  63.300         50.83	     7.810
  63.320         52.50	     7.937
  63.340         43.33	     7.211
  63.360         34.17	     6.403
  63.380         39.17	     6.856
  63.400         35.83	     6.557
  63.420         35.00	     6.481
  63.440         38.33	     6.782
  63.460         45.00	     7.348
  63.480         40.83	     7.000
  63.500         46.67	     7.483
  63.520         50.00	     7.746
  63.540         45.00	     7.348
  63.560         38.33	     6.782
  63.580         40.00	     6.928
  63.600         53.33	     8.000
  63.620         45.00	     7.348
  63.640         48.33	     7.616
  63.660         57.50	     8.307
  63.680         67.50	     9.000
  63.700         67.50	     9.000
  63.720         52.50	     7.937
  63.740         42.50	     7.141
  63.760         42.50	     7.141
  63.780         35.00	     6.481
  63.800         49.17	     7.681
  63.820         54.17	     8.062
  63.840         50.83	     7.810
  63.860         71.67	     9.274
  63.880         53.33	     8.000
  63.900         61.67	     8.602
  63.920         50.83	     7.810
  63.940         43.33	     7.211
  63.960         65.00	     8.832
  63.980         61.67	     8.602
  64.000         55.83	     8.185
  64.020         62.50	     8.660
  64.040         61.67	     8.602
  64.060         55.00	     8.124
  64.080         49.17	     7.681
  64.100         66.67	     8.944
  64.120         71.67	     9.274
  64.140         72.50	     9.327
  64.160         70.00	     9.165
  64.180         68.33	     9.055
  64.200         93.33	    10.583
  64.220         93.33	    10.583
  64.240         91.67	    10.488
  64.260         72.50	     9.327
  64.280         67.50	     9.000
  64.300         70.83	     9.220
  64.320         60.83	     8.544
  64.340         60.00	     8.485
  64.360         59.17	     8.426
  64.380         65.83	     8.888
  64.400         90.83	    10.440
  64.420         93.33	    10.583
  64.440         91.67	    10.488
  64.460        128.33	    12.410
  64.480        140.00	    12.961
  64.500        135.83	    12.767
  64.520         93.33	    10.583
  64.540         78.33	     9.695
  64.560         66.67	     8.944
  64.580         45.83	     7.416
  64.600         65.00	     8.832
  64.620         63.33	     8.718
  64.640         68.33	     9.055
  64.660         83.33	    10.000
  64.680         97.50	    10.817
  64.700         72.50	     9.327
  64.720         72.50	     9.327
  64.740         55.83	     8.185
  64.760         45.83	     7.416
  64.780         47.50	     7.550
  64.800         47.50	     7.550
  64.820         44.17	     7.280
  64.840         44.17	     7.280
  64.860         53.33	     8.000
  64.880         48.33	     7.616
  64.900         41.67	     7.071
  64.920         46.67	     7.483
  64.940         39.17	     6.856
  64.960         45.83	     7.416
  64.980         45.00	     7.348
  65.000         45.83	     7.416
