
Filename:
	C:\Program Files\Thermo Electron\WinXRD\Datafiles\F_HERMAN\GEO\GG_12_SFT.raw

File Created:
	October 12, 2020 - 11:41 PM

Specimen Id:
	GG_12_SFT

Specimen Name:
	

Specimen Description:
	

Comment:
Scan Type: 2Theta Scan
Start Angle: 3 deg.
Stop Angle: 65 deg.
Num Points: 3101
Step Size: 0.02 deg.
Scan Rate: 1.000000
Scan Mode: Continuous
Wavelength: 1.540562
\Kalpha1: 1.540562	\Kalpha2: 1.544390	\Kbeta: 1.392218

Optics:
		Detector:
			 Type: Fixed Slits
		Tube: 
			 Type: Fixed Slits


Datas:
 Pos [deg]       Rate [CPS]      ESD [-]

Range 1 ---> Iteration 1
   3.000        326.67	    19.799
   3.020        345.83	    20.372
   3.040        320.00	    19.596
   3.060        328.33	    19.849
   3.080        307.50	    19.209
   3.100        340.83	    20.224
   3.120        322.50	    19.672
   3.140        305.83	    19.157
   3.160        301.67	    19.026
   3.180        319.17	    19.570
   3.200        291.67	    18.708
   3.220        304.17	    19.105
   3.240        296.67	    18.868
   3.260        279.17	    18.303
   3.280        286.67	    18.547
   3.300        291.67	    18.708
   3.320        260.00	    17.664
   3.340        277.50	    18.248
   3.360        284.17	    18.466
   3.380        277.50	    18.248
   3.400        297.50	    18.894
   3.420        273.33	    18.111
   3.440        284.17	    18.466
   3.460        285.83	    18.520
   3.480        270.00	    18.000
   3.500        261.67	    17.720
   3.520        255.83	    17.521
   3.540        285.00	    18.493
   3.560        260.83	    17.692
   3.580        266.67	    17.889
   3.600        284.17	    18.466
   3.620        265.83	    17.861
   3.640        239.17	    16.941
   3.660        247.50	    17.234
   3.680        247.50	    17.234
   3.700        265.00	    17.833
   3.720        233.33	    16.733
   3.740        245.00	    17.146
   3.760        221.67	    16.310
   3.780        243.33	    17.088
   3.800        223.33	    16.371
   3.820        218.33	    16.186
   3.840        234.17	    16.763
   3.860        241.67	    17.029
   3.880        265.83	    17.861
   3.900        240.00	    16.971
   3.920        238.33	    16.912
   3.940        225.00	    16.432
   3.960        246.67	    17.205
   3.980        254.17	    17.464
   4.000        225.83	    16.462
   4.020        230.83	    16.643
   4.040        236.67	    16.852
   4.060        252.50	    17.407
   4.080        195.00	    15.297
   4.100        220.83	    16.279
   4.120        220.00	    16.248
   4.140        233.33	    16.733
   4.160        225.83	    16.462
   4.180        208.33	    15.811
   4.200        208.33	    15.811
   4.220        213.33	    16.000
   4.240        225.83	    16.462
   4.260        219.17	    16.217
   4.280        192.50	    15.199
   4.300        221.67	    16.310
   4.320        215.00	    16.062
   4.340        205.00	    15.684
   4.360        206.67	    15.748
   4.380        194.17	    15.264
   4.400        201.67	    15.556
   4.420        180.83	    14.731
   4.440        197.50	    15.395
   4.460        184.17	    14.866
   4.480        181.67	    14.765
   4.500        211.67	    15.937
   4.520        210.83	    15.906
   4.540        187.50	    15.000
   4.560        210.83	    15.906
   4.580        189.17	    15.067
   4.600        181.67	    14.765
   4.620        168.33	    14.213
   4.640        205.00	    15.684
   4.660        192.50	    15.199
   4.680        198.33	    15.427
   4.700        173.33	    14.422
   4.720        171.67	    14.353
   4.740        183.33	    14.832
   4.760        189.17	    15.067
   4.780        171.67	    14.353
   4.800        189.17	    15.067
   4.820        163.33	    14.000
   4.840        165.00	    14.071
   4.860        183.33	    14.832
   4.880        188.33	    15.033
   4.900        183.33	    14.832
   4.920        180.00	    14.697
   4.940        164.17	    14.036
   4.960        175.00	    14.491
   4.980        180.83	    14.731
   5.000        179.17	    14.663
   5.020        171.67	    14.353
   5.040        170.00	    14.283
   5.060        172.50	    14.387
   5.080        181.67	    14.765
   5.100        178.33	    14.629
   5.120        160.83	    13.892
   5.140        147.50	    13.304
   5.160        145.00	    13.191
   5.180        148.33	    13.342
   5.200        189.17	    15.067
   5.220        146.67	    13.266
   5.240        182.50	    14.799
   5.260        164.17	    14.036
   5.280        158.33	    13.784
   5.300        140.00	    12.961
   5.320        171.67	    14.353
   5.340        178.33	    14.629
   5.360        159.17	    13.820
   5.380        154.17	    13.601
   5.400        166.67	    14.142
   5.420        160.83	    13.892
   5.440        170.00	    14.283
   5.460        161.67	    13.928
   5.480        161.67	    13.928
   5.500        140.00	    12.961
   5.520        140.00	    12.961
   5.540        164.17	    14.036
   5.560        162.50	    13.964
   5.580        152.50	    13.528
   5.600        137.50	    12.845
   5.620        155.83	    13.675
   5.640        153.33	    13.565
   5.660        145.00	    13.191
   5.680        146.67	    13.266
   5.700        144.17	    13.153
   5.720        139.17	    12.923
   5.740        169.17	    14.248
   5.760        155.83	    13.675
   5.780        150.83	    13.454
   5.800        142.50	    13.077
   5.820        155.83	    13.675
   5.840        136.67	    12.806
   5.860        152.50	    13.528
   5.880        135.83	    12.767
   5.900        127.50	    12.369
   5.920        176.67	    14.560
   5.940        156.67	    13.711
   5.960        154.17	    13.601
   5.980        192.50	    15.199
   6.000        146.67	    13.266
   6.020        155.83	    13.675
   6.040        160.83	    13.892
   6.060        150.83	    13.454
   6.080        172.50	    14.387
   6.100        182.50	    14.799
   6.120        171.67	    14.353
   6.140        149.17	    13.379
   6.160        150.83	    13.454
   6.180        178.33	    14.629
   6.200        188.33	    15.033
   6.220        186.67	    14.967
   6.240        191.67	    15.166
   6.260        187.50	    15.000
   6.280        150.00	    13.416
   6.300        165.83	    14.107
   6.320        159.17	    13.820
   6.340        147.50	    13.304
   6.360        160.00	    13.856
   6.380        176.67	    14.560
   6.400        156.67	    13.711
   6.420        160.83	    13.892
   6.440        184.17	    14.866
   6.460        175.00	    14.491
   6.480        175.00	    14.491
   6.500        151.67	    13.491
   6.520        131.67	    12.570
   6.540        143.33	    13.115
   6.560        145.83	    13.229
   6.580        137.50	    12.845
   6.600        140.00	    12.961
   6.620        118.33	    11.916
   6.640        139.17	    12.923
   6.660        120.83	    12.042
   6.680        140.00	    12.961
   6.700        120.00	    12.000
   6.720        129.17	    12.450
   6.740        112.50	    11.619
   6.760        117.50	    11.874
   6.780        122.50	    12.124
   6.800        109.17	    11.446
   6.820        109.17	    11.446
   6.840        115.00	    11.747
   6.860        130.00	    12.490
   6.880        114.17	    11.705
   6.900        117.50	    11.874
   6.920        111.67	    11.576
   6.940        131.67	    12.570
   6.960        138.33	    12.884
   6.980        125.00	    12.247
   7.000        120.00	    12.000
   7.020        129.17	    12.450
   7.040        118.33	    11.916
   7.060        110.83	    11.533
   7.080        104.17	    11.180
   7.100        115.00	    11.747
   7.120        120.00	    12.000
   7.140        102.50	    11.091
   7.160        107.50	    11.358
   7.180        121.67	    12.083
   7.200        103.33	    11.136
   7.220        117.50	    11.874
   7.240        122.50	    12.124
   7.260        100.83	    11.000
   7.280        118.33	    11.916
   7.300        104.17	    11.180
   7.320        115.83	    11.790
   7.340        110.83	    11.533
   7.360        115.83	    11.790
   7.380        138.33	    12.884
   7.400        109.17	    11.446
   7.420         92.50	    10.536
   7.440        100.00	    10.954
   7.460        113.33	    11.662
   7.480         97.50	    10.817
   7.500         90.83	    10.440
   7.520        109.17	    11.446
   7.540        114.17	    11.705
   7.560        124.17	    12.207
   7.580         99.17	    10.909
   7.600        106.67	    11.314
   7.620         94.17	    10.630
   7.640        121.67	    12.083
   7.660        112.50	    11.619
   7.680         96.67	    10.770
   7.700        102.50	    11.091
   7.720        110.83	    11.533
   7.740        108.33	    11.402
   7.760         99.17	    10.909
   7.780        114.17	    11.705
   7.800        107.50	    11.358
   7.820         98.33	    10.863
   7.840        101.67	    11.045
   7.860        105.00	    11.225
   7.880        100.00	    10.954
   7.900        100.00	    10.954
   7.920        104.17	    11.180
   7.940         90.83	    10.440
   7.960        123.33	    12.166
   7.980        110.83	    11.533
   8.000         85.00	    10.100
   8.020         93.33	    10.583
   8.040         98.33	    10.863
   8.060         85.00	    10.100
   8.080         94.17	    10.630
   8.100         95.83	    10.724
   8.120         98.33	    10.863
   8.140         96.67	    10.770
   8.160        102.50	    11.091
   8.180         96.67	    10.770
   8.200         92.50	    10.536
   8.220         95.83	    10.724
   8.240         90.83	    10.440
   8.260         90.83	    10.440
   8.280         94.17	    10.630
   8.300        103.33	    11.136
   8.320        100.83	    11.000
   8.340         99.17	    10.909
   8.360         92.50	    10.536
   8.380         85.83	    10.149
   8.400         87.50	    10.247
   8.420        105.83	    11.269
   8.440        108.33	    11.402
   8.460         95.00	    10.677
   8.480         90.00	    10.392
   8.500        117.50	    11.874
   8.520        102.50	    11.091
   8.540         92.50	    10.536
   8.560        108.33	    11.402
   8.580         72.50	     9.327
   8.600        106.67	    11.314
   8.620         85.00	    10.100
   8.640        100.83	    11.000
   8.660        100.83	    11.000
   8.680        111.67	    11.576
   8.700         86.67	    10.198
   8.720         97.50	    10.817
   8.740         89.17	    10.344
   8.760        118.33	    11.916
   8.780        100.83	    11.000
   8.800        103.33	    11.136
   8.820        105.00	    11.225
   8.840        120.00	    12.000
   8.860        128.33	    12.410
   8.880        144.17	    13.153
   8.900        135.83	    12.767
   8.920        127.50	    12.369
   8.940        154.17	    13.601
   8.960        146.67	    13.266
   8.980        187.50	    15.000
   9.000        210.00	    15.875
   9.020        184.17	    14.866
   9.040        190.83	    15.133
   9.060        193.33	    15.232
   9.080        213.33	    16.000
   9.100        215.00	    16.062
   9.120        202.50	    15.588
   9.140        190.00	    15.100
   9.160        151.67	    13.491
   9.180        110.00	    11.489
   9.200        110.00	    11.489
   9.220         96.67	    10.770
   9.240         92.50	    10.536
   9.260        104.17	    11.180
   9.280         94.17	    10.630
   9.300         80.83	     9.849
   9.320         74.17	     9.434
   9.340         88.33	    10.296
   9.360        103.33	    11.136
   9.380         87.50	    10.247
   9.400         96.67	    10.770
   9.420         87.50	    10.247
   9.440        100.83	    11.000
   9.460         84.17	    10.050
   9.480         79.17	     9.747
   9.500         97.50	    10.817
   9.520         85.83	    10.149
   9.540         85.00	    10.100
   9.560         85.83	    10.149
   9.580         96.67	    10.770
   9.600         80.83	     9.849
   9.620         77.50	     9.644
   9.640         88.33	    10.296
   9.660         85.83	    10.149
   9.680         86.67	    10.198
   9.700         73.33	     9.381
   9.720         82.50	     9.950
   9.740         86.67	    10.198
   9.760         88.33	    10.296
   9.780         78.33	     9.695
   9.800         81.67	     9.899
   9.820         80.00	     9.798
   9.840         91.67	    10.488
   9.860         53.33	     8.000
   9.880         78.33	     9.695
   9.900         77.50	     9.644
   9.920         80.00	     9.798
   9.940         82.50	     9.950
   9.960         65.00	     8.832
   9.980         75.00	     9.487
  10.000         75.83	     9.539
  10.020         91.67	    10.488
  10.040         74.17	     9.434
  10.060         75.83	     9.539
  10.080         74.17	     9.434
  10.100         80.00	     9.798
  10.120         62.50	     8.660
  10.140         67.50	     9.000
  10.160         57.50	     8.307
  10.180         69.17	     9.110
  10.200         81.67	     9.899
  10.220         83.33	    10.000
  10.240         68.33	     9.055
  10.260         63.33	     8.718
  10.280         69.17	     9.110
  10.300         85.00	    10.100
  10.320         70.00	     9.165
  10.340         75.83	     9.539
  10.360         74.17	     9.434
  10.380         69.17	     9.110
  10.400         52.50	     7.937
  10.420         62.50	     8.660
  10.440         79.17	     9.747
  10.460         71.67	     9.274
  10.480         59.17	     8.426
  10.500         83.33	    10.000
  10.520         63.33	     8.718
  10.540         66.67	     8.944
  10.560         79.17	     9.747
  10.580         82.50	     9.950
  10.600         77.50	     9.644
  10.620         75.83	     9.539
  10.640         84.17	    10.050
  10.660        115.83	    11.790
  10.680        185.00	    14.900
  10.700        199.17	    15.460
  10.720        150.83	    13.454
  10.740        145.00	    13.191
  10.760        107.50	    11.358
  10.780         90.00	    10.392
  10.800         73.33	     9.381
  10.820         71.67	     9.274
  10.840         80.00	     9.798
  10.860         70.00	     9.165
  10.880         60.00	     8.485
  10.900         70.00	     9.165
  10.920         73.33	     9.381
  10.940         65.00	     8.832
  10.960         70.83	     9.220
  10.980         56.67	     8.246
  11.000         69.17	     9.110
  11.020         50.00	     7.746
  11.040         63.33	     8.718
  11.060         61.67	     8.602
  11.080         64.17	     8.775
  11.100         55.83	     8.185
  11.120         67.50	     9.000
  11.140         59.17	     8.426
  11.160         53.33	     8.000
  11.180         54.17	     8.062
  11.200         67.50	     9.000
  11.220         60.83	     8.544
  11.240         55.83	     8.185
  11.260         74.17	     9.434
  11.280         72.50	     9.327
  11.300         58.33	     8.367
  11.320         65.83	     8.888
  11.340         53.33	     8.000
  11.360         60.83	     8.544
  11.380         65.83	     8.888
  11.400         57.50	     8.307
  11.420         67.50	     9.000
  11.440         52.50	     7.937
  11.460         69.17	     9.110
  11.480         52.50	     7.937
  11.500         55.83	     8.185
  11.520         56.67	     8.246
  11.540         43.33	     7.211
  11.560         53.33	     8.000
  11.580         62.50	     8.660
  11.600         57.50	     8.307
  11.620         55.00	     8.124
  11.640         57.50	     8.307
  11.660         50.00	     7.746
  11.680         62.50	     8.660
  11.700         67.50	     9.000
  11.720         51.67	     7.874
  11.740         53.33	     8.000
  11.760         63.33	     8.718
  11.780         60.83	     8.544
  11.800         61.67	     8.602
  11.820         55.00	     8.124
  11.840         44.17	     7.280
  11.860         65.00	     8.832
  11.880         65.00	     8.832
  11.900         55.00	     8.124
  11.920         54.17	     8.062
  11.940         53.33	     8.000
  11.960         65.83	     8.888
  11.980         58.33	     8.367
  12.000         60.00	     8.485
  12.020         65.00	     8.832
  12.040         63.33	     8.718
  12.060         56.67	     8.246
  12.080         60.83	     8.544
  12.100         69.17	     9.110
  12.120         63.33	     8.718
  12.140         61.67	     8.602
  12.160         55.83	     8.185
  12.180         65.00	     8.832
  12.200         71.67	     9.274
  12.220         73.33	     9.381
  12.240         89.17	    10.344
  12.260         74.17	     9.434
  12.280        120.00	    12.000
  12.300        117.50	    11.874
  12.320        126.67	    12.329
  12.340        133.33	    12.649
  12.360        118.33	    11.916
  12.380        148.33	    13.342
  12.400        158.33	    13.784
  12.420        177.50	    14.595
  12.440        177.50	    14.595
  12.460        157.50	    13.748
  12.480        119.17	    11.958
  12.500        132.50	    12.610
  12.520        112.50	    11.619
  12.540        102.50	    11.091
  12.560        105.00	    11.225
  12.580        126.67	    12.329
  12.600        147.50	    13.304
  12.620        160.00	    13.856
  12.640        189.17	    15.067
  12.660        177.50	    14.595
  12.680        234.17	    16.763
  12.700        205.83	    15.716
  12.720        191.67	    15.166
  12.740        181.67	    14.765
  12.760        156.67	    13.711
  12.780        110.83	    11.533
  12.800         92.50	    10.536
  12.820         72.50	     9.327
  12.840         80.00	     9.798
  12.860         73.33	     9.381
  12.880         66.67	     8.944
  12.900         70.83	     9.220
  12.920         54.17	     8.062
  12.940         56.67	     8.246
  12.960         70.00	     9.165
  12.980         40.00	     6.928
  13.000         56.67	     8.246
  13.020         36.67	     6.633
  13.040         61.67	     8.602
  13.060         61.67	     8.602
  13.080         57.50	     8.307
  13.100         48.33	     7.616
  13.120         64.17	     8.775
  13.140         39.17	     6.856
  13.160         55.83	     8.185
  13.180         47.50	     7.550
  13.200         37.50	     6.708
  13.220         41.67	     7.071
  13.240         54.17	     8.062
  13.260         50.00	     7.746
  13.280         51.67	     7.874
  13.300         53.33	     8.000
  13.320         51.67	     7.874
  13.340         53.33	     8.000
  13.360         55.83	     8.185
  13.380         60.00	     8.485
  13.400         46.67	     7.483
  13.420         50.00	     7.746
  13.440         49.17	     7.681
  13.460         49.17	     7.681
  13.480         53.33	     8.000
  13.500         50.83	     7.810
  13.520         48.33	     7.616
  13.540         49.17	     7.681
  13.560         46.67	     7.483
  13.580         52.50	     7.937
  13.600         48.33	     7.616
  13.620         35.83	     6.557
  13.640         41.67	     7.071
  13.660         45.83	     7.416
  13.680         40.83	     7.000
  13.700         48.33	     7.616
  13.720         57.50	     8.307
  13.740         54.17	     8.062
  13.760         58.33	     8.367
  13.780         48.33	     7.616
  13.800         48.33	     7.616
  13.820         47.50	     7.550
  13.840         50.00	     7.746
  13.860         45.83	     7.416
  13.880         60.00	     8.485
  13.900         54.17	     8.062
  13.920         45.83	     7.416
  13.940         50.83	     7.810
  13.960         58.33	     8.367
  13.980         56.67	     8.246
  14.000         49.17	     7.681
  14.020         64.17	     8.775
  14.040         55.83	     8.185
  14.060         60.00	     8.485
  14.080         76.67	     9.592
  14.100         87.50	    10.247
  14.120         60.83	     8.544
  14.140         63.33	     8.718
  14.160         63.33	     8.718
  14.180         50.00	     7.746
  14.200         75.83	     9.539
  14.220         69.17	     9.110
  14.240         61.67	     8.602
  14.260         57.50	     8.307
  14.280         42.50	     7.141
  14.300         48.33	     7.616
  14.320         36.67	     6.633
  14.340         36.67	     6.633
  14.360         52.50	     7.937
  14.380         44.17	     7.280
  14.400         48.33	     7.616
  14.420         36.67	     6.633
  14.440         45.00	     7.348
  14.460         61.67	     8.602
  14.480         33.33	     6.325
  14.500         40.83	     7.000
  14.520         45.83	     7.416
  14.540         46.67	     7.483
  14.560         35.83	     6.557
  14.580         40.00	     6.928
  14.600         43.33	     7.211
  14.620         35.00	     6.481
  14.640         33.33	     6.325
  14.660         39.17	     6.856
  14.680         40.00	     6.928
  14.700         53.33	     8.000
  14.720         42.50	     7.141
  14.740         39.17	     6.856
  14.760         37.50	     6.708
  14.780         45.83	     7.416
  14.800         45.00	     7.348
  14.820         32.50	     6.245
  14.840         40.83	     7.000
  14.860         40.00	     6.928
  14.880         51.67	     7.874
  14.900         37.50	     6.708
  14.920         44.17	     7.280
  14.940         41.67	     7.071
  14.960         40.83	     7.000
  14.980         35.83	     6.557
  15.000         42.50	     7.141
  15.020         45.83	     7.416
  15.040         43.33	     7.211
  15.060         40.00	     6.928
  15.080         30.83	     6.083
  15.100         40.83	     7.000
  15.120         46.67	     7.483
  15.140         44.17	     7.280
  15.160         58.33	     8.367
  15.180         52.50	     7.937
  15.200         46.67	     7.483
  15.220         40.83	     7.000
  15.240         45.83	     7.416
  15.260         50.00	     7.746
  15.280         50.83	     7.810
  15.300         28.33	     5.831
  15.320         49.17	     7.681
  15.340         34.17	     6.403
  15.360         42.50	     7.141
  15.380         44.17	     7.280
  15.400         41.67	     7.071
  15.420         34.17	     6.403
  15.440         34.17	     6.403
  15.460         39.17	     6.856
  15.480         39.17	     6.856
  15.500         45.83	     7.416
  15.520         35.83	     6.557
  15.540         45.00	     7.348
  15.560         37.50	     6.708
  15.580         38.33	     6.782
  15.600         45.00	     7.348
  15.620         38.33	     6.782
  15.640         49.17	     7.681
  15.660         40.00	     6.928
  15.680         35.83	     6.557
  15.700         40.83	     7.000
  15.720         26.67	     5.657
  15.740         46.67	     7.483
  15.760         25.83	     5.568
  15.780         31.67	     6.164
  15.800         36.67	     6.633
  15.820         40.83	     7.000
  15.840         29.17	     5.916
  15.860         35.00	     6.481
  15.880         46.67	     7.483
  15.900         38.33	     6.782
  15.920         30.83	     6.083
  15.940         42.50	     7.141
  15.960         40.00	     6.928
  15.980         46.67	     7.483
  16.000         37.50	     6.708
  16.020         40.83	     7.000
  16.040         40.83	     7.000
  16.060         44.17	     7.280
  16.080         40.83	     7.000
  16.100         30.83	     6.083
  16.120         37.50	     6.708
  16.140         42.50	     7.141
  16.160         43.33	     7.211
  16.180         34.17	     6.403
  16.200         45.00	     7.348
  16.220         33.33	     6.325
  16.240         40.83	     7.000
  16.260         37.50	     6.708
  16.280         40.00	     6.928
  16.300         35.83	     6.557
  16.320         28.33	     5.831
  16.340         31.67	     6.164
  16.360         46.67	     7.483
  16.380         33.33	     6.325
  16.400         30.83	     6.083
  16.420         32.50	     6.245
  16.440         32.50	     6.245
  16.460         28.33	     5.831
  16.480         26.67	     5.657
  16.500         33.33	     6.325
  16.520         39.17	     6.856
  16.540         33.33	     6.325
  16.560         41.67	     7.071
  16.580         29.17	     5.916
  16.600         45.00	     7.348
  16.620         27.50	     5.745
  16.640         43.33	     7.211
  16.660         35.00	     6.481
  16.680         40.00	     6.928
  16.700         27.50	     5.745
  16.720         23.33	     5.292
  16.740         45.83	     7.416
  16.760         35.00	     6.481
  16.780         37.50	     6.708
  16.800         38.33	     6.782
  16.820         36.67	     6.633
  16.840         37.50	     6.708
  16.860         27.50	     5.745
  16.880         32.50	     6.245
  16.900         41.67	     7.071
  16.920         45.83	     7.416
  16.940         25.83	     5.568
  16.960         28.33	     5.831
  16.980         29.17	     5.916
  17.000         38.33	     6.782
  17.020         31.67	     6.164
  17.040         34.17	     6.403
  17.060         36.67	     6.633
  17.080         38.33	     6.782
  17.100         38.33	     6.782
  17.120         39.17	     6.856
  17.140         35.83	     6.557
  17.160         34.17	     6.403
  17.180         29.17	     5.916
  17.200         35.83	     6.557
  17.220         34.17	     6.403
  17.240         33.33	     6.325
  17.260         37.50	     6.708
  17.280         42.50	     7.141
  17.300         35.83	     6.557
  17.320         44.17	     7.280
  17.340         26.67	     5.657
  17.360         30.83	     6.083
  17.380         23.33	     5.292
  17.400         35.83	     6.557
  17.420         27.50	     5.745
  17.440         26.67	     5.657
  17.460         32.50	     6.245
  17.480         36.67	     6.633
  17.500         35.00	     6.481
  17.520         30.00	     6.000
  17.540         29.17	     5.916
  17.560         42.50	     7.141
  17.580         39.17	     6.856
  17.600         35.00	     6.481
  17.620         41.67	     7.071
  17.640         35.83	     6.557
  17.660         35.83	     6.557
  17.680         40.83	     7.000
  17.700         47.50	     7.550
  17.720         35.00	     6.481
  17.740         39.17	     6.856
  17.760         41.67	     7.071
  17.780         36.67	     6.633
  17.800         33.33	     6.325
  17.820         52.50	     7.937
  17.840         47.50	     7.550
  17.860         50.00	     7.746
  17.880         78.33	     9.695
  17.900         67.50	     9.000
  17.920         76.67	     9.592
  17.940         75.00	     9.487
  17.960         85.83	    10.149
  17.980        100.83	    11.000
  18.000         91.67	    10.488
  18.020        100.83	    11.000
  18.040        106.67	    11.314
  18.060         87.50	    10.247
  18.080         93.33	    10.583
  18.100         86.67	    10.198
  18.120         65.83	     8.888
  18.140         53.33	     8.000
  18.160         49.17	     7.681
  18.180         39.17	     6.856
  18.200         34.17	     6.403
  18.220         35.00	     6.481
  18.240         54.17	     8.062
  18.260         39.17	     6.856
  18.280         46.67	     7.483
  18.300         40.00	     6.928
  18.320         30.00	     6.000
  18.340         35.83	     6.557
  18.360         40.83	     7.000
  18.380         39.17	     6.856
  18.400         40.00	     6.928
  18.420         45.00	     7.348
  18.440         35.00	     6.481
  18.460         43.33	     7.211
  18.480         37.50	     6.708
  18.500         34.17	     6.403
  18.520         43.33	     7.211
  18.540         41.67	     7.071
  18.560         40.83	     7.000
  18.580         38.33	     6.782
  18.600         34.17	     6.403
  18.620         44.17	     7.280
  18.640         41.67	     7.071
  18.660         46.67	     7.483
  18.680         33.33	     6.325
  18.700         47.50	     7.550
  18.720         40.00	     6.928
  18.740         44.17	     7.280
  18.760         50.83	     7.810
  18.780         50.83	     7.810
  18.800         51.67	     7.874
  18.820         45.83	     7.416
  18.840         54.17	     8.062
  18.860         60.83	     8.544
  18.880         57.50	     8.307
  18.900         65.83	     8.888
  18.920         85.83	    10.149
  18.940         91.67	    10.488
  18.960         97.50	    10.817
  18.980        101.67	    11.045
  19.000         80.83	     9.849
  19.020         94.17	    10.630
  19.040         74.17	     9.434
  19.060         67.50	     9.000
  19.080         69.17	     9.110
  19.100         44.17	     7.280
  19.120         55.83	     8.185
  19.140         48.33	     7.616
  19.160         40.83	     7.000
  19.180         25.00	     5.477
  19.200         40.83	     7.000
  19.220         39.17	     6.856
  19.240         38.33	     6.782
  19.260         55.00	     8.124
  19.280         41.67	     7.071
  19.300         38.33	     6.782
  19.320         45.83	     7.416
  19.340         49.17	     7.681
  19.360         42.50	     7.141
  19.380         44.17	     7.280
  19.400         46.67	     7.483
  19.420         37.50	     6.708
  19.440         54.17	     8.062
  19.460         54.17	     8.062
  19.480         60.00	     8.485
  19.500         42.50	     7.141
  19.520         46.67	     7.483
  19.540         45.00	     7.348
  19.560         48.33	     7.616
  19.580         51.67	     7.874
  19.600         43.33	     7.211
  19.620         41.67	     7.071
  19.640         47.50	     7.550
  19.660         40.00	     6.928
  19.680         44.17	     7.280
  19.700         43.33	     7.211
  19.720         35.83	     6.557
  19.740         45.83	     7.416
  19.760         53.33	     8.000
  19.780         41.67	     7.071
  19.800         50.00	     7.746
  19.820         56.67	     8.246
  19.840         65.83	     8.888
  19.860         57.50	     8.307
  19.880         77.50	     9.644
  19.900         73.33	     9.381
  19.920         86.67	    10.198
  19.940         75.00	     9.487
  19.960         95.00	    10.677
  19.980         68.33	     9.055
  20.000         91.67	    10.488
  20.020         98.33	    10.863
  20.040         92.50	    10.536
  20.060         78.33	     9.695
  20.080         90.00	    10.392
  20.100         82.50	     9.950
  20.120         73.33	     9.381
  20.140         73.33	     9.381
  20.160         58.33	     8.367
  20.180         53.33	     8.000
  20.200         48.33	     7.616
  20.220         50.83	     7.810
  20.240         53.33	     8.000
  20.260         43.33	     7.211
  20.280         37.50	     6.708
  20.300         45.00	     7.348
  20.320         42.50	     7.141
  20.340         43.33	     7.211
  20.360         47.50	     7.550
  20.380         31.67	     6.164
  20.400         38.33	     6.782
  20.420         34.17	     6.403
  20.440         44.17	     7.280
  20.460         44.17	     7.280
  20.480         41.67	     7.071
  20.500         35.83	     6.557
  20.520         38.33	     6.782
  20.540         29.17	     5.916
  20.560         44.17	     7.280
  20.580         30.83	     6.083
  20.600         45.83	     7.416
  20.620         50.00	     7.746
  20.640         37.50	     6.708
  20.660         30.00	     6.000
  20.680         33.33	     6.325
  20.700         42.50	     7.141
  20.720         40.83	     7.000
  20.740         38.33	     6.782
  20.760         48.33	     7.616
  20.780         42.50	     7.141
  20.800         53.33	     8.000
  20.820         48.33	     7.616
  20.840         58.33	     8.367
  20.860         59.17	     8.426
  20.880         58.33	     8.367
  20.900         51.67	     7.874
  20.920         58.33	     8.367
  20.940         79.17	     9.747
  20.960        113.33	    11.662
  20.980        152.50	    13.528
  21.000        150.00	    13.416
  21.020        185.00	    14.900
  21.040        255.00	    17.493
  21.060        248.33	    17.263
  21.080        241.67	    17.029
  21.100        204.17	    15.652
  21.120        165.83	    14.107
  21.140        118.33	    11.916
  21.160        125.00	    12.247
  21.180         86.67	    10.198
  21.200         66.67	     8.944
  21.220         75.00	     9.487
  21.240         73.33	     9.381
  21.260         75.00	     9.487
  21.280         68.33	     9.055
  21.300         69.17	     9.110
  21.320         55.00	     8.124
  21.340         35.00	     6.481
  21.360         50.00	     7.746
  21.380         43.33	     7.211
  21.400         42.50	     7.141
  21.420         42.50	     7.141
  21.440         42.50	     7.141
  21.460         40.00	     6.928
  21.480         32.50	     6.245
  21.500         33.33	     6.325
  21.520         34.17	     6.403
  21.540         31.67	     6.164
  21.560         33.33	     6.325
  21.580         37.50	     6.708
  21.600         22.50	     5.196
  21.620         39.17	     6.856
  21.640         48.33	     7.616
  21.660         34.17	     6.403
  21.680         25.83	     5.568
  21.700         31.67	     6.164
  21.720         56.67	     8.246
  21.740         47.50	     7.550
  21.760         38.33	     6.782
  21.780         44.17	     7.280
  21.800         45.00	     7.348
  21.820         48.33	     7.616
  21.840         50.00	     7.746
  21.860         45.83	     7.416
  21.880         34.17	     6.403
  21.900         36.67	     6.633
  21.920         33.33	     6.325
  21.940         39.17	     6.856
  21.960         38.33	     6.782
  21.980         36.67	     6.633
  22.000         45.83	     7.416
  22.020         35.83	     6.557
  22.040         35.83	     6.557
  22.060         60.00	     8.485
  22.080         63.33	     8.718
  22.100         47.50	     7.550
  22.120         79.17	     9.747
  22.140         70.00	     9.165
  22.160         99.17	    10.909
  22.180        124.17	    12.207
  22.200        161.67	    13.928
  22.220        199.17	    15.460
  22.240        193.33	    15.232
  22.260        193.33	    15.232
  22.280        199.17	    15.460
  22.300        151.67	    13.491
  22.320        128.33	    12.410
  22.340        112.50	    11.619
  22.360         89.17	    10.344
  22.380         70.83	     9.220
  22.400         79.17	     9.747
  22.420         59.17	     8.426
  22.440         54.17	     8.062
  22.460         56.67	     8.246
  22.480         52.50	     7.937
  22.500         55.83	     8.185
  22.520         49.17	     7.681
  22.540         42.50	     7.141
  22.560         51.67	     7.874
  22.580         42.50	     7.141
  22.600         40.00	     6.928
  22.620         41.67	     7.071
  22.640         54.17	     8.062
  22.660         50.00	     7.746
  22.680         51.67	     7.874
  22.700         40.83	     7.000
  22.720         39.17	     6.856
  22.740         34.17	     6.403
  22.760         41.67	     7.071
  22.780         45.83	     7.416
  22.800         44.17	     7.280
  22.820         46.67	     7.483
  22.840         44.17	     7.280
  22.860         31.67	     6.164
  22.880         32.50	     6.245
  22.900         38.33	     6.782
  22.920         43.33	     7.211
  22.940         46.67	     7.483
  22.960         46.67	     7.483
  22.980         53.33	     8.000
  23.000         54.17	     8.062
  23.020         59.17	     8.426
  23.040         55.83	     8.185
  23.060         67.50	     9.000
  23.080         92.50	    10.536
  23.100         81.67	     9.899
  23.120         79.17	     9.747
  23.140         93.33	    10.583
  23.160         90.83	    10.440
  23.180        130.00	    12.490
  23.200        132.50	    12.610
  23.220        110.00	    11.489
  23.240         89.17	    10.344
  23.260        103.33	    11.136
  23.280         83.33	    10.000
  23.300         64.17	     8.775
  23.320         55.83	     8.185
  23.340         60.83	     8.544
  23.360         54.17	     8.062
  23.380         53.33	     8.000
  23.400         39.17	     6.856
  23.420         40.83	     7.000
  23.440         56.67	     8.246
  23.460         47.50	     7.550
  23.480         42.50	     7.141
  23.500         56.67	     8.246
  23.520         45.83	     7.416
  23.540         40.00	     6.928
  23.560         58.33	     8.367
  23.580         42.50	     7.141
  23.600         50.83	     7.810
  23.620         61.67	     8.602
  23.640         72.50	     9.327
  23.660         81.67	     9.899
  23.680        105.00	    11.225
  23.700         86.67	    10.198
  23.720        117.50	    11.874
  23.740        133.33	    12.649
  23.760        148.33	    13.342
  23.780        128.33	    12.410
  23.800        127.50	    12.369
  23.820        125.83	    12.288
  23.840         94.17	    10.630
  23.860         92.50	    10.536
  23.880         75.83	     9.539
  23.900         65.83	     8.888
  23.920         48.33	     7.616
  23.940         67.50	     9.000
  23.960         56.67	     8.246
  23.980         60.83	     8.544
  24.000         60.83	     8.544
  24.020         80.00	     9.798
  24.040         84.17	    10.050
  24.060         62.50	     8.660
  24.080         60.00	     8.485
  24.100         60.83	     8.544
  24.120         53.33	     8.000
  24.140         64.17	     8.775
  24.160         64.17	     8.775
  24.180         56.67	     8.246
  24.200         71.67	     9.274
  24.220         70.83	     9.220
  24.240         55.00	     8.124
  24.260         65.00	     8.832
  24.280         80.00	     9.798
  24.300         82.50	     9.950
  24.320         85.00	    10.100
  24.340        100.83	    11.000
  24.360         92.50	    10.536
  24.380        109.17	    11.446
  24.400        109.17	    11.446
  24.420        110.83	    11.533
  24.440        116.67	    11.832
  24.460        114.17	    11.705
  24.480        115.00	    11.747
  24.500        131.67	    12.570
  24.520        134.17	    12.689
  24.540        120.00	    12.000
  24.560         89.17	    10.344
  24.580         98.33	    10.863
  24.600         97.50	    10.817
  24.620         63.33	     8.718
  24.640         77.50	     9.644
  24.660         94.17	    10.630
  24.680         84.17	    10.050
  24.700        105.00	    11.225
  24.720        128.33	    12.410
  24.740        136.67	    12.806
  24.760        152.50	    13.528
  24.780        168.33	    14.213
  24.800        164.17	    14.036
  24.820        165.00	    14.071
  24.840        142.50	    13.077
  24.860        141.67	    13.038
  24.880        154.17	    13.601
  24.900        147.50	    13.304
  24.920        137.50	    12.845
  24.940         90.00	    10.392
  24.960         77.50	     9.644
  24.980         65.83	     8.888
  25.000         88.33	    10.296
  25.020         64.17	     8.775
  25.040         74.17	     9.434
  25.060         73.33	     9.381
  25.080         73.33	     9.381
  25.100         61.67	     8.602
  25.120         73.33	     9.381
  25.140         77.50	     9.644
  25.160         94.17	    10.630
  25.180         67.50	     9.000
  25.200         60.00	     8.485
  25.220         90.00	    10.392
  25.240        106.67	    11.314
  25.260        120.83	    12.042
  25.280        140.00	    12.961
  25.300        155.83	    13.675
  25.320        170.83	    14.318
  25.340        177.50	    14.595
  25.360        171.67	    14.353
  25.380        161.67	    13.928
  25.400        140.00	    12.961
  25.420        136.67	    12.806
  25.440        114.17	    11.705
  25.460        100.00	    10.954
  25.480         77.50	     9.644
  25.500         96.67	    10.770
  25.520         82.50	     9.950
  25.540        104.17	    11.180
  25.560         99.17	    10.909
  25.580        103.33	    11.136
  25.600        131.67	    12.570
  25.620        127.50	    12.369
  25.640        127.50	    12.369
  25.660        148.33	    13.342
  25.680        146.67	    13.266
  25.700        136.67	    12.806
  25.720        150.83	    13.454
  25.740        140.00	    12.961
  25.760        125.00	    12.247
  25.780        130.83	    12.530
  25.800        155.00	    13.638
  25.820        160.83	    13.892
  25.840        130.83	    12.530
  25.860        120.00	    12.000
  25.880        110.00	    11.489
  25.900         92.50	    10.536
  25.920         71.67	     9.274
  25.940         72.50	     9.327
  25.960         66.67	     8.944
  25.980         53.33	     8.000
  26.000         45.83	     7.416
  26.020         51.67	     7.874
  26.040         43.33	     7.211
  26.060         65.00	     8.832
  26.080         59.17	     8.426
  26.100         55.83	     8.185
  26.120         54.17	     8.062
  26.140         53.33	     8.000
  26.160         47.50	     7.550
  26.180         40.00	     6.928
  26.200         45.83	     7.416
  26.220         45.00	     7.348
  26.240         45.83	     7.416
  26.260         53.33	     8.000
  26.280         60.00	     8.485
  26.300         82.50	     9.950
  26.320         58.33	     8.367
  26.340         64.17	     8.775
  26.360         60.00	     8.485
  26.380         80.83	     9.849
  26.400         73.33	     9.381
  26.420         77.50	     9.644
  26.440         71.67	     9.274
  26.460         88.33	    10.296
  26.480         85.83	    10.149
  26.500         90.83	    10.440
  26.520         95.83	    10.724
  26.540        114.17	    11.705
  26.560        129.17	    12.450
  26.580        155.83	    13.675
  26.600        146.67	    13.266
  26.620        169.17	    14.248
  26.640        172.50	    14.387
  26.660        186.67	    14.967
  26.680        209.17	    15.843
  26.700        266.67	    17.889
  26.720        355.00	    20.640
  26.740        443.33	    23.065
  26.760        641.67	    27.749
  26.780        993.33	    34.525
  26.800       1305.83	    39.585
  26.820       1267.50	    39.000
  26.840       1130.83	    36.837
  26.860       1196.67	    37.895
  26.880       1142.50	    37.027
  26.900        805.00	    31.081
  26.920        615.00	    27.166
  26.940        510.00	    24.739
  26.960        455.00	    23.367
  26.980        374.17	    21.190
  27.000        340.00	    20.199
  27.020        341.67	    20.248
  27.040        363.33	    20.881
  27.060        278.33	    18.276
  27.080        295.83	    18.841
  27.100        281.67	    18.385
  27.120        254.17	    17.464
  27.140        198.33	    15.427
  27.160        198.33	    15.427
  27.180        153.33	    13.565
  27.200        126.67	    12.329
  27.220        136.67	    12.806
  27.240        149.17	    13.379
  27.260        144.17	    13.153
  27.280        147.50	    13.304
  27.300        143.33	    13.115
  27.320        131.67	    12.570
  27.340        119.17	    11.958
  27.360        113.33	    11.662
  27.380        105.83	    11.269
  27.400         90.00	    10.392
  27.420        109.17	    11.446
  27.440         83.33	    10.000
  27.460         87.50	    10.247
  27.480         80.83	     9.849
  27.500         85.00	    10.100
  27.520         91.67	    10.488
  27.540         87.50	    10.247
  27.560         88.33	    10.296
  27.580         88.33	    10.296
  27.600         95.00	    10.677
  27.620         99.17	    10.909
  27.640        110.83	    11.533
  27.660        125.83	    12.288
  27.680        151.67	    13.491
  27.700        147.50	    13.304
  27.720        154.17	    13.601
  27.740        142.50	    13.077
  27.760        145.83	    13.229
  27.780        123.33	    12.166
  27.800        123.33	    12.166
  27.820        106.67	    11.314
  27.840        103.33	    11.136
  27.860        125.00	    12.247
  27.880        140.83	    13.000
  27.900        156.67	    13.711
  27.920        214.17	    16.031
  27.940        216.67	    16.125
  27.960        255.83	    17.521
  27.980        257.50	    17.578
  28.000        298.33	    18.921
  28.020        305.83	    19.157
  28.040        321.67	    19.647
  28.060        430.00	    22.716
  28.080        481.67	    24.042
  28.100        459.17	    23.473
  28.120        425.00	    22.583
  28.140        481.67	    24.042
  28.160        370.83	    21.095
  28.180        318.33	    19.545
  28.200        277.50	    18.248
  28.220        259.17	    17.635
  28.240        234.17	    16.763
  28.260        162.50	    13.964
  28.280        179.17	    14.663
  28.300        170.00	    14.283
  28.320        130.00	    12.490
  28.340        135.83	    12.767
  28.360        160.83	    13.892
  28.380        156.67	    13.711
  28.400        201.67	    15.556
  28.420        263.33	    17.776
  28.440        325.83	    19.774
  28.460        275.83	    18.193
  28.480        229.17	    16.583
  28.500        272.50	    18.083
  28.520        320.00	    19.596
  28.540        274.17	    18.138
  28.560        160.83	    13.892
  28.580        169.17	    14.248
  28.600        171.67	    14.353
  28.620        111.67	    11.576
  28.640         82.50	     9.950
  28.660         72.50	     9.327
  28.680         88.33	    10.296
  28.700         89.17	    10.344
  28.720         80.00	     9.798
  28.740         74.17	     9.434
  28.760        103.33	    11.136
  28.780        115.83	    11.790
  28.800        104.17	    11.180
  28.820        106.67	    11.314
  28.840        109.17	    11.446
  28.860         90.83	    10.440
  28.880         84.17	    10.050
  28.900         91.67	    10.488
  28.920         83.33	    10.000
  28.940         78.33	     9.695
  28.960         56.67	     8.246
  28.980         65.00	     8.832
  29.000         72.50	     9.327
  29.020         55.00	     8.124
  29.040         50.00	     7.746
  29.060         55.00	     8.124
  29.080         49.17	     7.681
  29.100         60.00	     8.485
  29.120         51.67	     7.874
  29.140         45.00	     7.348
  29.160         49.17	     7.681
  29.180         42.50	     7.141
  29.200         45.00	     7.348
  29.220         41.67	     7.071
  29.240         39.17	     6.856
  29.260         50.83	     7.810
  29.280         35.00	     6.481
  29.300         30.83	     6.083
  29.320         40.83	     7.000
  29.340         41.67	     7.071
  29.360         36.67	     6.633
  29.380         30.83	     6.083
  29.400         36.67	     6.633
  29.420         35.83	     6.557
  29.440         33.33	     6.325
  29.460         45.00	     7.348
  29.480         30.83	     6.083
  29.500         25.00	     5.477
  29.520         30.83	     6.083
  29.540         26.67	     5.657
  29.560         30.83	     6.083
  29.580         39.17	     6.856
  29.600         30.83	     6.083
  29.620         34.17	     6.403
  29.640         43.33	     7.211
  29.660         32.50	     6.245
  29.680         40.00	     6.928
  29.700         35.83	     6.557
  29.720         49.17	     7.681
  29.740         47.50	     7.550
  29.760         43.33	     7.211
  29.780         47.50	     7.550
  29.800         41.67	     7.071
  29.820         42.50	     7.141
  29.840         47.50	     7.550
  29.860         52.50	     7.937
  29.880         59.17	     8.426
  29.900         54.17	     8.062
  29.920         70.83	     9.220
  29.940         93.33	    10.583
  29.960        110.83	    11.533
  29.980        133.33	    12.649
  30.000        165.83	    14.107
  30.020        133.33	    12.649
  30.040        145.83	    13.229
  30.060        159.17	    13.820
  30.080        169.17	    14.248
  30.100        148.33	    13.342
  30.120        163.33	    14.000
  30.140        135.83	    12.767
  30.160        140.83	    13.000
  30.180        119.17	    11.958
  30.200        100.00	    10.954
  30.220         75.00	     9.487
  30.240         87.50	    10.247
  30.260         78.33	     9.695
  30.280         88.33	    10.296
  30.300        114.17	    11.705
  30.320         95.83	    10.724
  30.340        110.00	    11.489
  30.360         96.67	    10.770
  30.380        100.00	    10.954
  30.400         96.67	    10.770
  30.420         82.50	     9.950
  30.440         88.33	    10.296
  30.460         86.67	    10.198
  30.480         84.17	    10.050
  30.500         96.67	    10.770
  30.520        103.33	    11.136
  30.540        101.67	    11.045
  30.560         96.67	    10.770
  30.580         91.67	    10.488
  30.600         99.17	    10.909
  30.620        100.83	    11.000
  30.640         98.33	    10.863
  30.660        117.50	    11.874
  30.680        110.83	    11.533
  30.700        101.67	    11.045
  30.720         80.83	     9.849
  30.740         91.67	    10.488
  30.760         97.50	    10.817
  30.780         75.00	     9.487
  30.800         76.67	     9.592
  30.820         70.83	     9.220
  30.840         70.83	     9.220
  30.860         47.50	     7.550
  30.880         70.00	     9.165
  30.900         40.83	     7.000
  30.920         65.83	     8.888
  30.940         79.17	     9.747
  30.960         75.83	     9.539
  30.980         85.00	    10.100
  31.000         90.83	    10.440
  31.020         95.83	    10.724
  31.040        123.33	    12.166
  31.060        121.67	    12.083
  31.080        108.33	    11.402
  31.100        100.83	    11.000
  31.120         94.17	    10.630
  31.140         91.67	    10.488
  31.160         71.67	     9.274
  31.180         60.00	     8.485
  31.200         49.17	     7.681
  31.220         58.33	     8.367
  31.240         75.83	     9.539
  31.260         59.17	     8.426
  31.280         63.33	     8.718
  31.300         65.83	     8.888
  31.320         76.67	     9.592
  31.340         89.17	    10.344
  31.360         80.83	     9.849
  31.380        129.17	    12.450
  31.400         97.50	    10.817
  31.420        116.67	    11.832
  31.440        135.00	    12.728
  31.460        149.17	    13.379
  31.480        126.67	    12.329
  31.500        137.50	    12.845
  31.520        100.00	    10.954
  31.540         97.50	    10.817
  31.560         82.50	     9.950
  31.580         72.50	     9.327
  31.600         62.50	     8.660
  31.620         69.17	     9.110
  31.640         62.50	     8.660
  31.660         54.17	     8.062
  31.680         62.50	     8.660
  31.700         56.67	     8.246
  31.720         74.17	     9.434
  31.740         69.17	     9.110
  31.760         73.33	     9.381
  31.780         69.17	     9.110
  31.800         45.83	     7.416
  31.820         76.67	     9.592
  31.840         64.17	     8.775
  31.860         57.50	     8.307
  31.880         58.33	     8.367
  31.900         60.00	     8.485
  31.920         63.33	     8.718
  31.940         50.00	     7.746
  31.960         41.67	     7.071
  31.980         54.17	     8.062
  32.000         45.00	     7.348
  32.020         51.67	     7.874
  32.040         53.33	     8.000
  32.060         48.33	     7.616
  32.080         52.50	     7.937
  32.100         55.83	     8.185
  32.120         40.83	     7.000
  32.140         65.83	     8.888
  32.160         71.67	     9.274
  32.180         66.67	     8.944
  32.200         72.50	     9.327
  32.220         73.33	     9.381
  32.240         66.67	     8.944
  32.260         67.50	     9.000
  32.280         80.83	     9.849
  32.300         77.50	     9.644
  32.320         66.67	     8.944
  32.340         80.00	     9.798
  32.360         81.67	     9.899
  32.380         68.33	     9.055
  32.400         55.00	     8.124
  32.420         57.50	     8.307
  32.440         45.00	     7.348
  32.460         53.33	     8.000
  32.480         46.67	     7.483
  32.500         45.83	     7.416
  32.520         44.17	     7.280
  32.540         38.33	     6.782
  32.560         42.50	     7.141
  32.580         35.00	     6.481
  32.600         40.83	     7.000
  32.620         35.83	     6.557
  32.640         47.50	     7.550
  32.660         42.50	     7.141
  32.680         34.17	     6.403
  32.700         29.17	     5.916
  32.720         40.83	     7.000
  32.740         38.33	     6.782
  32.760         29.17	     5.916
  32.780         31.67	     6.164
  32.800         33.33	     6.325
  32.820         32.50	     6.245
  32.840         31.67	     6.164
  32.860         38.33	     6.782
  32.880         35.00	     6.481
  32.900         32.50	     6.245
  32.920         40.83	     7.000
  32.940         37.50	     6.708
  32.960         37.50	     6.708
  32.980         28.33	     5.831
  33.000         35.00	     6.481
  33.020         30.83	     6.083
  33.040         29.17	     5.916
  33.060         38.33	     6.782
  33.080         42.50	     7.141
  33.100         40.00	     6.928
  33.120         56.67	     8.246
  33.140         64.17	     8.775
  33.160         50.83	     7.810
  33.180         51.67	     7.874
  33.200         78.33	     9.695
  33.220         60.83	     8.544
  33.240         75.83	     9.539
  33.260         77.50	     9.644
  33.280         78.33	     9.695
  33.300         64.17	     8.775
  33.320         61.67	     8.602
  33.340         62.50	     8.660
  33.360         59.17	     8.426
  33.380         44.17	     7.280
  33.400         45.83	     7.416
  33.420         35.00	     6.481
  33.440         37.50	     6.708
  33.460         39.17	     6.856
  33.480         36.67	     6.633
  33.500         40.83	     7.000
  33.520         50.00	     7.746
  33.540         45.00	     7.348
  33.560         45.83	     7.416
  33.580         38.33	     6.782
  33.600         38.33	     6.782
  33.620         31.67	     6.164
  33.640         40.83	     7.000
  33.660         29.17	     5.916
  33.680         37.50	     6.708
  33.700         31.67	     6.164
  33.720         45.83	     7.416
  33.740         40.00	     6.928
  33.760         32.50	     6.245
  33.780         29.17	     5.916
  33.800         46.67	     7.483
  33.820         26.67	     5.657
  33.840         30.83	     6.083
  33.860         31.67	     6.164
  33.880         26.67	     5.657
  33.900         35.00	     6.481
  33.920         25.00	     5.477
  33.940         28.33	     5.831
  33.960         38.33	     6.782
  33.980         35.83	     6.557
  34.000         41.67	     7.071
  34.020         44.17	     7.280
  34.040         50.00	     7.746
  34.060         69.17	     9.110
  34.080         67.50	     9.000
  34.100         63.33	     8.718
  34.120         57.50	     8.307
  34.140         45.83	     7.416
  34.160         71.67	     9.274
  34.180         48.33	     7.616
  34.200         56.67	     8.246
  34.220         56.67	     8.246
  34.240         58.33	     8.367
  34.260         70.00	     9.165
  34.280         57.50	     8.307
  34.300         56.67	     8.246
  34.320         47.50	     7.550
  34.340         50.00	     7.746
  34.360         49.17	     7.681
  34.380         51.67	     7.874
  34.400         35.00	     6.481
  34.420         61.67	     8.602
  34.440         52.50	     7.937
  34.460         38.33	     6.782
  34.480         55.83	     8.185
  34.500         60.83	     8.544
  34.520         78.33	     9.695
  34.540         76.67	     9.592
  34.560         62.50	     8.660
  34.580         79.17	     9.747
  34.600         81.67	     9.899
  34.620         78.33	     9.695
  34.640         98.33	    10.863
  34.660         88.33	    10.296
  34.680         95.83	    10.724
  34.700        101.67	    11.045
  34.720        114.17	    11.705
  34.740        115.83	    11.790
  34.760        120.00	    12.000
  34.780        116.67	    11.832
  34.800         88.33	    10.296
  34.820        115.00	    11.747
  34.840        114.17	    11.705
  34.860         90.00	    10.392
  34.880         75.00	     9.487
  34.900         80.00	     9.798
  34.920         78.33	     9.695
  34.940         85.83	    10.149
  34.960         77.50	     9.644
  34.980         85.83	    10.149
  35.000        103.33	    11.136
  35.020         98.33	    10.863
  35.040        106.67	    11.314
  35.060        123.33	    12.166
  35.080        109.17	    11.446
  35.100        131.67	    12.570
  35.120        129.17	    12.450
  35.140        130.83	    12.530
  35.160        145.83	    13.229
  35.180        125.83	    12.288
  35.200        145.00	    13.191
  35.220        134.17	    12.689
  35.240        116.67	    11.832
  35.260        120.83	    12.042
  35.280        110.00	    11.489
  35.300        116.67	    11.832
  35.320         93.33	    10.583
  35.340        128.33	    12.410
  35.360         86.67	    10.198
  35.380         89.17	    10.344
  35.400         70.83	     9.220
  35.420         75.83	     9.539
  35.440         82.50	     9.950
  35.460         73.33	     9.381
  35.480         80.83	     9.849
  35.500         75.00	     9.487
  35.520         66.67	     8.944
  35.540         80.00	     9.798
  35.560         68.33	     9.055
  35.580         87.50	    10.247
  35.600         88.33	    10.296
  35.620         83.33	    10.000
  35.640         90.00	    10.392
  35.660         94.17	    10.630
  35.680        110.83	    11.533
  35.700         93.33	    10.583
  35.720        108.33	    11.402
  35.740        102.50	    11.091
  35.760         97.50	    10.817
  35.780         95.83	    10.724
  35.800         83.33	    10.000
  35.820         78.33	     9.695
  35.840         76.67	     9.592
  35.860         74.17	     9.434
  35.880         73.33	     9.381
  35.900         60.83	     8.544
  35.920         48.33	     7.616
  35.940         60.83	     8.544
  35.960         50.83	     7.810
  35.980         56.67	     8.246
  36.000         50.00	     7.746
  36.020         55.00	     8.124
  36.040         54.17	     8.062
  36.060         45.83	     7.416
  36.080         55.00	     8.124
  36.100         46.67	     7.483
  36.120         55.83	     8.185
  36.140         46.67	     7.483
  36.160         57.50	     8.307
  36.180         60.83	     8.544
  36.200         48.33	     7.616
  36.220         46.67	     7.483
  36.240         42.50	     7.141
  36.260         65.00	     8.832
  36.280         64.17	     8.775
  36.300         50.00	     7.746
  36.320         40.00	     6.928
  36.340         47.50	     7.550
  36.360         45.83	     7.416
  36.380         39.17	     6.856
  36.400         47.50	     7.550
  36.420         35.83	     6.557
  36.440         50.00	     7.746
  36.460         46.67	     7.483
  36.480         42.50	     7.141
  36.500         44.17	     7.280
  36.520         49.17	     7.681
  36.540         41.67	     7.071
  36.560         49.17	     7.681
  36.580         50.83	     7.810
  36.600         52.50	     7.937
  36.620         62.50	     8.660
  36.640         65.83	     8.888
  36.660         94.17	    10.630
  36.680         90.83	    10.440
  36.700        121.67	    12.083
  36.720        151.67	    13.491
  36.740        133.33	    12.649
  36.760        113.33	    11.662
  36.780        123.33	    12.166
  36.800        123.33	    12.166
  36.820        130.83	    12.530
  36.840        110.83	    11.533
  36.860         98.33	    10.863
  36.880        130.00	    12.490
  36.900        114.17	    11.705
  36.920         75.83	     9.539
  36.940         80.83	     9.849
  36.960        101.67	    11.045
  36.980         86.67	    10.198
  37.000         70.83	     9.220
  37.020         52.50	     7.937
  37.040         65.83	     8.888
  37.060         72.50	     9.327
  37.080         53.33	     8.000
  37.100         57.50	     8.307
  37.120         58.33	     8.367
  37.140         61.67	     8.602
  37.160         60.00	     8.485
  37.180         49.17	     7.681
  37.200         49.17	     7.681
  37.220         45.83	     7.416
  37.240         41.67	     7.071
  37.260         49.17	     7.681
  37.280         59.17	     8.426
  37.300         40.00	     6.928
  37.320         42.50	     7.141
  37.340         54.17	     8.062
  37.360         44.17	     7.280
  37.380         52.50	     7.937
  37.400         44.17	     7.280
  37.420         45.83	     7.416
  37.440         49.17	     7.681
  37.460         54.17	     8.062
  37.480         52.50	     7.937
  37.500         55.00	     8.124
  37.520         43.33	     7.211
  37.540         65.83	     8.888
  37.560         71.67	     9.274
  37.580         65.00	     8.832
  37.600         90.00	    10.392
  37.620         75.83	     9.539
  37.640         64.17	     8.775
  37.660         75.83	     9.539
  37.680         78.33	     9.695
  37.700         67.50	     9.000
  37.720         79.17	     9.747
  37.740         82.50	     9.950
  37.760         75.00	     9.487
  37.780         74.17	     9.434
  37.800         94.17	    10.630
  37.820        103.33	    11.136
  37.840         97.50	    10.817
  37.860         85.00	    10.100
  37.880         96.67	    10.770
  37.900        116.67	    11.832
  37.920        106.67	    11.314
  37.940         72.50	     9.327
  37.960         83.33	    10.000
  37.980         66.67	     8.944
  38.000         72.50	     9.327
  38.020         54.17	     8.062
  38.040         51.67	     7.874
  38.060         55.00	     8.124
  38.080         50.83	     7.810
  38.100         31.67	     6.164
  38.120         36.67	     6.633
  38.140         34.17	     6.403
  38.160         33.33	     6.325
  38.180         25.83	     5.568
  38.200         28.33	     5.831
  38.220         35.00	     6.481
  38.240         25.83	     5.568
  38.260         25.00	     5.477
  38.280         22.50	     5.196
  38.300         30.83	     6.083
  38.320         21.67	     5.099
  38.340         24.17	     5.385
  38.360         33.33	     6.325
  38.380         36.67	     6.633
  38.400         25.00	     5.477
  38.420         35.00	     6.481
  38.440         30.00	     6.000
  38.460         31.67	     6.164
  38.480         25.00	     5.477
  38.500         23.33	     5.292
  38.520         27.50	     5.745
  38.540         22.50	     5.196
  38.560         30.00	     6.000
  38.580         37.50	     6.708
  38.600         41.67	     7.071
  38.620         45.00	     7.348
  38.640         35.83	     6.557
  38.660         35.00	     6.481
  38.680         35.00	     6.481
  38.700         42.50	     7.141
  38.720         35.83	     6.557
  38.740         35.00	     6.481
  38.760         46.67	     7.483
  38.780         48.33	     7.616
  38.800         60.83	     8.544
  38.820         37.50	     6.708
  38.840         47.50	     7.550
  38.860         38.33	     6.782
  38.880         45.00	     7.348
  38.900         52.50	     7.937
  38.920         58.33	     8.367
  38.940         44.17	     7.280
  38.960         50.00	     7.746
  38.980         46.67	     7.483
  39.000         59.17	     8.426
  39.020         80.00	     9.798
  39.040        116.67	    11.832
  39.060         78.33	     9.695
  39.080         65.00	     8.832
  39.100         66.67	     8.944
  39.120         54.17	     8.062
  39.140         80.83	     9.849
  39.160         63.33	     8.718
  39.180         46.67	     7.483
  39.200         41.67	     7.071
  39.220         36.67	     6.633
  39.240         43.33	     7.211
  39.260         32.50	     6.245
  39.280         32.50	     6.245
  39.300         39.17	     6.856
  39.320         35.83	     6.557
  39.340         35.83	     6.557
  39.360         35.83	     6.557
  39.380         37.50	     6.708
  39.400         39.17	     6.856
  39.420         30.00	     6.000
  39.440         43.33	     7.211
  39.460         37.50	     6.708
  39.480         34.17	     6.403
  39.500         29.17	     5.916
  39.520         34.17	     6.403
  39.540         51.67	     7.874
  39.560         44.17	     7.280
  39.580         82.50	     9.950
  39.600         89.17	    10.344
  39.620         95.83	    10.724
  39.640        121.67	    12.083
  39.660        110.00	    11.489
  39.680        116.67	    11.832
  39.700         95.83	    10.724
  39.720         88.33	    10.296
  39.740         88.33	    10.296
  39.760         89.17	    10.344
  39.780         68.33	     9.055
  39.800         57.50	     8.307
  39.820         50.00	     7.746
  39.840         65.83	     8.888
  39.860         61.67	     8.602
  39.880         59.17	     8.426
  39.900         51.67	     7.874
  39.920         50.83	     7.810
  39.940         61.67	     8.602
  39.960         47.50	     7.550
  39.980         40.83	     7.000
  40.000         45.00	     7.348
  40.020         39.17	     6.856
  40.040         56.67	     8.246
  40.060         42.50	     7.141
  40.080         30.83	     6.083
  40.100         41.67	     7.071
  40.120         40.83	     7.000
  40.140         40.00	     6.928
  40.160         33.33	     6.325
  40.180         36.67	     6.633
  40.200         47.50	     7.550
  40.220         45.00	     7.348
  40.240         41.67	     7.071
  40.260         47.50	     7.550
  40.280         32.50	     6.245
  40.300         46.67	     7.483
  40.320         38.33	     6.782
  40.340         40.00	     6.928
  40.360         45.83	     7.416
  40.380         43.33	     7.211
  40.400         70.00	     9.165
  40.420         88.33	    10.296
  40.440         98.33	    10.863
  40.460         99.17	    10.909
  40.480         95.00	    10.677
  40.500         81.67	     9.899
  40.520         75.00	     9.487
  40.540         75.83	     9.539
  40.560         66.67	     8.944
  40.580         58.33	     8.367
  40.600         45.83	     7.416
  40.620         55.00	     8.124
  40.640         51.67	     7.874
  40.660         44.17	     7.280
  40.680         42.50	     7.141
  40.700         39.17	     6.856
  40.720         40.00	     6.928
  40.740         32.50	     6.245
  40.760         35.00	     6.481
  40.780         44.17	     7.280
  40.800         48.33	     7.616
  40.820         40.00	     6.928
  40.840         62.50	     8.660
  40.860         59.17	     8.426
  40.880         44.17	     7.280
  40.900         33.33	     6.325
  40.920         39.17	     6.856
  40.940         50.83	     7.810
  40.960         31.67	     6.164
  40.980         55.00	     8.124
  41.000         42.50	     7.141
  41.020         35.83	     6.557
  41.040         31.67	     6.164
  41.060         40.83	     7.000
  41.080         35.00	     6.481
  41.100         40.83	     7.000
  41.120         35.83	     6.557
  41.140         27.50	     5.745
  41.160         40.83	     7.000
  41.180         43.33	     7.211
  41.200         36.67	     6.633
  41.220         32.50	     6.245
  41.240         34.17	     6.403
  41.260         36.67	     6.633
  41.280         35.00	     6.481
  41.300         35.00	     6.481
  41.320         36.67	     6.633
  41.340         40.83	     7.000
  41.360         30.00	     6.000
  41.380         50.83	     7.810
  41.400         50.83	     7.810
  41.420         43.33	     7.211
  41.440         50.00	     7.746
  41.460         56.67	     8.246
  41.480         58.33	     8.367
  41.500         39.17	     6.856
  41.520         42.50	     7.141
  41.540         50.00	     7.746
  41.560         51.67	     7.874
  41.580         46.67	     7.483
  41.600         46.67	     7.483
  41.620         50.83	     7.810
  41.640         39.17	     6.856
  41.660         33.33	     6.325
  41.680         33.33	     6.325
  41.700         46.67	     7.483
  41.720         31.67	     6.164
  41.740         48.33	     7.616
  41.760         40.83	     7.000
  41.780         43.33	     7.211
  41.800         52.50	     7.937
  41.820         60.83	     8.544
  41.840         59.17	     8.426
  41.860         59.17	     8.426
  41.880         58.33	     8.367
  41.900         80.83	     9.849
  41.920         88.33	    10.296
  41.940        100.00	    10.954
  41.960        100.83	    11.000
  41.980         71.67	     9.274
  42.000         72.50	     9.327
  42.020         65.83	     8.888
  42.040         76.67	     9.592
  42.060         79.17	     9.747
  42.080         64.17	     8.775
  42.100         72.50	     9.327
  42.120         65.00	     8.832
  42.140         66.67	     8.944
  42.160         57.50	     8.307
  42.180         58.33	     8.367
  42.200         58.33	     8.367
  42.220         53.33	     8.000
  42.240         56.67	     8.246
  42.260         53.33	     8.000
  42.280         39.17	     6.856
  42.300         41.67	     7.071
  42.320         50.00	     7.746
  42.340         48.33	     7.616
  42.360         36.67	     6.633
  42.380         59.17	     8.426
  42.400         41.67	     7.071
  42.420         55.00	     8.124
  42.440         57.50	     8.307
  42.460         63.33	     8.718
  42.480         62.50	     8.660
  42.500         79.17	     9.747
  42.520         90.83	    10.440
  42.540         88.33	    10.296
  42.560        110.00	    11.489
  42.580        125.83	    12.288
  42.600        122.50	    12.124
  42.620        148.33	    13.342
  42.640        173.33	    14.422
  42.660        154.17	    13.601
  42.680        125.83	    12.288
  42.700        108.33	    11.402
  42.720        109.17	    11.446
  42.740        103.33	    11.136
  42.760        112.50	    11.619
  42.780         97.50	    10.817
  42.800         65.83	     8.888
  42.820         50.00	     7.746
  42.840         64.17	     8.775
  42.860         45.83	     7.416
  42.880         45.83	     7.416
  42.900         43.33	     7.211
  42.920         47.50	     7.550
  42.940         54.17	     8.062
  42.960         41.67	     7.071
  42.980         50.00	     7.746
  43.000         39.17	     6.856
  43.020         45.00	     7.348
  43.040         47.50	     7.550
  43.060         40.83	     7.000
  43.080         41.67	     7.071
  43.100         41.67	     7.071
  43.120         39.17	     6.856
  43.140         37.50	     6.708
  43.160         30.83	     6.083
  43.180         37.50	     6.708
  43.200         36.67	     6.633
  43.220         29.17	     5.916
  43.240         36.67	     6.633
  43.260         34.17	     6.403
  43.280         35.00	     6.481
  43.300         36.67	     6.633
  43.320         30.00	     6.000
  43.340         21.67	     5.099
  43.360         26.67	     5.657
  43.380         24.17	     5.385
  43.400         30.00	     6.000
  43.420         28.33	     5.831
  43.440         27.50	     5.745
  43.460         40.00	     6.928
  43.480         37.50	     6.708
  43.500         35.83	     6.557
  43.520         20.00	     4.899
  43.540         35.00	     6.481
  43.560         23.33	     5.292
  43.580         34.17	     6.403
  43.600         27.50	     5.745
  43.620         36.67	     6.633
  43.640         35.00	     6.481
  43.660         44.17	     7.280
  43.680         29.17	     5.916
  43.700         41.67	     7.071
  43.720         37.50	     6.708
  43.740         30.83	     6.083
  43.760         32.50	     6.245
  43.780         36.67	     6.633
  43.800         37.50	     6.708
  43.820         38.33	     6.782
  43.840         30.83	     6.083
  43.860         29.17	     5.916
  43.880         29.17	     5.916
  43.900         36.67	     6.633
  43.920         39.17	     6.856
  43.940         36.67	     6.633
  43.960         31.67	     6.164
  43.980         31.67	     6.164
  44.000         45.00	     7.348
  44.020         43.33	     7.211
  44.040         40.83	     7.000
  44.060         35.00	     6.481
  44.080         44.17	     7.280
  44.100         41.67	     7.071
  44.120         41.67	     7.071
  44.140         28.33	     5.831
  44.160         35.00	     6.481
  44.180         30.83	     6.083
  44.200         40.00	     6.928
  44.220         30.00	     6.000
  44.240         44.17	     7.280
  44.260         39.17	     6.856
  44.280         50.83	     7.810
  44.300         31.67	     6.164
  44.320         40.83	     7.000
  44.340         37.50	     6.708
  44.360         35.00	     6.481
  44.380         37.50	     6.708
  44.400         35.83	     6.557
  44.420         36.67	     6.633
  44.440         36.67	     6.633
  44.460         40.00	     6.928
  44.480         34.17	     6.403
  44.500         41.67	     7.071
  44.520         33.33	     6.325
  44.540         35.83	     6.557
  44.560         28.33	     5.831
  44.580         27.50	     5.745
  44.600         37.50	     6.708
  44.620         25.00	     5.477
  44.640         26.67	     5.657
  44.660         27.50	     5.745
  44.680         33.33	     6.325
  44.700         34.17	     6.403
  44.720         34.17	     6.403
  44.740         36.67	     6.633
  44.760         29.17	     5.916
  44.780         43.33	     7.211
  44.800         35.00	     6.481
  44.820         39.17	     6.856
  44.840         34.17	     6.403
  44.860         27.50	     5.745
  44.880         37.50	     6.708
  44.900         40.00	     6.928
  44.920         31.67	     6.164
  44.940         36.67	     6.633
  44.960         39.17	     6.856
  44.980         44.17	     7.280
  45.000         40.00	     6.928
  45.020         45.83	     7.416
  45.040         35.83	     6.557
  45.060         69.17	     9.110
  45.080         52.50	     7.937
  45.100         55.83	     8.185
  45.120         51.67	     7.874
  45.140         63.33	     8.718
  45.160         58.33	     8.367
  45.180         77.50	     9.644
  45.200         77.50	     9.644
  45.220         63.33	     8.718
  45.240         72.50	     9.327
  45.260         76.67	     9.592
  45.280         61.67	     8.602
  45.300         62.50	     8.660
  45.320         66.67	     8.944
  45.340         75.83	     9.539
  45.360         71.67	     9.274
  45.380         67.50	     9.000
  45.400         88.33	    10.296
  45.420         67.50	     9.000
  45.440         69.17	     9.110
  45.460         68.33	     9.055
  45.480         70.00	     9.165
  45.500         70.00	     9.165
  45.520         60.83	     8.544
  45.540         75.83	     9.539
  45.560         69.17	     9.110
  45.580         75.83	     9.539
  45.600         99.17	    10.909
  45.620         70.00	     9.165
  45.640        103.33	    11.136
  45.660         98.33	    10.863
  45.680        100.83	    11.000
  45.700         92.50	    10.536
  45.720        109.17	    11.446
  45.740        111.67	    11.576
  45.760         92.50	    10.536
  45.780        116.67	    11.832
  45.800        113.33	    11.662
  45.820        106.67	    11.314
  45.840         80.00	     9.798
  45.860         90.83	    10.440
  45.880        100.00	    10.954
  45.900         93.33	    10.583
  45.920        108.33	    11.402
  45.940        126.67	    12.329
  45.960        144.17	    13.153
  45.980        187.50	    15.000
  46.000        145.83	    13.229
  46.020        151.67	    13.491
  46.040        104.17	    11.180
  46.060        103.33	    11.136
  46.080        105.00	    11.225
  46.100         94.17	    10.630
  46.120         95.00	    10.677
  46.140         97.50	    10.817
  46.160         81.67	     9.899
  46.180         64.17	     8.775
  46.200         53.33	     8.000
  46.220         60.83	     8.544
  46.240         53.33	     8.000
  46.260         50.00	     7.746
  46.280         59.17	     8.426
  46.300         51.67	     7.874
  46.320         47.50	     7.550
  46.340         47.50	     7.550
  46.360         48.33	     7.616
  46.380         52.50	     7.937
  46.400         51.67	     7.874
  46.420         40.83	     7.000
  46.440         31.67	     6.164
  46.460         33.33	     6.325
  46.480         39.17	     6.856
  46.500         36.67	     6.633
  46.520         30.83	     6.083
  46.540         37.50	     6.708
  46.560         36.67	     6.633
  46.580         34.17	     6.403
  46.600         35.83	     6.557
  46.620         28.33	     5.831
  46.640         22.50	     5.196
  46.660         39.17	     6.856
  46.680         32.50	     6.245
  46.700         29.17	     5.916
  46.720         34.17	     6.403
  46.740         44.17	     7.280
  46.760         35.00	     6.481
  46.780         28.33	     5.831
  46.800         37.50	     6.708
  46.820         37.50	     6.708
  46.840         30.83	     6.083
  46.860         25.00	     5.477
  46.880         35.83	     6.557
  46.900         40.00	     6.928
  46.920         35.83	     6.557
  46.940         30.83	     6.083
  46.960         34.17	     6.403
  46.980         32.50	     6.245
  47.000         34.17	     6.403
  47.020         25.00	     5.477
  47.040         30.00	     6.000
  47.060         26.67	     5.657
  47.080         45.00	     7.348
  47.100         25.83	     5.568
  47.120         38.33	     6.782
  47.140         31.67	     6.164
  47.160         30.00	     6.000
  47.180         27.50	     5.745
  47.200         34.17	     6.403
  47.220         30.83	     6.083
  47.240         18.33	     4.690
  47.260         33.33	     6.325
  47.280         31.67	     6.164
  47.300         37.50	     6.708
  47.320         35.83	     6.557
  47.340         35.83	     6.557
  47.360         40.83	     7.000
  47.380         36.67	     6.633
  47.400         32.50	     6.245
  47.420         39.17	     6.856
  47.440         31.67	     6.164
  47.460         30.00	     6.000
  47.480         29.17	     5.916
  47.500         25.00	     5.477
  47.520         31.67	     6.164
  47.540         34.17	     6.403
  47.560         28.33	     5.831
  47.580         29.17	     5.916
  47.600         40.83	     7.000
  47.620         35.83	     6.557
  47.640         30.00	     6.000
  47.660         28.33	     5.831
  47.680         34.17	     6.403
  47.700         30.83	     6.083
  47.720         24.17	     5.385
  47.740         24.17	     5.385
  47.760         26.67	     5.657
  47.780         25.00	     5.477
  47.800         29.17	     5.916
  47.820         21.67	     5.099
  47.840         35.83	     6.557
  47.860         32.50	     6.245
  47.880         36.67	     6.633
  47.900         37.50	     6.708
  47.920         36.67	     6.633
  47.940         33.33	     6.325
  47.960         33.33	     6.325
  47.980         35.83	     6.557
  48.000         32.50	     6.245
  48.020         36.67	     6.633
  48.040         45.00	     7.348
  48.060         45.00	     7.348
  48.080         41.67	     7.071
  48.100         36.67	     6.633
  48.120         40.00	     6.928
  48.140         45.00	     7.348
  48.160         36.67	     6.633
  48.180         44.17	     7.280
  48.200         48.33	     7.616
  48.220         46.67	     7.483
  48.240         43.33	     7.211
  48.260         45.83	     7.416
  48.280         40.83	     7.000
  48.300         60.00	     8.485
  48.320         35.00	     6.481
  48.340         63.33	     8.718
  48.360         64.17	     8.775
  48.380         60.83	     8.544
  48.400         52.50	     7.937
  48.420         59.17	     8.426
  48.440         45.00	     7.348
  48.460         53.33	     8.000
  48.480         49.17	     7.681
  48.500         41.67	     7.071
  48.520         45.00	     7.348
  48.540         42.50	     7.141
  48.560         54.17	     8.062
  48.580         44.17	     7.280
  48.600         38.33	     6.782
  48.620         32.50	     6.245
  48.640         40.83	     7.000
  48.660         42.50	     7.141
  48.680         31.67	     6.164
  48.700         35.83	     6.557
  48.720         31.67	     6.164
  48.740         36.67	     6.633
  48.760         30.83	     6.083
  48.780         43.33	     7.211
  48.800         40.83	     7.000
  48.820         38.33	     6.782
  48.840         43.33	     7.211
  48.860         37.50	     6.708
  48.880         34.17	     6.403
  48.900         31.67	     6.164
  48.920         35.83	     6.557
  48.940         41.67	     7.071
  48.960         30.83	     6.083
  48.980         39.17	     6.856
  49.000         35.83	     6.557
  49.020         20.83	     5.000
  49.040         33.33	     6.325
  49.060         22.50	     5.196
  49.080         26.67	     5.657
  49.100         27.50	     5.745
  49.120         30.83	     6.083
  49.140         35.00	     6.481
  49.160         34.17	     6.403
  49.180         32.50	     6.245
  49.200         36.67	     6.633
  49.220         36.67	     6.633
  49.240         34.17	     6.403
  49.260         32.50	     6.245
  49.280         29.17	     5.916
  49.300         38.33	     6.782
  49.320         42.50	     7.141
  49.340         47.50	     7.550
  49.360         44.17	     7.280
  49.380         57.50	     8.307
  49.400         65.00	     8.832
  49.420         54.17	     8.062
  49.440         44.17	     7.280
  49.460         50.00	     7.746
  49.480         45.83	     7.416
  49.500         41.67	     7.071
  49.520         43.33	     7.211
  49.540         52.50	     7.937
  49.560         46.67	     7.483
  49.580         47.50	     7.550
  49.600         45.83	     7.416
  49.620         36.67	     6.633
  49.640         45.00	     7.348
  49.660         35.00	     6.481
  49.680         39.17	     6.856
  49.700         43.33	     7.211
  49.720         45.83	     7.416
  49.740         55.00	     8.124
  49.760         39.17	     6.856
  49.780         30.83	     6.083
  49.800         48.33	     7.616
  49.820         44.17	     7.280
  49.840         34.17	     6.403
  49.860         53.33	     8.000
  49.880         53.33	     8.000
  49.900         46.67	     7.483
  49.920         59.17	     8.426
  49.940         49.17	     7.681
  49.960         46.67	     7.483
  49.980         65.00	     8.832
  50.000         64.17	     8.775
  50.020         74.17	     9.434
  50.040         73.33	     9.381
  50.060         77.50	     9.644
  50.080         77.50	     9.644
  50.100         83.33	    10.000
  50.120         90.83	    10.440
  50.140         83.33	    10.000
  50.160         63.33	     8.718
  50.180        105.00	    11.225
  50.200        111.67	    11.576
  50.220        135.83	    12.767
  50.240        166.67	    14.142
  50.260        234.17	    16.763
  50.280        306.67	    19.183
  50.300        315.00	    19.442
  50.320        311.67	    19.339
  50.340        238.33	    16.912
  50.360        190.00	    15.100
  50.380        180.00	    14.697
  50.400        198.33	    15.427
  50.420        185.00	    14.900
  50.440        184.17	    14.866
  50.460        165.00	    14.071
  50.480        133.33	    12.649
  50.500         88.33	    10.296
  50.520         75.00	     9.487
  50.540         60.00	     8.485
  50.560         60.83	     8.544
  50.580         46.67	     7.483
  50.600         58.33	     8.367
  50.620         58.33	     8.367
  50.640         65.83	     8.888
  50.660         72.50	     9.327
  50.680         67.50	     9.000
  50.700         77.50	     9.644
  50.720         78.33	     9.695
  50.740         75.83	     9.539
  50.760         85.00	    10.100
  50.780         79.17	     9.747
  50.800         71.67	     9.274
  50.820         78.33	     9.695
  50.840         74.17	     9.434
  50.860         75.00	     9.487
  50.880         78.33	     9.695
  50.900         80.83	     9.849
  50.920         82.50	     9.950
  50.940         76.67	     9.592
  50.960         65.00	     8.832
  50.980         75.83	     9.539
  51.000         55.00	     8.124
  51.020         60.00	     8.485
  51.040         46.67	     7.483
  51.060         42.50	     7.141
  51.080         45.00	     7.348
  51.100         35.00	     6.481
  51.120         38.33	     6.782
  51.140         35.00	     6.481
  51.160         33.33	     6.325
  51.180         30.83	     6.083
  51.200         36.67	     6.633
  51.220         32.50	     6.245
  51.240         35.83	     6.557
  51.260         48.33	     7.616
  51.280         44.17	     7.280
  51.300         63.33	     8.718
  51.320         71.67	     9.274
  51.340         78.33	     9.695
  51.360         51.67	     7.874
  51.380         32.50	     6.245
  51.400         45.83	     7.416
  51.420         56.67	     8.246
  51.440         79.17	     9.747
  51.460         60.00	     8.485
  51.480         50.00	     7.746
  51.500         40.83	     7.000
  51.520         42.50	     7.141
  51.540         36.67	     6.633
  51.560         33.33	     6.325
  51.580         46.67	     7.483
  51.600         41.67	     7.071
  51.620         38.33	     6.782
  51.640         30.83	     6.083
  51.660         36.67	     6.633
  51.680         35.00	     6.481
  51.700         40.00	     6.928
  51.720         31.67	     6.164
  51.740         35.00	     6.481
  51.760         36.67	     6.633
  51.780         22.50	     5.196
  51.800         30.00	     6.000
  51.820         24.17	     5.385
  51.840         35.83	     6.557
  51.860         17.50	     4.583
  51.880         20.83	     5.000
  51.900         20.00	     4.899
  51.920         20.83	     5.000
  51.940         23.33	     5.292
  51.960         25.83	     5.568
  51.980         24.17	     5.385
  52.000         22.50	     5.196
  52.020         35.00	     6.481
  52.040         28.33	     5.831
  52.060         24.17	     5.385
  52.080         22.50	     5.196
  52.100         20.00	     4.899
  52.120         25.83	     5.568
  52.140         21.67	     5.099
  52.160         30.83	     6.083
  52.180         35.00	     6.481
  52.200         42.50	     7.141
  52.220         35.83	     6.557
  52.240         42.50	     7.141
  52.260         33.33	     6.325
  52.280         35.83	     6.557
  52.300         41.67	     7.071
  52.320         41.67	     7.071
  52.340         45.00	     7.348
  52.360         40.00	     6.928
  52.380         44.17	     7.280
  52.400         45.00	     7.348
  52.420         41.67	     7.071
  52.440         24.17	     5.385
  52.460         43.33	     7.211
  52.480         32.50	     6.245
  52.500         35.83	     6.557
  52.520         40.83	     7.000
  52.540         40.00	     6.928
  52.560         29.17	     5.916
  52.580         39.17	     6.856
  52.600         31.67	     6.164
  52.620         45.83	     7.416
  52.640         43.33	     7.211
  52.660         40.83	     7.000
  52.680         50.00	     7.746
  52.700         47.50	     7.550
  52.720         44.17	     7.280
  52.740         46.67	     7.483
  52.760         35.00	     6.481
  52.780         39.17	     6.856
  52.800         36.67	     6.633
  52.820         51.67	     7.874
  52.840         50.83	     7.810
  52.860         34.17	     6.403
  52.880         31.67	     6.164
  52.900         40.00	     6.928
  52.920         34.17	     6.403
  52.940         45.83	     7.416
  52.960         46.67	     7.483
  52.980         44.17	     7.280
  53.000         47.50	     7.550
  53.020         26.67	     5.657
  53.040         40.00	     6.928
  53.060         28.33	     5.831
  53.080         30.00	     6.000
  53.100         36.67	     6.633
  53.120         45.00	     7.348
  53.140         46.67	     7.483
  53.160         45.83	     7.416
  53.180         45.83	     7.416
  53.200         44.17	     7.280
  53.220         38.33	     6.782
  53.240         32.50	     6.245
  53.260         53.33	     8.000
  53.280         44.17	     7.280
  53.300         47.50	     7.550
  53.320         54.17	     8.062
  53.340         50.83	     7.810
  53.360         55.83	     8.185
  53.380         58.33	     8.367
  53.400         61.67	     8.602
  53.420         45.83	     7.416
  53.440         51.67	     7.874
  53.460         51.67	     7.874
  53.480         49.17	     7.681
  53.500         43.33	     7.211
  53.520         40.00	     6.928
  53.540         40.00	     6.928
  53.560         59.17	     8.426
  53.580         55.83	     8.185
  53.600         33.33	     6.325
  53.620         39.17	     6.856
  53.640         32.50	     6.245
  53.660         34.17	     6.403
  53.680         40.83	     7.000
  53.700         36.67	     6.633
  53.720         40.83	     7.000
  53.740         37.50	     6.708
  53.760         35.83	     6.557
  53.780         39.17	     6.856
  53.800         36.67	     6.633
  53.820         25.00	     5.477
  53.840         34.17	     6.403
  53.860         39.17	     6.856
  53.880         39.17	     6.856
  53.900         37.50	     6.708
  53.920         42.50	     7.141
  53.940         47.50	     7.550
  53.960         37.50	     6.708
  53.980         29.17	     5.916
  54.000         40.00	     6.928
  54.020         31.67	     6.164
  54.040         42.50	     7.141
  54.060         23.33	     5.292
  54.080         40.00	     6.928
  54.100         32.50	     6.245
  54.120         34.17	     6.403
  54.140         43.33	     7.211
  54.160         27.50	     5.745
  54.180         20.83	     5.000
  54.200         26.67	     5.657
  54.220         36.67	     6.633
  54.240         28.33	     5.831
  54.260         20.83	     5.000
  54.280         29.17	     5.916
  54.300         28.33	     5.831
  54.320         35.00	     6.481
  54.340         39.17	     6.856
  54.360         30.00	     6.000
  54.380         25.00	     5.477
  54.400         33.33	     6.325
  54.420         32.50	     6.245
  54.440         39.17	     6.856
  54.460         52.50	     7.937
  54.480         36.67	     6.633
  54.500         35.83	     6.557
  54.520         45.83	     7.416
  54.540         45.83	     7.416
  54.560         50.83	     7.810
  54.580         31.67	     6.164
  54.600         32.50	     6.245
  54.620         41.67	     7.071
  54.640         50.83	     7.810
  54.660         40.83	     7.000
  54.680         47.50	     7.550
  54.700         49.17	     7.681
  54.720         35.00	     6.481
  54.740         45.00	     7.348
  54.760         53.33	     8.000
  54.780         40.83	     7.000
  54.800         54.17	     8.062
  54.820         45.83	     7.416
  54.840         43.33	     7.211
  54.860         40.83	     7.000
  54.880         47.50	     7.550
  54.900         54.17	     8.062
  54.920         60.00	     8.485
  54.940         42.50	     7.141
  54.960         48.33	     7.616
  54.980         70.83	     9.220
  55.000         75.00	     9.487
  55.020         80.83	     9.849
  55.040         79.17	     9.747
  55.060         80.83	     9.849
  55.080         72.50	     9.327
  55.100         57.50	     8.307
  55.120         58.33	     8.367
  55.140         50.83	     7.810
  55.160         65.00	     8.832
  55.180         67.50	     9.000
  55.200         65.83	     8.888
  55.220         65.83	     8.888
  55.240         57.50	     8.307
  55.260         43.33	     7.211
  55.280         50.83	     7.810
  55.300         52.50	     7.937
  55.320         46.67	     7.483
  55.340         50.00	     7.746
  55.360         50.00	     7.746
  55.380         52.50	     7.937
  55.400         65.00	     8.832
  55.420         63.33	     8.718
  55.440         75.83	     9.539
  55.460         70.00	     9.165
  55.480         64.17	     8.775
  55.500         71.67	     9.274
  55.520         77.50	     9.644
  55.540         76.67	     9.592
  55.560         63.33	     8.718
  55.580         65.83	     8.888
  55.600         68.33	     9.055
  55.620         55.83	     8.185
  55.640         50.83	     7.810
  55.660         41.67	     7.071
  55.680         62.50	     8.660
  55.700         49.17	     7.681
  55.720         50.00	     7.746
  55.740         51.67	     7.874
  55.760         55.00	     8.124
  55.780         49.17	     7.681
  55.800         71.67	     9.274
  55.820         44.17	     7.280
  55.840         65.00	     8.832
  55.860         67.50	     9.000
  55.880         71.67	     9.274
  55.900         65.00	     8.832
  55.920         85.83	    10.149
  55.940         70.00	     9.165
  55.960         78.33	     9.695
  55.980         89.17	    10.344
  56.000         95.83	    10.724
  56.020         63.33	     8.718
  56.040         80.83	     9.849
  56.060        100.83	    11.000
  56.080         72.50	     9.327
  56.100         63.33	     8.718
  56.120         73.33	     9.381
  56.140         65.00	     8.832
  56.160         59.17	     8.426
  56.180         55.00	     8.124
  56.200         46.67	     7.483
  56.220         52.50	     7.937
  56.240         53.33	     8.000
  56.260         36.67	     6.633
  56.280         39.17	     6.856
  56.300         34.17	     6.403
  56.320         36.67	     6.633
  56.340         50.00	     7.746
  56.360         55.00	     8.124
  56.380         45.83	     7.416
  56.400         39.17	     6.856
  56.420         35.83	     6.557
  56.440         43.33	     7.211
  56.460         39.17	     6.856
  56.480         41.67	     7.071
  56.500         37.50	     6.708
  56.520         45.00	     7.348
  56.540         42.50	     7.141
  56.560         50.83	     7.810
  56.580         35.83	     6.557
  56.600         31.67	     6.164
  56.620         34.17	     6.403
  56.640         39.17	     6.856
  56.660         35.00	     6.481
  56.680         38.33	     6.782
  56.700         36.67	     6.633
  56.720         35.83	     6.557
  56.740         27.50	     5.745
  56.760         34.17	     6.403
  56.780         32.50	     6.245
  56.800         30.83	     6.083
  56.820         33.33	     6.325
  56.840         33.33	     6.325
  56.860         33.33	     6.325
  56.880         35.00	     6.481
  56.900         35.83	     6.557
  56.920         37.50	     6.708
  56.940         43.33	     7.211
  56.960         35.83	     6.557
  56.980         38.33	     6.782
  57.000         34.17	     6.403
  57.020         33.33	     6.325
  57.040         40.83	     7.000
  57.060         49.17	     7.681
  57.080         40.00	     6.928
  57.100         42.50	     7.141
  57.120         50.00	     7.746
  57.140         45.00	     7.348
  57.160         45.83	     7.416
  57.180         48.33	     7.616
  57.200         32.50	     6.245
  57.220         26.67	     5.657
  57.240         33.33	     6.325
  57.260         40.00	     6.928
  57.280         29.17	     5.916
  57.300         33.33	     6.325
  57.320         40.00	     6.928
  57.340         32.50	     6.245
  57.360         53.33	     8.000
  57.380         50.83	     7.810
  57.400         43.33	     7.211
  57.420         45.00	     7.348
  57.440         39.17	     6.856
  57.460         34.17	     6.403
  57.480         41.67	     7.071
  57.500         35.83	     6.557
  57.520         37.50	     6.708
  57.540         37.50	     6.708
  57.560         30.83	     6.083
  57.580         35.00	     6.481
  57.600         38.33	     6.782
  57.620         35.83	     6.557
  57.640         35.00	     6.481
  57.660         45.00	     7.348
  57.680         34.17	     6.403
  57.700         25.83	     5.568
  57.720         40.00	     6.928
  57.740         36.67	     6.633
  57.760         36.67	     6.633
  57.780         38.33	     6.782
  57.800         39.17	     6.856
  57.820         44.17	     7.280
  57.840         35.00	     6.481
  57.860         35.83	     6.557
  57.880         40.00	     6.928
  57.900         48.33	     7.616
  57.920         47.50	     7.550
  57.940         41.67	     7.071
  57.960         48.33	     7.616
  57.980         42.50	     7.141
  58.000         35.83	     6.557
  58.020         35.00	     6.481
  58.040         38.33	     6.782
  58.060         36.67	     6.633
  58.080         35.83	     6.557
  58.100         27.50	     5.745
  58.120         31.67	     6.164
  58.140         28.33	     5.831
  58.160         42.50	     7.141
  58.180         37.50	     6.708
  58.200         42.50	     7.141
  58.220         47.50	     7.550
  58.240         34.17	     6.403
  58.260         27.50	     5.745
  58.280         31.67	     6.164
  58.300         35.00	     6.481
  58.320         39.17	     6.856
  58.340         36.67	     6.633
  58.360         37.50	     6.708
  58.380         46.67	     7.483
  58.400         41.67	     7.071
  58.420         38.33	     6.782
  58.440         34.17	     6.403
  58.460         45.83	     7.416
  58.480         49.17	     7.681
  58.500         41.67	     7.071
  58.520         45.83	     7.416
  58.540         36.67	     6.633
  58.560         50.83	     7.810
  58.580         54.17	     8.062
  58.600         41.67	     7.071
  58.620         43.33	     7.211
  58.640         54.17	     8.062
  58.660         65.00	     8.832
  58.680         60.00	     8.485
  58.700         67.50	     9.000
  58.720         58.33	     8.367
  58.740         61.67	     8.602
  58.760         69.17	     9.110
  58.780         70.83	     9.220
  58.800         65.00	     8.832
  58.820         60.83	     8.544
  58.840         61.67	     8.602
  58.860         51.67	     7.874
  58.880         52.50	     7.937
  58.900         55.00	     8.124
  58.920         51.67	     7.874
  58.940         65.83	     8.888
  58.960         57.50	     8.307
  58.980         54.17	     8.062
  59.000         50.83	     7.810
  59.020         55.00	     8.124
  59.040         45.00	     7.348
  59.060         45.83	     7.416
  59.080         56.67	     8.246
  59.100         52.50	     7.937
  59.120         52.50	     7.937
  59.140         45.00	     7.348
  59.160         37.50	     6.708
  59.180         53.33	     8.000
  59.200         50.00	     7.746
  59.220         52.50	     7.937
  59.240         51.67	     7.874
  59.260         47.50	     7.550
  59.280         46.67	     7.483
  59.300         40.00	     6.928
  59.320         50.83	     7.810
  59.340         53.33	     8.000
  59.360         49.17	     7.681
  59.380         54.17	     8.062
  59.400         45.00	     7.348
  59.420         57.50	     8.307
  59.440         50.83	     7.810
  59.460         49.17	     7.681
  59.480         41.67	     7.071
  59.500         55.00	     8.124
  59.520         53.33	     8.000
  59.540         40.83	     7.000
  59.560         35.83	     6.557
  59.580         48.33	     7.616
  59.600         40.00	     6.928
  59.620         45.83	     7.416
  59.640         42.50	     7.141
  59.660         39.17	     6.856
  59.680         44.17	     7.280
  59.700         56.67	     8.246
  59.720         40.83	     7.000
  59.740         37.50	     6.708
  59.760         40.83	     7.000
  59.780         45.00	     7.348
  59.800         36.67	     6.633
  59.820         33.33	     6.325
  59.840         44.17	     7.280
  59.860         44.17	     7.280
  59.880         52.50	     7.937
  59.900         46.67	     7.483
  59.920         57.50	     8.307
  59.940         45.00	     7.348
  59.960         64.17	     8.775
  59.980         61.67	     8.602
  60.000         59.17	     8.426
  60.020         78.33	     9.695
  60.040        111.67	    11.576
  60.060        129.17	    12.450
  60.080        187.50	    15.000
  60.100        207.50	    15.780
  60.120        231.67	    16.673
  60.140        232.50	    16.703
  60.160        229.17	    16.583
  60.180        190.00	    15.100
  60.200        180.83	    14.731
  60.220        158.33	    13.784
  60.240        135.83	    12.767
  60.260        145.00	    13.191
  60.280        157.50	    13.748
  60.300        147.50	    13.304
  60.320        161.67	    13.928
  60.340        123.33	    12.166
  60.360         84.17	    10.050
  60.380         65.83	     8.888
  60.400         56.67	     8.246
  60.420         63.33	     8.718
  60.440         64.17	     8.775
  60.460         64.17	     8.775
  60.480         53.33	     8.000
  60.500         46.67	     7.483
  60.520         56.67	     8.246
  60.540         50.83	     7.810
  60.560         36.67	     6.633
  60.580         42.50	     7.141
  60.600         47.50	     7.550
  60.620         55.00	     8.124
  60.640         48.33	     7.616
  60.660         41.67	     7.071
  60.680         34.17	     6.403
  60.700         35.83	     6.557
  60.720         36.67	     6.633
  60.740         65.83	     8.888
  60.760         56.67	     8.246
  60.780         36.67	     6.633
  60.800         55.00	     8.124
  60.820         59.17	     8.426
  60.840         59.17	     8.426
  60.860         75.00	     9.487
  60.880         84.17	    10.050
  60.900         63.33	     8.718
  60.920         70.00	     9.165
  60.940         61.67	     8.602
  60.960         57.50	     8.307
  60.980         61.67	     8.602
  61.000         55.00	     8.124
  61.020         63.33	     8.718
  61.040         75.83	     9.539
  61.060         76.67	     9.592
  61.080         66.67	     8.944
  61.100         51.67	     7.874
  61.120         47.50	     7.550
  61.140         52.50	     7.937
  61.160         65.00	     8.832
  61.180         73.33	     9.381
  61.200         65.83	     8.888
  61.220         56.67	     8.246
  61.240         58.33	     8.367
  61.260         45.83	     7.416
  61.280         42.50	     7.141
  61.300         50.83	     7.810
  61.320         54.17	     8.062
  61.340         55.83	     8.185
  61.360         47.50	     7.550
  61.380         35.00	     6.481
  61.400         51.67	     7.874
  61.420         46.67	     7.483
  61.440         45.00	     7.348
  61.460         57.50	     8.307
  61.480         48.33	     7.616
  61.500         47.50	     7.550
  61.520         52.50	     7.937
  61.540         47.50	     7.550
  61.560         55.83	     8.185
  61.580         55.00	     8.124
  61.600         57.50	     8.307
  61.620         56.67	     8.246
  61.640         73.33	     9.381
  61.660         63.33	     8.718
  61.680         64.17	     8.775
  61.700         78.33	     9.695
  61.720         56.67	     8.246
  61.740         65.00	     8.832
  61.760         52.50	     7.937
  61.780         57.50	     8.307
  61.800         59.17	     8.426
  61.820         64.17	     8.775
  61.840         54.17	     8.062
  61.860         68.33	     9.055
  61.880         61.67	     8.602
  61.900         51.67	     7.874
  61.920         52.50	     7.937
  61.940         52.50	     7.937
  61.960         45.83	     7.416
  61.980         55.83	     8.185
  62.000         49.17	     7.681
  62.020         53.33	     8.000
  62.040         43.33	     7.211
  62.060         58.33	     8.367
  62.080         55.00	     8.124
  62.100         52.50	     7.937
  62.120         43.33	     7.211
  62.140         40.00	     6.928
  62.160         53.33	     8.000
  62.180         50.00	     7.746
  62.200         63.33	     8.718
  62.220         47.50	     7.550
  62.240         36.67	     6.633
  62.260         47.50	     7.550
  62.280         45.00	     7.348
  62.300         40.83	     7.000
  62.320         35.00	     6.481
  62.340         40.83	     7.000
  62.360         33.33	     6.325
  62.380         38.33	     6.782
  62.400         33.33	     6.325
  62.420         38.33	     6.782
  62.440         44.17	     7.280
  62.460         38.33	     6.782
  62.480         31.67	     6.164
  62.500         28.33	     5.831
  62.520         37.50	     6.708
  62.540         27.50	     5.745
  62.560         36.67	     6.633
  62.580         37.50	     6.708
  62.600         35.00	     6.481
  62.620         42.50	     7.141
  62.640         29.17	     5.916
  62.660         28.33	     5.831
  62.680         33.33	     6.325
  62.700         33.33	     6.325
  62.720         33.33	     6.325
  62.740         39.17	     6.856
  62.760         40.83	     7.000
  62.780         35.83	     6.557
  62.800         30.83	     6.083
  62.820         35.83	     6.557
  62.840         28.33	     5.831
  62.860         40.00	     6.928
  62.880         43.33	     7.211
  62.900         31.67	     6.164
  62.920         30.00	     6.000
  62.940         39.17	     6.856
  62.960         35.83	     6.557
  62.980         50.83	     7.810
  63.000         41.67	     7.071
  63.020         41.67	     7.071
  63.040         35.00	     6.481
  63.060         44.17	     7.280
  63.080         32.50	     6.245
  63.100         47.50	     7.550
  63.120         29.17	     5.916
  63.140         32.50	     6.245
  63.160         33.33	     6.325
  63.180         27.50	     5.745
  63.200         28.33	     5.831
  63.220         28.33	     5.831
  63.240         26.67	     5.657
  63.260         26.67	     5.657
  63.280         33.33	     6.325
  63.300         32.50	     6.245
  63.320         30.00	     6.000
  63.340         30.00	     6.000
  63.360         38.33	     6.782
  63.380         34.17	     6.403
  63.400         27.50	     5.745
  63.420         42.50	     7.141
  63.440         35.00	     6.481
  63.460         35.83	     6.557
  63.480         30.83	     6.083
  63.500         33.33	     6.325
  63.520         39.17	     6.856
  63.540         45.00	     7.348
  63.560         40.83	     7.000
  63.580         37.50	     6.708
  63.600         38.33	     6.782
  63.620         37.50	     6.708
  63.640         61.67	     8.602
  63.660         41.67	     7.071
  63.680         43.33	     7.211
  63.700         48.33	     7.616
  63.720         32.50	     6.245
  63.740         53.33	     8.000
  63.760         43.33	     7.211
  63.780         42.50	     7.141
  63.800         50.00	     7.746
  63.820         43.33	     7.211
  63.840         45.83	     7.416
  63.860         50.83	     7.810
  63.880         45.83	     7.416
  63.900         40.00	     6.928
  63.920         44.17	     7.280
  63.940         35.83	     6.557
  63.960         31.67	     6.164
  63.980         41.67	     7.071
  64.000         52.50	     7.937
  64.020         36.67	     6.633
  64.040         49.17	     7.681
  64.060         55.83	     8.185
  64.080         50.00	     7.746
  64.100         50.00	     7.746
  64.120         54.17	     8.062
  64.140         64.17	     8.775
  64.160         81.67	     9.899
  64.180         65.00	     8.832
  64.200         66.67	     8.944
  64.220         70.00	     9.165
  64.240         45.83	     7.416
  64.260         55.83	     8.185
  64.280         65.00	     8.832
  64.300         54.17	     8.062
  64.320         48.33	     7.616
  64.340         49.17	     7.681
  64.360         49.17	     7.681
  64.380         42.50	     7.141
  64.400         49.17	     7.681
  64.420         50.00	     7.746
  64.440         45.83	     7.416
  64.460         42.50	     7.141
  64.480         43.33	     7.211
  64.500         46.67	     7.483
  64.520         34.17	     6.403
  64.540         37.50	     6.708
  64.560         42.50	     7.141
  64.580         30.83	     6.083
  64.600         42.50	     7.141
  64.620         35.83	     6.557
  64.640         31.67	     6.164
  64.660         40.00	     6.928
  64.680         35.00	     6.481
  64.700         40.00	     6.928
  64.720         35.83	     6.557
  64.740         38.33	     6.782
  64.760         35.83	     6.557
  64.780         45.00	     7.348
  64.800         40.83	     7.000
  64.820         41.67	     7.071
  64.840         47.50	     7.550
  64.860         41.67	     7.071
  64.880         42.50	     7.141
  64.900         36.67	     6.633
  64.920         53.33	     8.000
  64.940         51.67	     7.874
  64.960         48.33	     7.616
  64.980         50.00	     7.746
  65.000         48.33	     7.616
